3596
4000.36533379555
650.420452594757
1
2
2
0.0481249543658438
0.0276076205307744
0.0411033342126485
0.0311142746280829
0.0367140328182275
0.0304324497989648
0.0427042936639939
0.021739409377055
0.0399564350939413
0.0302374043823328
0.0375557063520379
0.0284532810851318
0.0338270692734504
0.0288959897313108
0.0446312558214467
0.0243564864636596
0.0415891416865457
0.0245798610473444
0.0389473282371761
0.0226933669003282
0.042381984734019
0.0233802275952467
0.0362537191974704
0.0299819187101276
0.039754211434977
0.0219887916441699
0.0430965401977081
0.0261632750476516
0.0379297499495157
0.031967956466623
0.042130702329324
0.0209268266993544
0.0389655340192064
0.0274550431553789
0.0459122462455989
0.0274987672721084
0.0344798449981748
0.03343826318255
0.0381578064857049
0.0312446377427253
0.044371139896746
0.024652109696767
0.0461649488831027
0.0272706568881642
0.037186333745372
0.0272112756163975
0.0426925895439428
0.0250706562049149
0.040482925551677
0.0284853121759155
0.0459550864086154
0.0251675305539837
0.0425565283079312
0.0377296632708118
0.0332396625352612
0.030796816290124
0.0371083733357696
0.0227569638070644
0.0423714788386529
0.0223682053916488
0.0476978788207159
0.0284690324118653
0.0346520289709137
0.0245066915851355
0.0366706302050597
0.0308185847771509
0.0295697693949562
0.0298898869121023
0.0353043696955369
0.0274068268356641
0.031682886957129
0.0253690195427408
0.041955012416478
0.0311376119392325
0.0378793329851309
0.0233531640382303
0.0335775984706686
0.0329770943608994
0.0329659773581752
0.0258457225525634
0.0333745469157118
0.027150310261252
0.0346565644755345
0.0224454906908652
0.0344234872716209
0.0367779034866306
0.0333184503115718
0.024278488283994
0.0376443790580044
0.0310115373181538
0.040696731860261
0.0253075279386985
0.0339828619653807
0.0313356173184327
0.035754243526797
0.0315855697797656
0.0279026355349952
0.0261325732718271
0.0338658247785321
0.0277806525690264
0.0430773190499936
0.0108071830641525
0.0661348124136123
0.00506294525791165
0.0601536959791417
0.017857278853699
0.0284291753575957
0.0451831437826245
0.0325499063065433
0.0353201697640203
0.0258194451091665
0.0303472551081945
0.0272557844042446
0.0350468485604831
0.0246956388418826
0.0314634900773675
0.0377341825488177
0.0237244497695054
0.0326941120286985
0.0400632306059279
0.0294124110858339
0.0305354696027409
0.041875384159269
0.0205549620036182
0.0427222367987455
0.0221248124400413
0.028990852859287
0.0347841920344443
0.0393902642243041
0.0245791278644771
0.0412193655240171
0.0199487665486974
0.033414809687806
0.0152036195573267
0.0547857443996059
0.0139192745783283
0.0367545576739499
0.0127751177520314
0.0374783088597401
0.0383198439353825
0.0327090040203095
0.0295765806426514
0.0317680727653832
0.0228752279949516
0.0517319625341685
0.0234355461033224
0.0231015931383571
0.0211801980589621
0.0335343250707322
0.0237323219485179
0.0328980932138898
0.012245952756434
0.038166484130661
0.0294545435232928
0.00600405004434736
0.0321105818344875
0.0583556797412569
-0.00696087148604409
0.0671269670945355
0.0150176815833843
0.0469421379166883
0.0116339671177611
0.0315430698113617
0.0172058282864989
0.044687854253561
0.020127541713098
0.032835700700321
0.0342270233497493
0.0341877328552341
0.0173901121184055
0.0476419107645877
0.0296002119602342
0.0205378174946096
0.0488678506013067
0.0295741872255749
0.0135813237988784
0.0448573903095263
0.0268472066292105
0.0252525465814357
0.0239479323709675
0.0488274077902168
0.0182856127515864
0.0404669540637553
0.0148731928988845
0.0330581361033556
0.0317273137155223
0.0346044445081903
0.0198823633741983
0.0377751321940997
0.013358084581585
0.0412182419121054
0.0320051318143634
0.048054260144121
0.0174501804672913
0.0442563162170453
-0.0019761587932695
0.0624898769390517
0.0341775329112359
0.0357137014041613
0.0244692506786701
0.0370835791210096
0.0256811720090066
0.0311044882155849
0.0261497995669216
0.0379139565257558
-0.00157425514810827
0.0496200801638401
0.0174710152812774
0.0428395388670309
0.0241497484579434
0.0394929983478162
0.00237379509284094
0.0627952745947417
0.0295656358474932
0.0378300565997852
0.0252910289462608
0.0217356589244892
0.0328089356834135
0.0403361342244139
0.0264510452622047
0.0403152949939997
0.0248520527295576
0.0370108810519474
0.0166887170314779
0.0273786961910233
0.0263603519546375
0.0319440744976921
0.0192802673813469
0.0320437829066418
0.0243922406966118
0.037440995831861
0.0207861766367572
0.0323179837280448
0.0263924787583439
0.0244801420996744
0.0282903333892981
0.0415152227834369
0.0223169707843385
0.0327035210141811
0.0218541123232961
0.0370694970778161
0.0254626389457836
0.0368060493460326
0.0230427267765157
0.0397348184188248
0.00332140069201493
0.0491526583955253
0.0158086486745249
0.0444445562075804
0.0101445054972676
0.0550353591170361
0.0197792919422988
0.0431501863633506
0.0217328366128017
0.0381216561192146
0.0151301463174907
0.0381242759893893
0.0342974569869579
0.0372556712612052
0.0199468247180686
0.040085317919629
0.0246412311109147
0.0371858543490412
0.0280394178491784
0.015703444224406
0.0543207403926581
0.0338747685491507
0.0271600170268802
0.0662714924490413
0.0145509936609459
0.0407195938618854
0.0184705534278427
0.0254584906438703
0.0614677785383842
0.0496009943169569
0.0307812295180094
0.0295985668448994
0.0293828716917537
0.0271327453629716
0.0305617129007298
0.0330288697948269
0.024472817226712
0.0468100473456502
0.0267750897258357
0.064367976003703
0.00454425785901181
0.0646407843211686
0.0289409213080115
0.0393183440929893
0.0224763413917081
0.0426116155257981
0.0231785857925584
0.0499086828865712
0.031318940261588
0.0430496372619722
0.0266711084257737
0.0297876735186096
0.0367770081411888
0.0374958351050127
0.031076610093629
0.0369768368728914
0.0355414251624576
0.0304439315328492
0.0390406960552578
0.0334564094736001
0.0342969983912083
0.0306729074364395
0.0156190579640995
0.0592708513225971
0.0277913365448786
0.0360325703013195
0.0442369377303452
0.0380689383292215
0.0346841339300012
0.0393671437798107
0.0328485856125711
0.0375028933447248
0.0344145729339448
0.0361619445586175
0.0525004412348418
0.0378352054513214
0.0365810534170301
0.0399994681859613
0.0323905103350918
0.0389101131546276
0.0400111971850827
0.0423699489864296
0.0359426994183051
0.0434483742806286
0.0265109790161734
0.0463579520140378
0.0443824339495443
0.0262854092857492
0.0473439066173197
0.0530435224315005
0.0382588220821716
0.0472703988888133
0.0335406551661529
0.0521905721738342
0.0398032701139332
0.0548201440623273
0.0379270933161454
0.0463424949102815
0.0430786575385268
0.0566500075898295
0.0346584869855468
0.0553445727311544
0.0459091988138046
0.0738083693234814
0.0386692739553591
0.0597622290782082
0.0227480482829309
0.0753720936697941
0.0493654789831543
0.0658016921410694
0.0627251752003952
0.0522267302344327
0.0620962200822914
0.0609422687944376
0.0618368240565582
0.0626004375467961
0.0665687608258533
0.0673756858207045
0.0677601339813825
0.0653926628817284
0.0700361896557766
0.0636947241312792
0.0592338153976562
0.0872980709379351
0.0684742888547611
0.070002987362893
0.0739602140767811
0.0682428258917688
0.0886008737371837
0.0769333905046604
0.0919256933232571
0.0869168208512184
0.080293612902108
0.10561903596843
0.0722658613854565
0.0985799230691582
0.0812180570097675
0.103334000118007
0.0915997778335564
0.098809426875611
0.0839054699826308
0.10813289654373
0.0969783770848976
0.10998854315359
0.0966954097327039
0.119103059708831
0.0987605379759277
0.128295410122279
0.101865561859415
0.125482292398717
0.0936525998590232
0.135723267899352
0.117075052468214
0.154389369851248
0.11840400552446
0.142160380118072
0.116147244088362
0.139738976836564
0.131057987486301
0.137090086994837
0.13446363183258
0.145401111422275
0.148604688467769
0.161212676182951
0.140995849200395
0.160571878205191
0.133723176381272
0.168130948476824
0.15011750459936
0.171193307499872
0.166435007881575
0.175486234575165
0.147352231358447
0.187847446353282
0.168947558085679
0.189642619812654
0.180981356488165
0.184915292424421
0.176140525400066
0.184222611750947
0.193595206158544
0.192297959872077
0.192270328764535
0.212743414427725
0.187834062008365
0.209468195884655
0.20025340607306
0.211977123110626
0.213102148305017
0.207609006429799
0.212420117491054
0.232589416352582
0.209256475227157
0.246121103795821
0.218805073187458
0.258507319824734
0.236768381319368
0.257460320275604
0.236637432929225
0.239520809213933
0.24611528255689
0.26785870004592
0.250008094412354
0.262929922443022
0.253117243279968
0.280801331124012
0.254937817771668
0.284422265880386
0.268547782386237
0.280134819183691
0.289493005545146
0.307396974215251
0.273083249586777
0.302992239756265
0.278807723913854
0.306661207676649
0.297516799748901
0.335249418324682
0.292140313348332
0.337096518782552
0.31367581288671
0.33453250374457
0.338283185570101
0.337135862418625
0.334909559196474
0.353750541335131
0.333089200516524
0.358765479982269
0.334833003734758
0.354145756044349
0.339308827527348
0.369614702987248
0.343626124190314
0.375548604707761
0.377687766649752
0.390093294175171
0.368353310666151
0.387146020519771
0.378967680675817
0.396140979278171
0.388515054392019
0.403403685983241
0.394085188426319
0.426298402057414
0.405376290990099
0.411517531563601
0.389774059032918
0.44131843841474
0.418777830674788
0.449080178804962
0.426537965175333
0.453432145790217
0.432920956274914
0.451380447617636
0.430893713525993
0.464501656453086
0.451704232542502
0.492213745120515
0.471318650428461
0.483662544747423
0.465191720420075
0.500799418091248
0.452183084435216
0.49484742910161
0.466268089271369
0.506278810995542
0.527241555787867
0.534662906473204
0.516105197828573
0.530258785319351
0.498568340428711
0.531213458377979
0.519684544447318
0.533177589165954
0.516443041225473
0.562747569132408
0.520631000125402
0.577760197034992
0.547961511551283
0.577067592147953
0.559470039446853
0.588022244729603
0.546810749176257
0.58388584493372
0.556210428046789
0.60472360437039
0.561061967179326
0.588241579363659
0.569679962378445
0.647794528911811
0.591017577057448
0.643657525247771
0.599063972155813
0.640266990600817
0.610293051639289
0.655301179210868
0.607456638558391
0.65586836248501
0.609038935996527
0.636938411858766
0.628577894395486
0.692017975252329
0.63961030647169
0.678620605888399
0.650277666489992
0.700597850405278
0.645357236184774
0.706647274269868
0.668977739371878
0.706578826755422
0.667107800744978
0.717706447727129
0.672863933227165
0.732890342600209
0.713670606098644
0.748488427102318
0.689019723129578
0.751918948744631
0.703666889274977
0.750775437537822
0.743205711493142
0.764506833183449
0.708528281186846
0.737299759421452
0.717819937254838
0.77190621630627
0.734219370369427
0.798554407944328
0.771103481671528
0.818974982140662
0.749535890163245
0.83366840251392
0.775013645157047
0.815914306802392
0.786072118472325
0.83167308045579
0.798305646671128
0.814418604705956
0.804579303271716
0.857948438814546
0.768188532380245
0.835840077006376
0.817190449783556
0.932240036254922
0.79989556882145
0.916161669429924
0.812436700048729
0.930418733579044
0.823464567068173
0.918250677714995
0.87176152784417
0.865888780119218
0.831870764832865
0.938462422887187
0.848927275479828
0.855677738426972
0.828518503484661
0.907637138588511
0.851828391804149
0.966451495778667
0.838441877873395
0.974200283024995
0.875931128281053
0.942897113186157
0.903109283907944
0.938551554761544
0.955611824898875
0.938125100415617
0.912402313464571
1.02562624997175
0.943625985020001
0.954964411407711
0.930329021005991
0.983857255896658
0.924796739392197
1.00263678702161
0.925345919650171
1.0011067892437
0.936862799555927
1.10419981415347
0.944338070461596
1.00755431118369
0.909928151388145
1.00129978930703
0.923279516693001
1.0460404116661
0.956595290744855
1.07039552567585
0.968896420585019
1.03603383909093
0.98821119197181
1.04822655338856
0.963197138991882
1.07879875682884
1.03591826282948
1.05784129960804
0.940880825863682
1.13060601397685
1.0147073358305
1.08199721490969
1.0519846403803
1.09513430313544
0.986056475662185
1.09688940086794
1.00656464357515
1.13852224158565
0.997001761901146
1.17082643656648
1.06744713138674
1.17331487893
1.01869495153613
1.14151516003455
0.996279795611977
1.10894300597998
1.08635248403307
1.24714270314484
1.05073208044905
1.18606581080832
1.11272043980101
1.10851165972119
1.081709843259
1.14813456343004
1.11210652617633
1.14428025007723
1.0358538805798
1.07198980623777
1.03760230822544
1.17496322020054
1.1068382235726
1.21273866300558
1.07130294712984
1.180593042278
1.1059009513272
1.19874782148095
1.14770024748159
1.21043074449611
1.10061764539527
1.19603309282291
1.14058686161699
1.20988495457162
1.07358267932617
1.18731292944319
1.11061085429022
1.17008971851522
1.10576861584994
1.32693947027446
1.10536973994887
1.26113075193757
1.07378490233575
1.2201861874186
1.07589598099585
1.20960327962378
1.13829972864536
1.22124847909622
1.09566290317999
1.20464722021298
1.19222326065715
1.25479512972586
1.14173208718662
1.20508180099289
1.13618606198898
1.2275915945962
1.11441569987736
1.23173321700976
1.18147099276884
1.23121155517379
1.17152444241618
1.22308502654056
1.12297184716536
1.26249749331596
1.15230700317564
1.18183496382286
1.17257142315864
1.21150211896708
1.15859443838288
1.24836270170448
1.12563604583509
1.25285884954846
1.15335286867922
1.24777820832889
1.09264056606576
1.26772890616962
1.11245166593259
1.23241922898328
1.15296839692157
1.29314192152901
1.17667794415642
1.20514836263267
1.18046944574344
1.22437567883884
1.18251932000998
1.28152456344548
1.14323427135335
1.20285409956897
1.10941831776732
1.21250191366092
1.2070858813833
1.28488597340889
1.13356643388973
1.22859947981103
1.11367904772131
1.21876428730211
1.18441172010568
1.22948634755912
1.18962216080102
1.2978051043061
1.21622142877561
1.28473415854963
1.11716465203823
1.23905339946484
1.15131074803759
1.18017435783753
1.17036989468367
1.24579592669546
1.17239277124684
1.15624110981904
1.08344945459592
1.1834795494171
1.19079477148896
1.28541718498229
1.19219804000368
1.2736990536224
1.14070800178428
1.19897981812459
1.17707928343731
1.23519275234971
1.16393497178252
1.25719808405664
1.15511218742761
1.19962772016528
1.13198081495091
1.22969769119267
1.1693109663547
1.18317576715103
1.08747229333596
1.20523878004168
1.13878328492773
1.20731919689614
1.14188770709799
1.21326839881875
1.18987999550108
1.19352848390712
1.15357960101749
1.22797223631037
1.15240315491283
1.22490222346759
1.12882617166431
1.24404374727897
1.1579914189661
1.1964414831668
1.10850768246751
1.20568050137658
1.14713996240136
1.2041631012227
1.06975322346703
1.1476000766633
1.16201806400839
1.10803823061452
1.05623143922925
1.2033004467662
1.12246543960563
1.15209877357064
1.10350248007024
1.1690087855953
1.09587113165025
1.14525037430901
1.0739290094019
1.14741060472227
1.10267017337879
1.18058575856438
1.07781618244904
1.14399380962128
1.08825378932162
1.14813947098135
1.10905312537736
1.16644024563849
1.06327527357323
1.15180712391032
1.06444988122212
1.12168545168428
1.06040991914598
1.09589528153135
1.05450693956496
1.13136778784138
1.077139180972
1.08517499492302
1.03611876469834
1.08034905772012
1.02857055131766
1.10120486689145
1.04123050055464
1.08563240220115
1.03947917384029
1.08003267493209
1.0547050760284
1.07643895335996
1.00102275454758
1.09957637435198
1.01631186059579
1.0588129140275
1.04410394190764
1.0743191721547
1.03177091999887
1.02877610172227
1.00656450592892
1.04804067534187
0.996297575937965
1.02218345812988
1.03635999232577
1.03471840959973
1.01327143233332
1.02383163504765
0.99049992102714
0.997792651651794
0.97813895576757
1.02559279506848
0.987540708518746
1.02338394543504
0.946754911513561
0.990339530960497
0.93953542893098
1.0046172493692
0.928496498075066
0.965879477914758
0.938594629158942
0.967225740250437
0.925229068300052
0.961352231970408
0.925553721182293
0.947805902104928
0.918676772399194
0.922943237058995
0.885411520181348
0.964429121830784
0.898799077437645
0.948352186491712
0.895534657260061
0.935960781863741
0.89171526526512
0.928413693146067
0.871759929236577
0.90483694882668
0.865216171605062
0.890275625749211
0.851458994117443
0.873099874211411
0.860341859911312
0.874477486424918
0.821441193014918
0.862573947640251
0.835046029330783
0.861258370875269
0.814087377447502
0.851985722062661
0.804299330428839
0.823802034328021
0.802166009517624
0.814021121848952
0.793150577409208
0.810552024196287
0.79776336319062
0.810142370086775
0.783203079534268
0.798027119553771
0.787209545813178
0.786683364116351
0.780176686012898
0.774801283487121
0.774059025896115
0.78695792105365
0.763214819935313
0.775724336034479
0.752290350686247
0.765313005269303
0.759942466763192
0.757176383772254
0.732999499238118
0.743154969895221
0.740970852596139
0.740221211090443
0.729165372275653
0.747942670504597
0.71335681499166
0.717552380389577
0.697594665829519
0.729226561431496
0.706905513388968
0.711865201737338
0.687444191579741
0.696503120558474
0.684348358512529
0.710544120146909
0.679851236034782
0.677316246911974
0.660208196444243
0.679309507894422
0.656525707054908
0.668018142745842
0.64704037213239
0.65109442513753
0.650396764890537
0.65894883744614
0.635921647553642
0.65310844457304
0.620178713039062
0.642315441809102
0.620439744730178
0.655547494278857
0.623200266728144
0.63070853670419
0.605937173636106
0.623846538057462
0.603994440510637
0.622979182486118
0.598926143133064
0.606768630705042
0.596643486202666
0.599149212369173
0.586448799147757
0.594288422886617
0.582369681837818
0.591865153609743
0.567934821866691
0.588365566439529
0.55210531528932
0.573568374458937
0.562022291284638
0.571057496642842
0.553082487478856
0.567179134072299
0.552481969513847
0.556498125144388
0.536364547622786
0.561445469956525
0.530625930621092
0.552119219119787
0.523914739557093
0.539142341896953
0.531095636106948
0.534753908159477
0.513479803017757
0.518233900961694
0.519107381712411
0.514412412042265
0.511528212986299
0.523432971344319
0.498696402632003
0.510631060906214
0.503055777322172
0.502462156429778
0.495774654048008
0.502088978950359
0.490422955330254
0.497607605380813
0.481285977959585
0.491218047369831
0.483307861341412
0.48723096988714
0.466413727882166
0.477098200304051
0.459480626104261
0.474214324562089
0.460011513150548
0.465211567800876
0.451021176076728
0.459192338407578
0.446498958322583
0.455171261456748
0.448843968099312
0.441371674917379
0.436321369513048
0.453499646660156
0.437083808666642
0.433572617538079
0.423603022399843
0.428605456973733
0.42404506861838
0.42672025872764
0.419084354397175
0.427331788826525
0.41308828409493
0.414383469308974
0.408689828971999
0.419156613529537
0.402704575401624
0.409633844177118
0.400845752893868
0.401730810981748
0.395071876959485
0.408693819093398
0.385930418226463
0.39078871547995
0.38900374210274
0.39795336604976
0.384534329362398
0.386974241466197
0.376819797452544
0.387581901497298
0.374443161477371
0.379559204996955
0.365564752011041
0.373839766418604
0.358478394989781
0.369207158508467
0.361172152286835
0.365817984309125
0.361347716256976
0.362544526974354
0.350268469091173
0.362079418904833
0.351844257725181
0.353302839844767
0.342956424275151
0.351209133653419
0.345053863702715
0.349440465339144
0.339509022891496
0.34221331173328
0.329206695692909
0.338830934404589
0.335166543768094
0.343865442835706
0.331299149512731
0.336189009059773
0.329078681984286
0.337351837758905
0.326854971180805
0.335746736188917
0.325624605646841
0.330147213337076
0.326430384006184
0.327699626942402
0.324585303421853
0.325581642579285
0.322914635247632
0.333386505603535
0.318398270800227
0.327959174968656
0.325223103011393
0.328933117685204
0.323963401294727
0.337428867295379
0.3244986348651
0.337846308260579
0.329390011579349
0.333485070511497
0.326714267865048
0.330343731039319
0.32785094403563
0.337753897991609
0.325444164938655
0.339072582957072
0.330844324962754
0.33971329748443
0.33282694536307
0.346423968371256
0.342849106926093
0.345025886596898
0.345065864337514
0.349030867729988
0.343492548295173
0.359768563348359
0.347660343319792
0.355496963953426
0.357247432899011
0.361655861418001
0.35371375027647
0.366294954410512
0.355584301251096
0.365062128481047
0.356746469865179
0.373608088721859
0.362694284097305
0.375943135963221
0.376385579500195
0.379499923650034
0.374084223038189
0.390366019629744
0.377689487334167
0.389142896170675
0.386150070479701
0.404443722574681
0.387196033610312
0.409049470733866
0.394355841890449
0.406559876096192
0.408304597945839
0.41300326347592
0.406447598667657
0.421601709038463
0.41412728670669
0.42539284940228
0.423824769196363
0.437798471760884
0.43134726500338
0.432855537393343
0.42733268100982
0.439876020470105
0.43364450326329
0.444999806771174
0.437778263283512
0.446447508619012
0.450878325163345
0.446237446864538
0.438170260887869
0.459560625583584
0.445515123367706
0.451975184045417
0.452187082613758
0.454044140938888
0.439039206829715
0.458680484685929
0.44218246572611
0.448378281635801
0.445967127866326
0.454155116416038
0.438443421158316
0.450037661004736
0.438314915788006
0.447731228957861
0.429675338005262
0.442914870972345
0.440717620706589
0.444958837493413
0.441817790352366
0.441842422661685
0.435568433478341
0.442156026112691
0.441015498011097
0.442929543805771
0.435818706224332
0.446482314228315
0.433288931841272
0.449226339796172
0.437187958310349
0.446003074258579
0.435574199808974
0.440355175874826
0.434607048757969
0.44346280894019
0.438196408734097
0.448155800049261
0.438661211638518
0.436865783077107
0.429547442148422
0.444803191215297
0.438080459216347
0.445725906783698
0.436580397681795
0.440907494931838
0.437109373779638
0.438303878898601
0.433523781924404
0.441133283213397
0.424987115739633
0.431893218977445
0.432623991827236
0.43646015449439
0.424508650556221
0.437649862902562
0.423626228382752
0.42360021384858
0.427884859203558
0.427279863023371
0.423871415252856
0.427152218106882
0.405279956607217
0.411817915220101
0.406272360599072
0.413889000726155
0.397106649041714
0.403814121498689
0.400033788935243
0.400715370811706
0.387518456735756
0.392700191520379
0.386521668583242
0.381575259346468
0.376974032796007
0.387924667272787
0.366064204100596
0.380785939933334
0.362070386972983
0.373494761227122
0.353895175997321
0.359998115718535
0.357915364727675
0.354783881216336
0.34803236788297
0.34995678142466
0.342868317853749
0.345368828761988
0.337912639531357
0.338097632283691
0.327153406076329
0.334397483845895
0.321405998394608
0.32482463132564
0.323575666124813
0.317968196361732
0.313864750469105
0.315917806546926
0.30502106782668
0.309665291103954
0.307696202953687
0.305129682398521
0.297522548404358
0.304179327669332
0.297657410007049
0.297311953216359
0.293463195203429
0.296452442974948
0.296099692374649
0.29264428234828
0.287742559153571
0.289051518901571
0.285139336828736
0.287190337261435
0.278710415350667
0.287312875821067
0.277262813544296
0.279842407419562
0.267157954016922
0.274570061756546
0.268910447728285
0.272844056331083
0.272809348393705
0.274554991719005
0.262523502283538
0.272431735902697
0.263347128738853
0.263883087350775
0.261761332072098
0.266157997905553
0.255329031664716
0.259216260241948
0.251992327619392
0.25496225435358
0.251381305474848
0.251894305124392
0.249659429141545
0.254469854012434
0.245300525352068
0.250373545175271
0.248052088662682
0.250342346337429
0.243698270382791
0.249937557139228
0.240502928803974
0.24164823641491
0.233779804070952
0.242428814789419
0.237230362642369
0.241355354398319
0.238415589005339
0.240865831445427
0.233534843391447
0.233946883584645
0.226512687752722
0.235481326053846
0.229072506118517
0.229474495432381
0.227002457302367
0.22700642456164
0.22765053989817
0.233791526794081
0.222883481739351
0.229448752140069
0.226056176327695
0.226973797708727
0.220364462347739
0.227044648869838
0.223064277028727
0.224021782467589
0.219525749347427
0.222769400088918
0.217524553890705
0.219995244642859
0.220694736683002
0.220144734192227
0.212920840265568
0.218015209792208
0.211566328261733
0.215171850985785
0.209175071842729
0.217575442894533
0.210539490495894
0.214990565225019
0.209950223763191
0.214559700750249
0.210598362333272
0.213545076532836
0.205087394943243
0.208615997324088
0.209113783174508
0.204374800694242
0.202296479143222
0.205848613053577
0.20161927885696
0.208389231511481
0.201589424725589
0.2079633110562
0.201809628574516
0.207271730462619
0.203372066836363
0.203369369376944
0.200994359284952
0.197437532966005
0.20080958811763
0.207087834863181
0.196868479963231
0.201169905882997
0.199373929434565
0.200115308575069
0.195202475689705
0.202493637220415
0.19780973479102
0.198203138130837
0.196087831246846
0.195801916364078
0.192657568096644
0.199718446842904
0.192515640191019
0.200021542995064
0.194536027158996
0.196192280911956
0.191107482590144
0.193759986910683
0.190838985153518
0.193890099893398
0.192786544164596
0.194567262796126
0.186215926727163
0.191987639509693
0.188471053318275
0.191698320878495
0.189007673862684
0.190642128517687
0.184975771864256
0.187026207040406
0.187414325772753
0.192324595090582
0.185483744619234
0.18691756204546
0.181541948056384
0.186437563300854
0.182988690077133
0.186568914988148
0.178608517351175
0.184682138233595
0.182259532988649
0.183205059343561
0.179373084945847
0.180166033120934
0.178654483905266
0.182183296132315
0.173240659375295
0.178072037209514
0.174927633887063
0.178561345773972
0.175180423503499
0.176229120644527
0.171552352605625
0.176136954783033
0.171785421019666
0.175020026542137
0.168524936247808
0.177149919177386
0.17122617805565
0.174334214561383
0.168404913421758
0.16939234584768
0.169390262960634
0.174677340262792
0.169272437530396
0.166715081915311
0.163341431612178
0.165309592444893
0.158290212539483
0.164865709993347
0.159898887357455
0.163968049403389
0.16559086817045
0.160023334633983
0.160438029471324
0.16518329281157
0.159017724969726
0.160619865852982
0.154529473203996
0.157383687414953
0.154020486005094
0.157760616875406
0.151971389209487
0.154064377229217
0.151235704340427
0.156498762283666
0.1503583227328
0.15129117105691
0.148424785193725
0.157034426284962
0.146119776705821
0.148377951803919
0.148638111992326
0.148499226649507
0.147248958286119
0.148809401066756
0.146892618117403
0.146742903088196
0.143182485926878
0.144939406792806
0.139462605278366
0.142770192820187
0.137740471684975
0.142085021635037
0.139778356232895
0.140197040799065
0.135069968099316
0.140875219622032
0.13710132658799
0.137535111399662
0.137231868765401
0.137930860404472
0.13440169709195
0.136757367370337
0.12694290797637
0.132564890843022
0.130639459499544
0.129184286422816
0.127559433641753
0.132694332976839
0.126903700563252
0.131153556692989
0.125531793798976
0.125471334338091
0.124529855220373
0.128440598521373
0.127446063340192
0.128168230336212
0.121591132848541
0.125936812481579
0.122245276238596
0.12615016227553
0.12143887524915
0.122773678820376
0.121525915135317
0.124022264857253
0.120360825434913
0.123263998174244
0.115965142637246
0.119326236807024
0.117468147950618
0.120889652139327
0.116461105445253
0.116902754701875
0.117043608523806
0.119160314149828
0.114585612131611
0.118661773108671
0.115342983659017
0.116856686664888
0.113676896529254
0.113489006765032
0.114312856046876
0.112700341165273
0.11168560674387
0.115089674430257
0.111555894600927
0.10964874416965
0.11044737013201
0.112079352934293
0.112075092194489
0.113457914646287
0.110499054377542
0.111123865035119
0.106579864074487
0.106113835509545
0.106621941404024
0.108352994658335
0.107295615320129
0.1080146021838
0.10278483469446
0.108805994972362
0.106908429459127
0.107382476546867
0.106893365313942
0.107914238835708
0.105874775178094
0.109124558540668
0.104727426803795
0.106096752400354
0.105352711606373
0.103387824204492
0.102575643063382
0.105948798552009
0.106905541377047
0.106780239216826
0.100815020150182
0.104244146482593
0.101561235757922
0.0998265782682777
0.102845230761637
0.105126174302731
0.0994569576643174
0.103473881015664
0.0999327990698824
0.100402192922641
0.0987828012186055
0.0998981288420125
0.101480858861268
0.103429781785485
0.0976627533399046
0.0994061882882728
0.0997962464804081
0.102436805893151
0.0974619549410363
0.099426410604606
0.0964128180599304
0.0992666102786889
0.0979404571273376
0.0989549992255185
0.0973456317607257
0.0980582448718686
0.0960399655781476
0.100260310256394
0.0966570191442591
0.0982353339670495
0.0954528322211909
0.0968494765188281
0.0961567779535867
0.0955495386465385
0.0947507804112628
0.0967461646366054
0.0928124668708725
0.0975499169370298
0.0943400778917204
0.0927916324971333
0.0939442929564761
0.0934783708789406
0.0911357999373016
0.0933251784957772
0.0929940951565335
0.0958258908087063
0.0931362039527847
0.0931616732615475
0.0890989182766348
0.0939961450193016
0.0888092596698681
0.0941945340331507
0.0880432440715396
0.0920515363943688
0.0882692057611785
0.0917711324838806
0.0900653458536179
0.0907918025085264
0.0870277046255761
0.0898353064295631
0.0879375904523132
0.0894126942108871
0.0884832861673275
0.0890517266994628
0.0850239951423154
0.0881468561540125
0.0878869594533011
0.0904918905475913
0.0865930806870067
0.0902747114417839
0.087029168792318
0.087655792035561
0.0868510013319013
0.0893155509095475
0.0865787282131421
0.0888989440067427
0.0830066455637329
0.0828021450667181
0.085607109365701
0.0840386118574561
0.0835154745926271
0.0835852665177176
0.0830096765065425
0.0838198596418169
0.0830149783650379
0.0848673023121421
0.0834788449903284
0.0812114515880169
0.082089258030459
0.0835792173513112
0.0792384559078687
0.0823750502281413
0.0815831331923132
0.082110506001837
0.0783408353819465
0.0827997417577671
0.0802942772960131
0.0780428378742448
0.0780003965080797
0.0803346269382517
0.0767621133265066
0.0798718384052371
0.0796327268145943
0.0770737070507209
0.0762394409470148
0.0795385771722974
0.076594972043345
0.0761103006781839
0.0760391399457344
0.0768532997394507
0.0766114723193532
0.0759097447316328
0.0715642819154255
0.0725632984918626
0.0736273206513901
0.0758611539105303
0.0717682637527511
0.0737006743710834
0.0736512573188499
0.0739783388560401
0.0700971472941586
0.0737287095044591
0.0709686580520483
0.0726680195840647
0.0725806631514766
0.0697281757583735
0.065609099779829
0.0710949974666821
0.0704203116324972
0.0732858159650645
0.0692109575702157
0.070526314009914
0.0691149703754046
0.0681855050069405
0.0671067045077567
0.0700467562050928
0.0642595962716957
0.0670071954401747
0.0692654462893628
0.0667638077700926
0.0655270799827304
0.0670828031337383
0.064057515251843
0.0635270357557018
0.065916432754951
0.065322604777747
0.0645562184163239
0.0663139854320135
0.0635696963008967
0.0651513955643211
0.0652678864501365
0.0637574317814722
0.0634959536415797
0.0645509704165165
0.0627687167446902
0.0658515040601336
0.0625706907057208
0.0632817930944527
0.0627074787269134
0.0616421622575642
0.0617355410761745
0.0614219132533121
0.0623116346217367
0.0613388514423904
0.0591895651627029
0.0598044846900052
0.0609895890679507
0.0607417010463915
0.0589021183125021
0.060101143020897
0.0608949877387413
0.0595979151751486
0.0584439552764692
0.0604074763515675
0.0600557912163823
0.0588783543297065
0.0563148816242244
0.0576983138377668
0.0575961432641991
0.0595804348631914
0.0574491726286415
0.0560408393724334
0.0581823202090046
0.0587623226527834
0.0581394053787836
0.0575461994602763
0.0572527257574705
0.0563952980670226
0.0553378921407798
0.0567158502144068
0.0586855150468824
0.0591489178106978
0.0572389350893635
0.0566043458658907
0.057244372162996
0.0554687728071867
0.056955002075474
0.0585630990422199
0.056204310393156
0.0554472313594826
0.055753422300784
0.054064014160133
0.0536142503491541
0.0563724061184825
0.0546827280319826
0.0519881745770256
0.0509126379793617
0.0515793877250554
0.0556004229060362
0.0574963580487282
0.058295779873229
0.0553754235965697
0.0509869538918727
0.0521961407588523
0.0512097731180651
0.0541971156363079
0.0562000954383144
0.0518380431783115
0.0558221990851766
0.0463045002626634
0.0542669572656192
0.0493862535864641
0.053318912191375
0.0476069827152176
0.0504123141870255
0.051466672602442
0.0546355898811192
0.0513596180294715
0.0556828611967697
0.0514336504641699
0.0543170400204014
0.0538539117364252
0.055790572397991
0.0517799783242187
0.0574278576377843
0.0453144860242514
0.0550329886769059
0.0442457168312004
0.0580758738406644
0.0447485709287058
0.0586320478797897
0.0413765152362303
0.0566696476716978
0.039758286315348
0.0584432993803599
0.0380915292754724
0.0620900257877664
0.0384370461614491
0.0664062452167604
0.0350159253336285
0.068990366886981
0.0306863428739287
0.0725031423919403
0.030617139836109
0.0764453276951642
0.0279658231123245
0.0708879679536242
0.028612567564029
0.0789220123376048
0.0306672012597236
0.0701146338862427
0.0331849780115951
0.0687685734697163
0.0435197522178416
0.0576613291269877
0.0487980635731541
0.052581240653424
0.0553923335986805
0.0417088569546447
0.0652207474130438
0.0379986423886111
0.0632070932844294
0.0366146583888719
0.0636575544478829
0.0439828282411251
0.0595708658809718
0.0456555038399174
0.0514216807579817
0.0493378607019169
0.0469052543533955
0.0504069036251668
0.0502395913320834
0.0472509914093834
0.0525521138549538
0.0500711582781489
0.0551223718337539
0.0451218671674189
0.0506965287898617
0.0471224818789084
0.0517725226439604
0.0482064469635493
0.0509424982070325
0.0495397710815597
0.0493718226474235
0.0480172316866109
0.0505505775474173
0.0466291089780784
0.0515405357777752
0.048727856872369
0.0515463217637907
0.0475614434257842
0.0500817163762665
0.0489253257178555
0.0495146617487573
0.0496401166238376
0.0519228953835904
0.0492119904336127
0.0540637009670404
0.0493488098276763
0.0517726622466334
0.0487495061745142
0.0531495748169155
0.0463834109277136
0.0510286091975972
0.0492015364075206
0.050273159597149
0.0464866171296761
0.0516345786394211
0.0496641763249492
0.0507511273845695
0.048395686420629
0.0524895086963544
0.0487966409161648
0.0533387871658279
0.0504826641127722
0.0510733303074781
0.0505187899061132
0.0506320088900041
0.0499783599491599
0.0539864502072368
0.0524677596989992
0.0516719181661997
0.0472051414188635
0.0521744692187443
0.050507542859674
0.0519466349163438
0.0488838707239589
0.053241755690264
0.0504280378476867
0.0515639364421123
0.0484160882789725
0.0535115926591816
0.0502930001441319
0.0532113540027585
0.0501509724542358
0.0528529973868249
0.0500664699999897
0.0512647411849235
0.050083257431058
0.0509039206152058
0.0507455089132298
0.0519721737474503
0.0496258235895833
0.0530114319363175
0.0500395127106854
0.0528944128673373
0.0528900751964324
0.0538329558839684
0.0490886991797749
0.0522682216845576
0.0489188378107681
0.0518828655544333
0.0534232785187223
0.0522077682877233
0.051055302626402
0.0553513043492943
0.0504736588966039
0.051972321321826
0.0502474574041461
0.0536196817570798
0.0511827468637343
0.0532834691735179
0.0543049764049153
0.0542846256697819
0.0523810067912041
0.0538457985882363
0.0508558629528282
0.0519372661075518
0.0510813067157462
0.0525242450720686
0.052607000686519
0.0533567316914065
0.0540709294030264
0.0540336752669952
0.0531697459499425
0.0547547374643798
0.0533616200724859
0.0551257402334056
0.052599800433932
0.0545788372453704
0.0541827889736794
0.054025551776472
0.0544304605496448
0.0539991813813021
0.0535599758454411
0.0557258047635417
0.0542733835441093
0.0571497130551913
0.0556100556407624
0.0547686872116509
0.052210372476222
0.0553005990288368
0.0553205881585224
0.0555717985657294
0.0529575821341456
0.0560869620896751
0.0548147093604892
0.0566511174247747
0.0544590282001456
0.0554182972829936
0.0533029324012554
0.0550923455425244
0.0536175165248603
0.0533837314623868
0.0545661699919993
0.0544697369764047
0.0545122233520756
0.0597120677497787
0.0570199056241772
0.0594890117027601
0.0549527766924826
0.0566446961907615
0.0578183942372858
0.0565673764589815
0.0556651026668585
0.0566209518884226
0.0554721068503555
0.0570787106236444
0.0574269333619461
0.0593517862244448
0.0551531830261273
0.0580730451494396
0.0577390738311677
0.0583102677530618
0.056436897594657
0.0591492970703712
0.0562940039145727
0.0576200655758413
0.0573165642841451
0.0595846119903673
0.0573671683372308
0.0592088285701621
0.0561293070939888
0.0585863259216967
0.0570784926079871
0.0595528814680847
0.0584838536578151
0.0595840748738061
0.0568416658840904
0.0585110819338041
0.0565637617561798
0.0572619037448183
0.0560871917030014
0.0579998049477834
0.0557093216665371
0.0585397448707911
0.054999828582074
0.0585568320034598
0.0549313898538525
0.0557779349995957
0.0561654608554173
0.0583469200565535
0.0562804499605385
0.0556678741352149
0.0564091491651975
0.0560690819644516
0.0533433580686094
0.0555584222649628
0.0523584360927059
0.0566567718498059
0.0545873331842879
0.0571176710007342
0.0542407391503465
0.0562988114148777
0.0529847604141049
0.0544830323569082
0.0533118073028111
0.0562503654822973
0.0542297465242057
0.0554915725894538
0.054006299998489
0.0574586853864177
0.054542195149502
0.0562654966226025
0.0539095331984762
0.055844614438936
0.0539711334069515
0.054476132951902
0.0539552341435487
0.0544358695625767
0.0525814584746392
0.0540706725552586
0.0517506368260459
0.0546745226338492
0.0548799956341177
0.0547365505766667
0.0525654512804764
0.05550322471932
0.0521685763829306
0.0541647812918063
0.0522723779593472
0.0529439712398794
0.0527018601756633
0.0546759376109542
0.0537083298586673
0.0540783181073599
0.0518038704284536
0.0542287766858268
0.0548891670065217
0.0533631277922347
0.0514267588787868
0.0546144917976594
0.0507404993516495
0.0528271063736101
0.0531839953622718
0.0511463097124059
0.050183700331338
0.0531850561552654
0.0499076851296668
0.0534139044930793
0.0521219929911627
0.0556894480809301
0.0519428938123782
0.0544017200790583
0.0515190200449447
0.0513675554619079
0.0499470496067879
0.0530141659272762
0.0511260777794692
0.0520872086708684
0.0492803660694518
0.0541801495215119
0.050239420722692
0.0508668617684175
0.0516911962881619
0.0521565384167551
0.0525878811092687
0.0521861739092997
0.0521445597525961
0.0516862624210258
0.0503780772771718
0.0527256714591267
0.0514772613427349
0.0531574082376874
0.0484717649302691
0.0536512391242986
0.0502769982937858
0.0495807157364496
0.0499749513413862
0.0526329259655583
0.048955240417419
0.0522600936480023
0.0495811156872083
0.0519672551296181
0.0508212512643176
0.052279063184923
0.0495786731102758
0.051563461884092
0.0483511550929231
0.0480252254325978
0.0508898490414462
0.0499882152386322
0.048366358756917
0.0499449845832514
0.0467714173118113
0.0502602892846448
0.0461104286421303
0.0495868373749866
0.0482420374177724
0.0499744016859131
0.0481026326007838
0.0494636676996991
0.04849189552257
0.0493870699797954
0.0470760591192028
0.0484388914679318
0.0474465065190342
0.0486469406580898
0.0448758968287496
0.0458372074961499
0.0453640729427115
0.0459158532115945
0.0450710467451088
0.0492943723641551
0.0441685885301736
0.046573848849839
0.0434307137817996
0.0508212035620698
0.0442773607606815
0.0479257532859086
0.0423859287493455
0.046478952535634
0.0448462917617555
0.0461702480375299
0.0443977041585224
0.044647475752471
0.0455697484037731
0.0466966613936839
0.0436338186716794
0.0447366594840858
0.0410012254748586
0.0460885675120715
0.0434215091809895
0.0451129914135273
0.040867939523626
0.0449780746431468
0.0412346305639045
0.0438818969862031
0.0406295849990323
0.042064444294101
0.0405665505717186
0.0450747393854693
0.0391798792105998
0.0462648702271376
0.0448099414012646
0.0419970944075439
0.0411512546310325
0.0425512188186682
0.0429013167127089
0.0426149646484695
0.0419775929605842
0.0410496493076411
0.0417257492554167
0.0430536768026362
0.0432120085961623
0.0419589669405593
0.0405114366894182
0.0403079622872017
0.0422607773957084
0.0428968339112724
0.0413849505676983
0.0427359256275775
0.042496831956987
0.041086139364388
0.0417592568377568
0.0410705120669522
0.0383973901339444
0.0414631824545671
0.0411404143815285
0.0408904198217679
0.0418871883187092
0.0412138056991073
0.0427865132156896
0.0411338334415576
0.0428652163688182
0.0405131032259969
0.0403266702913353
0.0401822534332923
0.0398899167879275
0.0411139172256919
0.0415727623850521
0.0399791701410479
0.0393908749894559
0.0398564953506129
0.0402690769469056
0.0372450265622979
0.0388218978797557
0.0380878319199317
0.0401540557534435
0.0379981231976321
0.0391016091485701
0.0399131532074197
0.0402728298490334
0.0374417506052225
0.0405875884024694
0.0358979563250739
0.0383587370788889
0.0425054077460314
0.03764181062933
0.0404187613845565
0.0377061386137533
0.0379832580595266
0.0362705999708139
0.0410647739875136
0.0364879082820245
0.0381341017442699
0.0378770029337287
0.0391223741478123
0.035195490290482
0.0405930828282277
0.0374716905296419
0.0396742800134289
0.0364454112211227
0.0402290097349901
0.0372579948590626
0.0426354930884812
0.0358577389382601
0.0373712602996166
0.04042662002663
0.038414373858892
0.0393504078240941
0.0386480165959542
0.0320555166569158
0.0504664091045854
0.0325827958195314
0.0413126444006686
0.0366232759652334
0.0405179869606694
0.0360789794868021
0.0416375443750968
0.0348277640990477
0.0385399571649154
0.0373623786313296
0.0376062291909565
0.0406306774838467
0.0369353696193684
0.0371897040461893
0.0386722388252918
0.0363546401203759
0.037412878088603
0.0362749097099864
0.0381976248094149
0.036795340487058
0.0391410629893215
0.0338402485649984
0.0387843272724246
0.0349706796723835
0.0396735589916599
0.0366275466182004
0.0389128243734321
0.0365807496943443
0.0401610019169878
0.0330997878398748
0.0376334028371671
0.0414990044538689
0.0368015107540349
0.0398444377898109
0.036575887717364
0.0383475818611211
0.0372859354306374
0.0375099792471355
0.0373021561196199
0.0367076309150516
0.0377406386231137
0.0373495925787769
0.0378663873663834
0.0372560521357061
0.0362510910497915
0.036478552032838
0.0388517181416495
0.0380751683880259
0.0380692165071133
0.0343600002732883
0.0386225853100696
0.0336606277523512
0.0461112912508647
0.0349526137077608
0.0427423759273323
0.0384877836417292
0.0411337290972023
0.0363720557310471
0.0390023615318884
0.0373665189408189
0.0371242282958024
0.0366912998150135
0.0378289135748043
0.0393284292921757
0.0391122508951279
0.0366649760547247
0.0377517151447187
0.0361105118733475
0.0379286150812034
0.0364186500333428
0.0391549879690228
0.0391773657469958
0.034569283658762
0.0394552805178075
0.0354013345722416
0.0407029328160273
0.03622729118415
0.0414245102824645
0.027555966347785
0.0569982216920077
0.0363340760096618
0.0415191290916545
0.0365690989601813
0.0347257457200448
0.0398715860782888
0.0363969705786318
0.0391217022960801
0.0381132238053742
0.040045063641278
0.0396833436599338
0.0386277551694151
0.0405032811230908
0.0401076991303206
0.0349611806330152
0.0410377333899558
0.0462683668808954
0.0382704531832008
0.044856929271851
0.0374959737795054
0.0419905853478394
0.0467181759176533
0.0385639689217384
0.0448296120799767
0.0382269578012529
0.0428926878241727
0.0389173539377707
0.0406069488973363
0.0389861832438769
0.0450361550711733
0.0404697423468207
0.0438215829111796
0.0389289463427945
0.0418995543368272
0.0409500932838934
0.0405515357193167
0.0435231043548242
0.0452232196514377
0.0417187853422626
0.0452896219868512
0.0410658798633397
0.0432547436566548
0.0410278471742285
0.0437564454936969
0.0404579682144656
0.0439591513153949
0.0397700557970707
0.0412941298230879
0.047114048089719
0.0442082416619522
0.0393312364000925
0.0469568066636138
0.0393680694000118
0.0538577714374735
0.0363388860707837
0.0528226275730485
0.0448473686609826
0.0476910519022727
0.0493980898797484
0.0427713394165226
0.0488312402331424
0.0409357987194818
0.0455438286074901
0.0385901008283269
0.0575719398302899
0.0385444088587671
0.0522921581066031
0.0381098157550253
0.0501977011166557
0.0437287841873276
0.0501693443028994
0.0455616777945317
0.0494628524868199
0.0414037290539804
0.0593166655191144
0.042209509205366
0.0446637623899649
0.0599238612674301
0.0453258447021328
0.0621817252515621
0.0470789718698611
0.0458218128953304
0.0581129179676138
0.0463594464663726
0.0557607653551429
0.0457635642380639
0.0552762349609794
0.0434178691414296
0.0522401486178913
0.0630932809791578
0.0483992866482366
0.0555482549416924
0.049753942381301
0.0502172889195669
0.064377189410681
0.0529658841422993
0.0561956349809217
0.0544583795718262
0.0583053720175012
0.0443416320940686
0.0840785456536851
0.0461796893896086
0.0665086740127156
0.0560754549198775
0.0619342537273888
0.0611645570542896
0.0631870720669068
0.0578509985252808
0.0660781670931036
0.0665130860795076
0.0659668006044696
0.054604687140157
0.0744780310878449
0.0708774412200003
0.0659081067947598
0.0720445381339208
0.0631200332581019
0.0635642010788568
0.075306008471377
0.0777642560051102
0.0800037024487011
0.0711208113675321
0.0708200227100419
0.0801822508572215
0.0729044564659257
0.0772673372301756
0.0742343684768159
0.0768329893235948
0.0794094827750181
0.0804518889102356
0.08677348485009
0.0784310265107673
0.0883906989307231
0.0783859618824195
0.0870640874373621
0.0847107058242348
0.104516041941398
0.0989211395577691
0.0842813220656339
0.103940986119688
0.0862411568835652
0.101505604367138
0.0920086318145842
0.0954235185831177
0.0963726348984856
0.100056516582302
0.101981382940401
0.0955131666438947
0.112520898309942
0.101278880518122
0.118715539245209
0.112151364049498
0.111880369489994
0.110938935664449
0.0994001769167535
0.199985026481616
0.111379191382189
0.147554629092383
0.1124078570064
0.153617360571393
0.1477051577333
0.150310569108405
0.145431001702628
0.156690081560005
0.152606667999503
0.166167905595643
0.162676570679613
0.175560686835079
0.177705208666858
0.186038366851344
0.17659759772684
0.210391321273803
0.198091443337724
0.228766961448909
0.210147167706505
0.21892299165247
0.218524313660067
0.235610795331063
0.227098772154288
0.250988386077371
0.23489459671703
0.270349198953032
0.262512822114968
0.26837887996441
0.274021334689254
0.277320187605849
0.292601202845001
0.281029172056028
0.330044509484139
0.2902716337804
0.317675537999547
0.308615780609694
0.325819446319025
0.325322888039254
0.328355403381705
0.34691722886161
0.342098547410096
0.351345612403647
0.350064466225129
0.361188259119973
0.360270532407133
0.375325216999211
0.372485005276163
0.372566345978179
0.386500524035439
0.389116399601699
0.472817965331613
0.374833945574056
0.387814361363972
0.378175832126121
0.382062868735472
0.408366092459406
0.375584196815515
0.416451403829801
0.391723264874078
0.394173668657175
0.38856096762514
0.388923063234552
0.390026131978616
0.388248733501971
0.397206092872638
0.38025056820612
0.402638190866377
0.368864853214023
0.436306175088616
0.396023084141561
0.387939074699941
0.38106608388588
0.390198353439759
0.38122422648536
0.388031691111616
0.376428813943322
0.385063972881632
0.377269618631819
0.369730588343571
0.37115402352545
0.355256174992932
0.386113176206657
0.354200103137213
0.356803161709316
0.356776674060876
0.344688147021042
0.346698818004869
0.332617373045567
0.358515774561337
0.354538645570763
0.320741044025386
0.332085792819881
0.318243176750732
0.326536940526967
0.324292127330708
0.31682694606246
0.315529767888521
0.312858506074002
0.310803570381204
0.313664089039218
0.307672858576496
0.312745099874291
0.303489756723211
0.309504802535728
0.296371699388834
0.304921371416488
0.295673028351139
0.305588894562972
0.294042346379515
0.300423860348193
0.289867705079486
0.298516187435879
0.290565539922887
0.298324374816786
0.289784579005486
0.295895570676661
0.290484789170066
0.295480335591734
0.285954033502777
0.290924747129802
0.289257544625374
0.290952746170896
0.286488147490451
0.289118046831778
0.282555212156359
0.284567999924096
0.283338512285967
0.289976148621188
0.281986588111947
0.282152195592547
0.27557380438431
0.265307040714957
0.31638068257382
0.273565553206633
0.282477943186874
0.270985508434855
0.273073291317556
0.266621464217732
0.262009996767073
0.289914199627678
0.264577556046579
0.269176208633216
0.264841791390012
0.264968932708271
0.2639606171883
0.257213750125434
0.252780561989076
0.257368990939006
0.239863505877116
0.299004996687316
0.243189743550595
0.311693723606593
0.24814602575726
0.262845674189104
0.231707583524593
0.264735423325722
0.25128410827451
0.241881369394185
0.243915661209532
0.233427304822949
0.246824608116398
0.235069509293598
0.237312360489014
0.233943135004333
0.228675237813866
0.240354308116712
0.233489114591028
0.225622503818975
0.242740717759976
0.23077363643554
0.220965884033214
0.234977590155001
0.236214578387365
0.230177419703248
0.209371759537782
0.217663290430873
0.203844335483852
0.213500359198375
0.222583145264963
0.20569807001092
0.214484977332579
0.198778442364336
0.205919137449126
0.196770185604379
0.211847652659493
0.192460803449183
0.203245876879877
0.203504715373769
0.186587737883055
0.202063599644667
0.181217885250602
0.217690127152569
0.195967525174706
0.194095067337335
0.174985369567426
0.203042190490652
0.184750410640289
0.187944102766912
0.185580755143495
0.175584139929725
0.179942767893138
0.18470688659526
0.168883096029578
0.18540796881986
0.173723926260872
0.183118429882094
0.174118126920741
0.176596540552224
0.187573422865002
0.1704705944931
0.168977243464142
0.16900303242229
0.169502695336299
0.175817361284763
0.157539251584895
0.195372803115765
0.163514433880244
0.177619356138924
0.179202030145337
0.178656098558763
0.178417258082976
0.179655015472499
0.177851481539407
0.185833277768741
0.185614825370364
0.202051841432025
0.180199198642354
0.199485770685351
0.193127846937849
0.199750798571166
0.19887369050715
0.208552386267723
0.202041664017273
0.210239150762354
0.214097658629062
0.221980828291421
0.22084153705659
0.234820193736935
0.226019925481433
0.251029808285063
0.241422771926845
0.245922038982312
0.260678258371578
0.254698080954024
0.288475744582048
0.26502876245159
0.281725868007156
0.27597400136063
0.283757813139051
0.289986561467441
0.285539412132159
0.305289301658403
0.304928569093683
0.308653169775669
0.311844670968616
0.309056105626478
0.319731251377786
0.311892139200085
0.341659399000807
0.31340184696572
0.37121883347442
0.329556166173743
0.341702727919741
0.334027645598799
0.332347124438462
0.33779584638455
0.338079534418615
0.346054713107165
0.337637057148095
0.347410282206488
0.354938828633712
0.344662699482527
0.350753416587427
0.349484788423023
0.357743110595415
0.352823126229078
0.357222575590046
0.356817995660032
0.356786632811329
0.368931875379539
0.361627868693545
0.371040853291848
0.393100205361026
0.369898752295933
0.38552457948235
0.371752065450374
0.386603110532052
0.382697895978002
0.385439962304826
0.396777628994692
0.391064889820999
0.398404686692084
0.394975660293156
0.401734710542991
0.402588509237442
0.407200258314515
0.417518535322917
0.403146099410969
0.422724742861667
0.397376786272943
0.446566334186349
0.422496088255367
0.422871504967957
0.426543550059654
0.423469724451214
0.424160757779948
0.427039557820938
0.425786086155038
0.428050628249492
0.429747625336127
0.428009148739805
0.43573515181957
0.423930333624384
0.429221219565829
0.426276481549201
0.423806794415722
0.426477468130071
0.42448614807445
0.422349444162067
0.424716570504982
0.430143811544117
0.418210799818715
0.435657019667133
0.419766408774739
0.424474038950059
0.418887782432157
0.420773748317865
0.432214552142102
0.421532158722938
0.419235648793323
0.422217811494979
0.415162591421211
0.425281323220985
0.414685269969607
0.430243925610829
0.430179574947986
0.433319212682121
0.429029285888421
0.433657639081217
0.431691011583931
0.441002962384474
0.438953716901349
0.438440458994539
0.450699045398111
0.443904860385736
0.449805725484056
0.446957930024591
0.447250476984246
0.448074014814303
0.458677422054392
0.452784374308475
0.444156050926297
0.451675718172988
0.441859240214181
0.441644394114073
0.438457656664927
0.438384727583538
0.431529679000217
0.427541982016343
0.420778431632675
0.424217195765658
0.427582602855337
0.411208567193591
0.420451084356392
0.399511584054817
0.405747640171891
0.402811591969267
0.400473963516045
0.394679204469863
0.396104246168024
0.390980041524508
0.387249640402303
0.385780866965009
0.384459863572933
0.386317935793132
0.380756022283321
0.385952491005972
0.383275159551723
0.379897363586207
0.382315319922347
0.380513617355442
0.375913501684006
0.378540551250439
0.376483408751141
0.375219797504647
0.383364509428067
0.379085121342487
0.381756819423584
0.373062948944548
0.385601101413056
0.380248619915898
0.376192211428246
0.374252866268216
0.378375677178086
0.3730990304317
0.375638855026402
0.373992731672784
0.376754868705463
0.37158040696382
0.370342550966398
0.372725844686909
0.37321579979478
0.369823441055847
0.371460712915358
0.367696031471276
0.370739081481371
0.371082121317121
0.365386978397425
0.372121994727193
0.365902935317889
0.367226604652458
0.37250084185976
0.370451030565439
0.368802271470775
0.368564598516666
0.367942881265451
0.366853996321244
0.367868118651895
0.366686193998237
0.368058023767344
0.36590375379112
0.363989689262617
0.365885505267486
0.365407270872611
0.361025370215247
0.358576992132959
0.356765443241288
0.354765779256861
0.354923303597933
0.351221723819952
0.343912327739664
0.345571270827811
0.334928541323954
0.334565247960162
0.33398350040526
0.33224130185723
0.328155585371422
0.327768344513037
0.322491075718164
0.32601211512046
0.322953489530397
0.318852518516446
0.321638252289628
0.316829584589911
0.317470894149674
0.315518970813461
0.317896731099057
0.31425174404998
0.31519621527198
0.312389783652315
0.315047129178449
0.31391199587235
0.317837023707864
0.314882805305838
0.31920953132127
0.320143692939723
0.320318203192726
0.318188081013866
0.319317165450335
0.324287078665227
0.325807923015611
0.327307810871445
0.327404508136424
0.32809097590029
0.328065841846817
0.331766241502509
0.331054718440315
0.331920685725171
0.333245953352707
0.340083693085061
0.338640744552541
0.339020145242489
0.333549193633111
0.337747935883907
0.336266326740798
0.336266469848696
0.337916492392501
0.337863339857181
0.336531263539544
0.338403086779595
0.33283128540737
0.332948735711301
0.332961575997065
0.333044664092412
0.328699365791447
0.326248699188852
0.32661518795132
0.323832870058639
0.325768899388075
0.325115257851194
0.324534976900597
0.323945310557119
0.321390091545975
0.314946567326492
0.317412560987178
0.319424594382789
0.315012849387742
0.313432322850302
0.315145883376853
0.313097030506299
0.313490711828721
0.310697052732989
0.30754376260571
0.307522166594023
0.306774377363525
0.30650343226187
0.305828373678409
0.306034084259628
0.305432829406604
0.305146027503965
0.302383441471578
0.303538100720551
0.299162212469189
0.297178516096221
0.296843982397101
0.296368553294228
0.292177894532606
0.289047365655693
0.289337166097147
0.285806031452371
0.285863317242828
0.284303591229148
0.280483716105033
0.278324034544404
0.275244668866666
0.272612534266319
0.272311803653674
0.270813313098991
0.268505339684128
0.270128677810231
0.269168988666063
0.267542575063861
0.266083329505636
0.269440252419511
0.268540791730749
0.268207346441372
0.266890753952133
0.26655406422647
0.264810552661512
0.260776388465462
0.257508224457154
0.257805740625027
0.256026057398032
0.251232986891829
0.248854903243345
0.246252474897997
0.241211481183332
0.238137689375143
0.237858394570068
0.235492245221415
0.235337456139461
0.236261045801917
0.237859323499441
0.240871066182541
0.242157745823261
0.248854562985303
0.253090484161698
0.261555659322735
0.269140620438613
0.278512352332394
0.288455365540663
0.300555008517679
0.312053612587818
0.327366053609987
0.337147061633007
0.351313445380505
0.364032483716118
0.379895069806825
0.393337640786873
0.408033807836615
0.422278110437416
0.437967318575822
0.445776488836963
0.464066227935942
0.471548602755102
0.486159907736295
0.496619271894623
0.510392982501061
0.520109482513678
0.530452078830204
0.538605005520891
0.548903418592141
0.557428285399267
0.561868021424671
0.563434886894127
0.583063711032254
0.585758661719448
0.589557140735681
0.591745658650791
0.593618895828547
0.589756208193804
0.598863248885834
0.596298879417029
0.595947868650969
0.593703641012732
0.597868948268789
0.599481275455383
0.597090254724489
0.593237549720232
0.597710391325186
0.596004199648898
0.602282526619871
0.601270956431646
0.601273574532294
0.608135918861311
0.613463465907961
0.613544499448135
0.622353614770461
0.632368401689592
0.63328887540812
0.637716587365546
0.638645188653563
0.649704023343532
0.659389945808756
0.671955660992541
0.680418002713115
0.689703151962626
0.702412721259859
0.704021229391047
0.724315110311614
0.731729983156445
0.735706818253529
0.750998277888132
0.75833218925116
0.763501057295159
0.769072062800593
0.762427029140921
0.767694464968991
0.767787850231173
0.764331807628833
0.759245745392081
0.755061000291016
0.752443469770002
0.746690676266987
0.743501888055135
0.748649262150057
0.746618664395601
0.748875733546391
0.752354365723528
0.764511693639359
0.780949137089487
0.788479762664605
0.79534384929091
0.807940804315429
0.826231299017448
0.837473523339071
0.849901106375521
0.848791013373703
0.874866055064057
0.89002974415802
0.898673169505798
0.911326490443339
0.92615795466744
0.939661935552785
0.944512532735766
0.96356737261716
0.981230320211519
0.995255710036411
1.01997030157282
1.0508002838495
1.05796478045921
1.07566832983722
1.0905183615847
1.11456196971584
1.12228683608414
1.16851847327662
1.1610625078537
1.18741172177501
1.20835603695533
1.22607051048521
1.2475191884993
1.23024685004286
1.27764037263102
1.26710440124707
1.27181079279765
1.29722525856323
1.31058342362969
1.28770767806342
1.3009379035996
1.27899184333687
1.27358867087272
1.26455437307011
1.275806379816
1.254231934095
1.23785764179081
1.25818831806498
1.24863917559258
1.25557624107237
1.2510218064816
1.26728902771929
1.24921322407381
1.27659540952993
1.25458905120821
1.27242769457527
1.2831390677675
1.29393273045339
1.30608323104647
1.30718953489711
1.30830326153982
1.33076070106722
1.35484878483212
1.37408072142857
1.36011073801875
1.40851726896508
1.42007304358795
1.40498171739311
1.41114653991723
1.42898015250475
1.44083535177464
1.43059704625992
1.46672015546779
1.42080627181918
1.42591509408584
1.45181372362933
1.45738047513933
1.50828344659345
1.50953203713937
1.48505945477493
1.51730878455923
1.44089192538524
1.46697915911688
1.44392820727306
1.50272641464525
1.46701763405518
1.4223175464874
1.46749454388909
1.47885504927615
1.44291504449998
1.47363857027021
1.44605458093325
1.43592444391321
1.40392406168708
1.39902533263384
1.39046350166584
1.33716804368781
1.30745929912381
1.25773096741856
1.21192450198889
1.18905197448756
1.12868175406627
1.09115423931878
1.05022431930017
0.998013293893722
0.955961547358942
0.922471640672793
0.904579736712764
0.86929030466762
0.855009642972152
0.838017743695923
0.837273591864263
0.80368968513869
0.806190624678601
0.801670089215497
0.782354204876734
0.780530071180347
0.771860589284573
0.769462075583245
0.747294063118518
0.744137960464243
0.730088576660485
0.715361926928292
0.701176980898787
0.691976384229877
0.669865741057338
0.658344204450348
0.642434646128518
0.633992353431069
0.604851577179373
0.582882436883477
0.5636809153153
0.537476731916338
0.527843025593912
0.501853296535867
0.47880937178406
0.456478525092596
0.429802915874324
0.415590307423092
0.393453271486659
0.377192254260387
0.354363657836133
0.342696035028973
0.32419665361158
0.314454472184832
0.300479558616828
0.292309503984854
0.27997994141459
0.271978974457389
0.260893109915875
0.256551914466088
0.249464788034539
0.246805042866321
0.239126316501268
0.238799198346932
0.231830545219911
0.231709342734155
0.233539340206079
0.23126342573094
0.233750733454923
0.228310918661431
0.231348163356452
0.234312934376587
0.230692487164758
0.238464059814835
0.235864402423822
0.237139803148691
0.238423912826825
0.24245469074096
0.242618319662591
0.245550398507032
0.241224569336766
0.246509207866459
0.242726373916175
0.241768809007721
0.239737070179467
0.236918572423846
0.234779706714561
0.233150944912915
0.230546433867729
0.230936150612564
0.231792974054431
0.22996342533486
0.227909250838018
0.231868770571381
0.234551259379924
0.230324243431559
0.232579155983761
0.236258027619261
0.236958599841285
0.238326660017085
0.242735654610997
0.240801324035512
0.241974932598779
0.243583365163565
0.250263339469023
0.254686899217654
0.252355464651634
0.256482341698099
0.254899531676703
0.259584549809297
0.258170578764037
0.256244763726122
0.253646769152528
0.258733867819886
0.257505306159824
0.263673518134396
0.264579361007264
0.265596436987632
0.264819019449216
0.268545542613785
0.267109937391756
0.273973039005838
0.27505766297517
0.278183656954809
0.284597580511946
0.29019268199097
0.289896328584601
0.302686092922456
0.308711081050788
0.319490672666282
0.324873861645711
0.339981062230893
0.341231058693023
0.35392338972047
0.355385171385366
0.366713551719677
0.370596679520699
0.360702490437111
0.360369774790559
0.357750350456928
0.358965674847211
0.346180467686101
0.33708426131751
0.340688362647428
0.330699906849882
0.327182910078965
0.319286034980057
0.325288702300961
0.322769051761309
0.330107419349388
0.320456279499975
0.322192274880892
0.330802080378487
0.321645989270305
0.327350468945161
0.326593369890037
0.325895811576854
0.31820596617107
0.309426764689507
0.316948691327955
0.312026910854824
0.306340372999773
0.302391528658663
0.300174614060719
0.299253821920523
0.304324228596058
0.28945543392482
0.293658150539383
0.288564176488571
0.290430841366313
0.28718033785375
0.281784975686623
0.29073564852774
0.285240364808795
0.279159325773121
0.279826147876975
0.279229672114094
0.286536120290269
0.279896166657886
0.283795643847159
0.270693271642384
0.282481796068651
0.276099920793061
0.269381843375487
0.273814815911578
0.271575706443198
0.282634661502603
0.277917883147117
0.271599298377353
0.272123079842161
0.261921822915256
0.26736735317538
0.253542107726393
0.271688750455077
0.267889292436719
0.26445175818301
0.265211343486816
0.267980404805197
0.261980510395074
0.26124099120564
0.263771885311155
0.258298964112557
0.253519073307104
0.256114840313181
0.258774762418002
0.259372563621237
0.263182776301238
0.271393152925154
0.259881310915885
0.258853345654296
0.269063824240898
0.26438070339419
0.261495322085471
0.268271055197246
0.269299378772162
0.273245407777773
0.271905894854369
0.277450645553123
0.27827489956959
0.274102089185386
0.274877630790376
0.286694022671535
0.274436248181422
0.285452215718913
0.287854307430203
0.291018330801679
0.291070576107534
0.304974579809939
0.291386220744483
0.301712889912409
0.303324972525151
0.33568198702367
0.309083444346172
0.322362917062551
0.325203859175161
0.329565149935436
0.330810674814093
0.353780353023033
0.357184717153298
0.366843794383396
0.363763878954822
0.378386425793435
0.381131333732688
0.416877869571762
0.421349132478282
0.423868005592809
0.439822255218802
0.443184883261088
0.4499310972601
0.483082043618253
0.481672121929087
0.475310636555637
0.479741695893759
0.485165721032661
0.467576577251731
0.49564109271255
0.478093016524833
0.472604392090507
0.468767553425497
0.480906145329496
0.46045321113128
0.452971578664378
0.435594866625438
0.460358514335
0.458401961698413
0.465597007739798
0.442361374342231
0.473622885558687
0.446660358091269
0.479434438078742
0.458417835766365
0.461343284367569
0.44645373514255
0.442069172902916
0.422819767908637
0.447998119903996
0.432722041852074
0.414967306833053
0.410149692753287
0.431769605603191
0.410089444883535
0.427721325731728
0.397814657086404
0.433831723140701
0.392523819532465
0.424921033273047
0.427448440813254
0.435092997342407
0.381008980174981
0.433561506659711
0.411715049359458
0.421520483163262
0.400912127706631
0.41880169889619
0.404888894185153
0.427972096735981
0.420940442597971
0.444358724111674
0.399275014531704
0.424205935863262
0.416123507380182
0.448747818658858
0.41948934093686
0.434434717331629
0.454770468696441
0.467673775869451
0.406480823208381
0.452925121138455
0.445383510217297
0.426114837457426
0.428397427272204
0.440708406522108
0.43507995398145
0.482267126535122
0.49129453316128
0.445097807068635
0.463921504315265
0.440598667824414
0.457414083592448
0.488287773774735
0.422443731867329
0.479002265052227
0.486746107610122
0.507909078028314
0.494136151666556
0.498686794647363
0.457042852744243
0.526097155689429
0.48079598054958
0.595321761823206
0.574118515331461
0.574560951670878
0.598634472402504
0.543207826903552
0.528762126375452
0.567537483882402
0.554429568825842
0.608393454041483
0.57474271405564
0.613256897970632
0.56244418967513
0.563877400111335
0.633849745490825
0.668655789024764
0.532261264259798
0.607791074314278
0.605196916520189
0.661992228060498
0.511974748405307
0.597762514758605
0.574601934134066
0.596655411765866
0.494606892992198
0.665049498214881
0.483330304486134
0.529640156600695
0.499728516578176
0.568072273692706
0.531181875046319
0.514111084241083
0.523303967251351
0.557520066204814
0.558309230232498
0.631469489628585
0.469773789191165
0.666333790788065
0.415589281241913
0.620341976831726
0.568240137014458
0.63588296188854
0.403745344697431
0.663860255379447
0.606125115177884
0.579255787313104
0.460404742826569
0.738581081381724
0.466541614888684
0.543269859577289
0.451255108767881
0.400268517931903
0.679371497914471
0.559023348726169
0.469590794442427
0.750280327886982
0.603140942441371
0.870333171153117
0.946779261248948
0.591584698331372
0.556766658697807
0.876836103082209
0.573217067265307
0.659532581257556
0.585187451247621
1.45237898667816
0.795330325760959
1.18841578742857
0.269043201293197
0.560359456794052
