3596
4000.36533379555
650.420452594757
1
2
2
0.0596218178371223
0.0360171305339182
0.0496402893728937
0.0330505879870021
0.0441399636011562
0.0378079848174528
0.0484705947426156
0.03235992363049
0.0537967607467524
0.0349266395695916
0.0469252031910824
0.0360839863791742
0.0444656483920273
0.0306503480759126
0.0520982888417765
0.0303515444220942
0.0507577494255719
0.0326194867665867
0.0496212928416088
0.0302757103331649
0.0468240443037566
0.0290388167680876
0.0443247154891145
0.0374877367441999
0.04959918718695
0.0276623789433994
0.0494032877813602
0.0341706027509277
0.0458570492766403
0.0379545735535248
0.0446880863034864
0.035768590455578
0.0466822016034855
0.034396302911458
0.0501725582124742
0.0330222001087978
0.0406533639877809
0.0358594450451844
0.0477570111184828
0.0393317669580712
0.0500686081960387
0.0292338404224641
0.0542231946085157
0.0367726356112334
0.0476945603761196
0.0335966093033676
0.0481423357178005
0.0296483204110776
0.0471847510066365
0.0356529765148008
0.0463966209013515
0.0304647674443876
0.0543932273599005
0.0386630864042102
0.0461666899934508
0.0375315298627944
0.0497879852018589
0.0291267629044802
0.0457879949027364
0.023874294566785
0.0499754983495369
0.0382856002083895
0.0453006071636939
0.0350811531566944
0.0426382910221556
0.0307793011953621
0.040533739136685
0.0398131467183261
0.0395581213247488
0.0348829239237258
0.0427413833373346
0.0438114262897327
0.0501300870149664
0.0348281781480583
0.0508553289091762
0.0347058569570571
0.0423279492946281
0.0296694713928754
0.035145871701033
0.0363666618096326
0.0446253955979885
0.031800525745688
0.04724911805881
0.0300605895227269
0.0378775034270814
0.0449045426584961
0.0369892329555219
0.0335411648630006
0.0522157834457391
0.0371968768602556
0.0464602194513816
0.0315791690188691
0.0376169380358323
0.0366113930121386
0.0455667066543229
0.0351003644622112
0.0388005004413811
0.0346829798568774
0.0358399956494929
0.0384027498808602
0.0324909744954149
0.0200998404735135
0.0621580393838205
0.0205798183947473
0.0772856470404935
0.0275186009049509
0.0423068013656136
0.0396185775650428
0.0440284893157132
0.0336384539018652
0.0373996284663142
0.036356740121907
0.0290755200195487
0.0383859969621358
0.0310721824403412
0.0434797875651228
0.044193745209476
0.0374054120654376
0.0407818033872894
0.0431416779257128
0.0238092351114829
0.0488794186832993
0.055996454571203
0.0387011026970646
0.0466336172077721
0.029454931858398
0.0381818173676507
0.0421012787308596
0.0412071555607503
0.0332426403923587
0.0386710290663894
0.0335241092151135
0.0363213213148463
0.0146428550851445
0.0578443523215255
0.024262086537374
0.0404102106324164
0.0153700274785224
0.0491180955741067
0.0414055126521784
0.0484768489038926
0.0355320624444659
0.0313262713841191
0.0308222068284727
0.0697835765230104
0.0264947655126919
0.0317847076727383
0.0358562368636629
0.044663740606522
0.0303248382886831
0.0388547117912826
0.0202403568600261
0.0446827528756805
0.0336177009256765
0.0106895921545458
0.0467143448891469
0.0512248735751252
0.0273769254584282
0.0697565461665098
0.0287077938501786
0.057253025701351
0.0229162948790825
0.0427256015689722
0.0266624026884957
0.0527076764327915
0.0189579560892854
0.0434028384646848
0.0403278469131686
0.0411821125317416
0.0169085725151213
0.0580551826702539
0.0360077407789106
0.0275306633013779
0.0589463486214986
0.0325264054993865
0.026117924645178
0.0548372459134265
0.0409448654634584
0.0346882057401777
0.0342371565717244
0.0586086324845161
0.0240051254677917
0.0409599223228529
0.023878466603805
0.0421485336461869
0.0336144446711285
0.0416968449934314
0.0296713373563583
0.0441247082010545
0.0158632401333354
0.0381233367939344
0.045928888409197
0.0552760813879194
0.0334001938653749
0.0453363608588404
0.000603111317120501
0.067376427955372
0.0367773753791932
0.0477537221598487
0.0321810888376257
0.0428785267558563
0.0284618750100672
0.0347589290108651
0.03258293226891
0.0390425849210428
0.0120464779633154
0.0662011139531207
0.0315560126388377
0.0500239533584085
0.0264575220925284
0.0419015798818645
0.0113432889620404
0.0784661987558173
0.0313858369671028
0.0436843763574148
0.0267213751137243
0.0345341968499947
0.0395217696278159
0.0467023786943111
0.0356559737214224
0.0440040129909796
0.028424708966774
0.0472698785004323
0.0263277207845297
0.0413225809037561
0.0299845391306248
0.042203798791032
0.027726947525566
0.0444337094867135
0.0230913626340978
0.0491546746217351
0.0286945201643484
0.0384566873385097
0.0371770986579745
0.0290954142672034
0.0311772468475904
0.0554440932842562
0.0355417483320092
0.0415971057570312
0.0311015929089171
0.0453748383541341
0.0290574232175742
0.0415178695987084
0.0328017762843652
0.0381958812088639
0.0171727252426046
0.0623969113815323
0.0254220385930386
0.0531710794471624
0.0194289980713649
0.0613380671213496
0.0284365626566555
0.0536233218587034
0.0276310610085106
0.0489502830013927
0.0216403353500425
0.0493882841373874
0.0399626180453923
0.0521728536906201
0.0286934364590203
0.0503177677984657
0.0274060715807658
0.0495806957527743
0.0239099232284529
0.0302083358952541
0.0651552104250838
0.037845056844509
0.0349519158486894
0.0766189690864676
0.0242261646377965
0.053753378312743
0.025453470911145
0.0296071651380143
0.068186301955106
0.0620853153202493
0.0342699590503965
0.0487845474754238
0.0412452159976439
0.0377330328024892
0.0384087970006644
0.0407485349070983
0.034856508622543
0.0455946491242015
0.0512369208266447
0.0785477169299186
0.0120656690671336
0.0673018625606783
0.0394824849781791
0.0546214543211481
0.0289249355335385
0.0510913365788806
0.0316412470504006
0.0614013588251675
0.038823412967403
0.0655505662779606
0.0356740723264559
0.041807265229249
0.049186273888137
0.0558483674333745
0.0369690090606437
0.0538681688555264
0.0439291275360829
0.0451476544545054
0.0473445199658689
0.0473540358043834
0.0450147971868979
0.0471268863185933
0.0348142570457774
0.0732352571547079
0.0408318824503046
0.0558591617254657
0.0619680192831933
0.0622359003246745
0.050330735280975
0.0525293088030389
0.0450268610320823
0.0534220124690158
0.0421713130245391
0.051499016093016
0.0674845791546356
0.058614517149696
0.0533629411323063
0.0562033232260615
0.0458111273782967
0.0552135645473326
0.054122626781111
0.064081867549754
0.0564219589774213
0.0641186816359289
0.0452751587032552
0.0660606039045165
0.0664323636518833
0.0511829594594583
0.0874542899630109
0.0772059913447425
0.0615429809639555
0.0681320264149825
0.0573833440377351
0.0743085574426825
0.0602348597088298
0.0742426923498053
0.0644328355455034
0.070091826098003
0.0760855557450563
0.0880232167050089
0.0673542057064018
0.0845657066679814
0.0842351605476927
0.118972536841863
0.0816901847933821
0.0991014263832545
0.061710043015397
0.11270987601273
0.0851972652328742
0.114137148049384
0.0931953018690369
0.102791963102686
0.10802974249794
0.103738484639662
0.102158958803679
0.10886010617026
0.108643468511596
0.110103604578457
0.116952032880668
0.119080994137506
0.123839678181603
0.110197288756838
0.120862000757573
0.146645388757004
0.127655169900434
0.135341983057575
0.131501753416273
0.131243144025084
0.146791485896818
0.134106675461316
0.16708956190813
0.154608022487623
0.153114547137712
0.172413731427632
0.143131490394485
0.164871670969596
0.149714542072249
0.174061648015611
0.170362692494159
0.178588765311334
0.166236468341701
0.186653244324989
0.179531304220282
0.196758104639772
0.185528864251338
0.194523592972251
0.192775765978936
0.20719973653005
0.198481543918906
0.22219612844848
0.187546271546975
0.2394626624929
0.208681247912791
0.261438010828398
0.209552641657705
0.238312612887143
0.217376611186829
0.249195024053737
0.22959442002651
0.249393228251368
0.243269004152078
0.257819277655329
0.278141312306485
0.274617521977981
0.248582307434166
0.272577128859282
0.241587595870496
0.29887522761709
0.269279587794416
0.285388603387445
0.284658074824652
0.305219291784965
0.258618610721822
0.314356288261238
0.29197645726426
0.311450904532567
0.308757047592279
0.318853660734366
0.310640649346586
0.317494477317579
0.312251081348286
0.32863389064695
0.315909865786332
0.346228020976989
0.336591967327539
0.354999987627574
0.349977702161683
0.371847934826333
0.352591855797612
0.375774035401119
0.348699334027673
0.375494819000815
0.361552712321015
0.387260771475599
0.365374241060393
0.409521846127255
0.375118569359341
0.422640691071029
0.386628722705705
0.412638250339044
0.384495875636871
0.427483352160647
0.39625108486581
0.430214793721716
0.407681123279132
0.445676326659347
0.418656827660732
0.447334914986587
0.439666417899527
0.458132273952856
0.448935670425768
0.482888642124711
0.453926072934167
0.493510505504874
0.473683448099224
0.48771353474282
0.46409119814213
0.541528103434464
0.482255068605173
0.566727198057432
0.478481340202427
0.521936561073502
0.490460908661828
0.542851735584922
0.51468028061147
0.534779600426465
0.523642822334052
0.556213697709546
0.528065220779347
0.56812239709337
0.529664438998407
0.587162664650978
0.543625603320741
0.592465536165071
0.553594759006811
0.594733571414068
0.549000019202554
0.599757485970386
0.56561900012202
0.606004229561724
0.562840721514343
0.617224522028407
0.6015805131605
0.614898724391141
0.628813820384697
0.676044313054344
0.605960171171314
0.644040129442995
0.618981060636086
0.655927593596275
0.628229762530654
0.694079720920497
0.636481197316156
0.733205865815708
0.660443684603304
0.696115280932173
0.669688060926552
0.728266746208766
0.633096683084379
0.700420983256869
0.697505353990314
0.748570396115067
0.671527313972861
0.702182946472509
0.69867438687007
0.755658999174272
0.682691951414546
0.749378354051788
0.730803861586358
0.788234832202723
0.715162356869642
0.738335811623521
0.754282098237585
0.812781871540599
0.722452364478878
0.803505985818376
0.779569829324944
0.798946200799974
0.749602483879069
0.827706490591701
0.79744582579381
0.889648655749518
0.7621927853587
0.820242023344193
0.804472166225718
0.87075184719239
0.786555952070918
0.861709886474052
0.838509025882848
0.905633798374245
0.816040158847776
0.871804626588005
0.808911159401728
0.912612460305586
0.831680804214878
0.901775256815617
0.832647074406908
0.940292837618045
0.882516697795373
0.966647611262762
0.837427147718619
0.94405931263482
0.887482911119051
0.946782407307711
0.911223992587391
0.935317051980099
0.864976974354988
0.909513086571523
0.907340534451733
0.957331141771109
0.90266178601435
0.946807208597857
0.867956426532137
1.07558220484743
0.95946812025072
1.01445712572214
0.90515220789514
1.08458147670483
0.936614306533767
1.08282762113836
0.971827456572325
1.03089026520453
0.895244652622354
0.989064152767354
0.976584438550172
1.01960391707507
1.0314203337969
1.1868252775595
0.971908905914395
1.14952410622279
1.02424611593846
1.16989098771189
0.956135152740162
1.09628607393226
1.0698356614156
1.1570794036867
1.06081683802281
1.12240315700185
1.01786320808765
1.09250602405307
1.04009686697563
1.15308289820818
1.005941741718
1.20710041856351
1.08219141447723
1.28509483774481
1.09570468240091
1.1530090996576
1.05640441123342
1.19392200194888
1.06671889110637
1.14433528545073
1.11673801085781
1.30446587173401
1.08769012041494
1.28286223663454
1.15808297746178
1.1954894224113
1.09340447327987
1.22487727332129
1.09289725376774
1.22417957184297
1.13330826262143
1.2383906974894
1.13290314158864
1.24207994645148
1.1605341319726
1.35654619597978
1.18516882449558
1.32426585522967
1.2146935339726
1.33506862194136
1.19435361309746
1.35128758549993
1.20216939119846
1.41133658759879
1.217218184568
1.33652243656141
1.25704429652319
1.37303011011503
1.24263144769661
1.3200003912697
1.24467983058663
1.40716520349064
1.17055396433602
1.4458921195874
1.21275139890262
1.40879205710235
1.14509399330073
1.30775434118916
1.39117660856117
1.34024991562093
1.21503652577595
1.43326738301658
1.27506620890302
1.32258627014471
1.1980450850277
1.39517041964076
1.2604660579439
1.55548754843899
1.22585294558282
1.38596662171704
1.34501090789045
1.4285001790839
1.25316237969302
1.39146051556993
1.37605366636683
1.47041809671084
1.30980443180457
1.4939898686105
1.37373185577506
1.6620115246343
1.27734564405412
1.38342607901994
1.44747096267801
1.39756458566779
1.37074920583366
1.42670697287348
1.27511252922623
1.54535566246932
1.3795763941803
1.43744266184892
1.33528796341117
1.55611377077928
1.37261214423669
1.6691179832779
1.34822752387179
1.60453011400173
1.34927128313028
1.55727456010736
1.24535938915452
1.59322058589311
1.36657635275649
1.44005848785284
1.35711271140903
1.55306364572857
1.43983941631802
1.57092811481373
1.46405303479354
1.61114656645763
1.34505549883243
1.69985813946537
1.32243276864388
1.42297570263333
1.39723113872897
1.47535636653604
1.3488468342013
1.5906216770118
1.3686889315449
1.54581400696225
1.35136121196315
1.46801911325594
1.39409050418112
1.58459434558104
1.33702060254001
1.57870467392965
1.31483918795184
1.50071052126216
1.40312276946887
1.58946267347303
1.40820318976631
1.50977935679156
1.37297613800402
1.52123622063309
1.40655252958429
1.68940660091716
1.43957025372129
1.43140485419048
1.4224815401756
1.51760948095249
1.48499397965448
1.80313809762419
1.34289803623906
1.60675471898
1.41301895864929
1.77066579044284
1.53229902072751
1.61046134872496
1.49994078516863
1.6260490249705
1.38726430205364
1.64924509200414
1.44729324361586
1.540304009021
1.32931248696719
1.426889606346
1.4259186711233
1.52600712196678
1.52160527392443
1.49903726637065
1.28907218347924
1.62721866125918
1.42365184639177
1.45427942655586
1.30626047059371
1.50719216833668
1.43084530338486
1.50251262675418
1.47119685785964
1.57053450329104
1.36554674423355
1.70763967129968
1.43178312490393
1.44279271698004
1.43570499324276
1.46540939515876
1.36589491780507
1.52921073430139
1.35902255420518
1.55315365682158
1.33190669116425
1.58183987448507
1.44535427385781
1.48819712088166
1.36660138246522
1.497074025601
1.41117935772395
1.43843219685714
1.4405190030269
1.6990330080778
1.58245434253012
1.57735288382011
1.43302963511764
1.52343938944618
1.35295250610078
1.46248338450568
1.43126771823551
1.48617608844195
1.41830088998149
1.38036236995264
1.39239904542478
1.5231476845749
1.45816823114756
1.52833583758988
1.51643044285157
1.60875243996068
1.37692496817839
1.57456061133342
1.46352861973702
1.50143286881398
1.48680473464419
1.54257648732487
1.37508010244918
1.51964594050361
1.43612433633501
1.4831350160528
1.47683863306341
1.4559569838114
1.40778435899862
1.66782370422793
1.34737820577247
1.47932736534245
1.34583392728316
1.52976986152834
1.40024429070531
1.46152757959305
1.37882978854538
1.45668505506126
1.41490818728747
1.36296820467013
1.34152573811685
1.54580311075944
1.36305821859343
1.38517960359859
1.40877528805529
1.5003582628214
1.3967484356066
1.4956146519723
1.37566772403391
1.51115207265294
1.34897894639065
1.43068665678624
1.30337032513795
1.46116102870125
1.35752554808276
1.49417238834211
1.38379932860932
1.38958805210499
1.30033960141437
1.47752396055793
1.4322026245487
1.43009790885294
1.30895339960379
1.49879523610765
1.30450282734486
1.39668896795409
1.3169492047483
1.43919085318928
1.29866072196183
1.42448691173016
1.30058951486369
1.43584365636386
1.31128477342119
1.3648652292908
1.33472999564458
1.37897918659531
1.258387775355
1.44667928390901
1.29888972313551
1.36548321532215
1.35146029931396
1.43364042733534
1.35659548023148
1.3210792329128
1.31058984500729
1.33969215533927
1.24085861796424
1.35777299465636
1.23205041243681
1.39600345702593
1.27963766432078
1.33703519169408
1.23284408063996
1.30713244697424
1.27318633167986
1.25339858517013
1.23564679688698
1.38892524785522
1.17909238479942
1.28389561533961
1.25933354486872
1.25717679219214
1.22398227377749
1.30795160542434
1.18702865298381
1.25672554433363
1.18888451535659
1.25607937994489
1.15993424748825
1.18004831692334
1.2117850778907
1.25331577171425
1.25772103575006
1.21947074861037
1.18532128985125
1.17854304184105
1.16094307106719
1.20639853406487
1.15147328165921
1.16734864200096
1.12896634284248
1.17741637122876
1.16761240709535
1.1580255771005
1.13250934557114
1.13352522940783
1.08383875027413
1.13228552702025
1.08589138328739
1.17247114924475
1.09079330206712
1.103349354391
1.07883978363829
1.14245004537923
1.0592071012929
1.1077601793518
1.0413613270956
1.08158131423716
1.07137784202103
1.0769876102947
1.01695966891243
1.07193761404018
1.01065187111625
1.07832695683157
1.02372944728975
1.07524287207706
1.00908410447279
1.0715571818406
1.02328303235788
1.06016272784823
1.01560990031842
1.00523863829953
0.948192168390296
1.00409960734233
0.984219414869547
1.02133386522692
0.965194007884386
1.00034354349408
0.959513674077587
0.957382238954294
0.968052633705161
0.943845294197015
0.926534090076195
0.950031873522379
0.912567305883961
0.967349340723061
0.904853214142938
0.953671043492223
0.912909977057581
0.923978352834348
0.903280806364447
0.934329097284517
0.873920711819469
0.930388166846916
0.88545516024323
0.915480204489677
0.853398022539794
0.87151260285196
0.859783619289145
0.850690353823172
0.856481256610227
0.853571739231423
0.850225058759688
0.858838217387588
0.824794354796172
0.866875743816543
0.826423399797568
0.856907210957264
0.814444991639781
0.826593440253827
0.807114076263249
0.833494511055864
0.793099670053089
0.817120197262555
0.780635184499335
0.794082500190228
0.778300662998533
0.793763136095456
0.779275680803609
0.791415460584286
0.766327547080009
0.784024890686087
0.757114712429051
0.783080401148098
0.743738120491791
0.76573355255063
0.738594853205808
0.756148255036115
0.736556443009481
0.735886578968714
0.708960500944825
0.740641048099446
0.702703254856325
0.727521420115401
0.697838664038621
0.713469602775011
0.694876225363377
0.707076150636517
0.697596711080343
0.691567638997317
0.675766092650726
0.704150913007978
0.689612716999407
0.68641710831011
0.665050266300818
0.684297994796628
0.660668606510113
0.677292372843107
0.657462857360071
0.663079803852866
0.640562761944946
0.66059764565709
0.637409559916735
0.656461190315957
0.632208162955451
0.63592461730308
0.619334691170158
0.632309837086719
0.622271667429112
0.623544218299618
0.606612677355073
0.615239504678531
0.60330308582425
0.623372982566882
0.583767876132281
0.600817220962441
0.591057052159898
0.604657173640174
0.578784483245641
0.601547521857206
0.574887627793507
0.582408781154882
0.563376850602907
0.582691758486219
0.563785229929217
0.577328919562231
0.550152769500645
0.561553133122952
0.544214677566491
0.558992131497012
0.533665770560547
0.553734493964875
0.535100622496635
0.553250813055318
0.519806005903542
0.533801388428657
0.52443596378435
0.526207131483281
0.517600199765229
0.523813854292906
0.502179048700744
0.509768750991491
0.509927957092499
0.523625752586789
0.499937208099022
0.504481119063818
0.493597787991023
0.497816676328976
0.491493460603475
0.500020967374629
0.484723781415616
0.484427957452653
0.474442551664532
0.483738696089311
0.462747617149819
0.481565025823635
0.465929193539896
0.471619341525521
0.456123147194713
0.458557282575495
0.450818786589212
0.465461451196315
0.441265447347374
0.458371299568826
0.452379619946033
0.444940050503365
0.444058814084281
0.442612816756117
0.437356320465319
0.447623872068288
0.439219169251197
0.437086397417706
0.428713998481114
0.433444827056421
0.419993899645334
0.431176659105663
0.42058879296774
0.425785773277874
0.413619278383375
0.417565277603337
0.408531105957312
0.424995295749734
0.411899110929436
0.421360918493466
0.402581454361636
0.417395879370249
0.408777112290545
0.415697704616314
0.410328472860757
0.407814584555716
0.411443828216533
0.414100678565673
0.406342108727214
0.413140514952498
0.412227408963942
0.417624268630295
0.40954779984284
0.412568199903625
0.401587545686928
0.418368868951723
0.403176534374936
0.411567339545814
0.404920724480139
0.411457962258118
0.404383101284393
0.4146338021961
0.411946245660483
0.419887905348118
0.408128380448883
0.42607885761593
0.419330163735314
0.42774898878265
0.416053361651518
0.4295807053908
0.417061929375501
0.416505082400121
0.422008847716956
0.428044523589686
0.419868780335776
0.427330394166477
0.426952793215262
0.433250058949898
0.426327613349166
0.437267518441575
0.436002873371726
0.441391925753539
0.438503134817718
0.446257008021209
0.438415554691805
0.449448038919306
0.443380918880455
0.445200627269632
0.447498619405507
0.46424718450288
0.439362259941765
0.464166145301061
0.452036239724997
0.460430302308816
0.45207380736067
0.461730708222765
0.467336039484308
0.475609335303107
0.463957874192275
0.472536442398799
0.478163894535527
0.489825980826181
0.464430462664822
0.486392412588718
0.479139557941677
0.4843408860343
0.473557492832545
0.493306247408216
0.481637756971758
0.488223630384528
0.473707228952756
0.488540868141329
0.481414290016857
0.484478798176346
0.473153350290864
0.494372065129323
0.47759931670958
0.487982497009975
0.485513286549473
0.474212393970534
0.472680534378937
0.483568591311953
0.45932822398452
0.472095174552762
0.467075130544237
0.480221651760001
0.469594398062718
0.468689581602441
0.456755370543802
0.471853740162453
0.460924600701021
0.460812435400815
0.462303944501852
0.473586514885173
0.453795510539501
0.468654677551196
0.451012798473015
0.460380528851208
0.457878911921847
0.469311236180818
0.460809356794402
0.460782008400291
0.443310208554572
0.466931957736428
0.455937684061597
0.470753135656291
0.45440026155367
0.459460156331991
0.457935317722256
0.462877422238916
0.453915300339727
0.464831932741475
0.454672888350782
0.464272181016608
0.453548357966143
0.462592728575067
0.448374974275422
0.455276112329149
0.449850937156084
0.454866218344769
0.443096676943935
0.454250699337465
0.450562795217435
0.451585315622903
0.442548815412895
0.449298889660872
0.438925305119979
0.448172871628805
0.43274296829454
0.438412962887802
0.440667762874644
0.442298760948558
0.428924342576356
0.432103310869563
0.421829141505324
0.424066485206516
0.413693689791913
0.425133552313349
0.401958934139691
0.419663418372464
0.406414797552258
0.406997766887589
0.398787576946478
0.405126985128672
0.398593880266683
0.397683953466042
0.383741210030202
0.38930187217962
0.383745824947097
0.390197707729846
0.371468426955812
0.380471402173373
0.372417339542935
0.370470672275815
0.364818500626999
0.369231389473019
0.354471654349884
0.361450810191796
0.348590122033324
0.355546958356193
0.346185350002263
0.35416408566255
0.335278849672572
0.345311749589129
0.333911496462841
0.335828013307923
0.327563512303395
0.336033615520486
0.324049298608604
0.327214245179958
0.317166751227079
0.325324616409752
0.316745582045371
0.321858197535635
0.309829869798621
0.315296643933788
0.309985543818291
0.312182441381728
0.307783504848671
0.312615093679105
0.303397746734055
0.303637837128068
0.300256016702534
0.302617409265386
0.295517365777618
0.301688087032706
0.291739581213026
0.29508159299527
0.285587900929256
0.291525803152572
0.280730266984488
0.292725710866076
0.285985343294549
0.289618499464897
0.280738659264912
0.283215472702405
0.277265723762878
0.283927346471792
0.274302743795808
0.278913893834601
0.266258610398102
0.275430057865578
0.267345161836611
0.266998520906092
0.265580487366184
0.270382090153508
0.265985980027053
0.269439221100995
0.259006360971702
0.264625504300668
0.255526955237179
0.260368062651361
0.257705799104604
0.258375136377352
0.257105785382758
0.256577014836296
0.25016090418017
0.258814540499951
0.251930296373168
0.253129837705755
0.248929192415622
0.254224925956155
0.242252175504532
0.248507451779716
0.242424750551597
0.243361378497147
0.24445720058754
0.246871022209403
0.240570393664587
0.241076149705047
0.240291415015099
0.2447527606678
0.237094511316839
0.240879844604634
0.233905200499539
0.23735896263288
0.232366710643402
0.235699842203375
0.233606011803068
0.231590228612829
0.22626454092693
0.229932400598592
0.225774352826099
0.233677995367142
0.23052838902204
0.23277234433561
0.226536425074675
0.228834622279456
0.223065335059088
0.228226957686678
0.221041227050709
0.225680117606094
0.220895356520804
0.223473343980053
0.221755799090841
0.224500563908049
0.219189272515842
0.224795411229894
0.214843078368597
0.223939997255656
0.216535208286622
0.216448164615554
0.211760852933994
0.217040232853886
0.214283521374452
0.21830638612909
0.209248104631292
0.216731754382583
0.209727017219213
0.21376131680574
0.21033991821013
0.213322843556314
0.207438456597544
0.214032584807063
0.208885810736146
0.213905389174994
0.204284975308696
0.212108599172336
0.20339416948331
0.211028800644925
0.202332497379068
0.209049198690232
0.204340100861274
0.206430732119148
0.204437744823888
0.205111572953435
0.201710212516496
0.209424017411526
0.202949127009887
0.203092843509577
0.198353403142292
0.206669653531796
0.200384492692478
0.202766548306592
0.19752738358917
0.203943370978061
0.197630649527455
0.20009701327538
0.192099160244003
0.198010685208805
0.19473555969309
0.196985504929957
0.19246928843348
0.199365608639344
0.190451053832256
0.197459356295982
0.18940636512736
0.198815069318139
0.188577182383187
0.19485012137562
0.190216590927371
0.188850603603273
0.189313823355787
0.190591449946402
0.184964638252676
0.189729761803778
0.186132482734313
0.190733254236212
0.185302602337297
0.185142256890071
0.180348462277172
0.187596922236369
0.179341386139251
0.183307723362864
0.179251334570068
0.184356451778447
0.183328309467159
0.183104103060796
0.174446442510894
0.18025582083775
0.174236189458569
0.178500989497357
0.174266352414506
0.177309248493614
0.17147967987305
0.173776521484215
0.170550818564446
0.172937894881977
0.170193211025372
0.173938092828014
0.170757644596118
0.174282431054018
0.16465165503164
0.169324622412812
0.164482461041009
0.167585656307129
0.165620944791237
0.170517005567595
0.167125864186979
0.166353136028787
0.165247085156125
0.168741286773675
0.157794798967016
0.158306577505937
0.156819201830209
0.158706491169731
0.162107049431046
0.162211945173422
0.154054056458658
0.159616588239117
0.156759405870744
0.159613456672075
0.150061582982004
0.152666422454442
0.148998440336102
0.15264940095051
0.154195396496133
0.152051490452596
0.148793317837988
0.153150434420683
0.147661726056425
0.149020572643157
0.145059000503517
0.150137525312447
0.147555253438802
0.149268793193267
0.142489647106102
0.144731783434909
0.139547296446701
0.144831113487395
0.140252634111574
0.140950457324763
0.138929713260231
0.141960533921644
0.139461767268276
0.138809640862523
0.13716629164301
0.136237101955141
0.136623295696485
0.136739275652143
0.13197389596485
0.135906381364196
0.131846417529166
0.134789042021116
0.127809094216219
0.128275899656956
0.12935258501737
0.12961703722963
0.128688735291845
0.129171606314984
0.126300261061205
0.129850316352957
0.125478162466262
0.12707207383827
0.125472826235447
0.127610934914857
0.122199877118234
0.126575061756611
0.123742816611812
0.125931436721843
0.123493338395074
0.124117480754602
0.123001794545696
0.124928982160626
0.117675115796236
0.119001209040044
0.116968639828582
0.122883369899438
0.118527527429238
0.121643497795296
0.119681546854991
0.12280551628016
0.117746621369303
0.121874484624817
0.11916480141487
0.116952772063173
0.118196148813538
0.118466108712488
0.116327456890099
0.116738057903594
0.114518466450236
0.118939211154147
0.114491844996922
0.114469705404327
0.11312447513406
0.114695005503355
0.114272452839579
0.116083116012179
0.114175396049795
0.111851406814698
0.110006873097802
0.110103301498137
0.11112470345675
0.11417471172684
0.110817301639395
0.112048619307987
0.107015704633534
0.11299063435376
0.108576763669671
0.111154533167837
0.111698279830313
0.11624043379932
0.109606058187524
0.109658472860814
0.108410615598148
0.108318725453883
0.10640359321112
0.108222184590025
0.105760251017942
0.111501509049631
0.107391335355638
0.107399083375169
0.102982908503398
0.104119429459489
0.102668861682901
0.105094631477194
0.103989123457056
0.107688279880888
0.103616595507098
0.10422621878821
0.105943919832549
0.105012048671906
0.102664830812416
0.105083996274119
0.101387341801396
0.110071342449036
0.103774783380773
0.104425403815775
0.101231967924924
0.105108870755455
0.102239998529606
0.103216379379373
0.0983931602753226
0.101894975578662
0.101979995196987
0.100925887441159
0.101346546426779
0.102359993389498
0.102802465013352
0.103104996015601
0.101387199296161
0.101586675966441
0.102476110843695
0.100928051839723
0.100291101010458
0.101339059135041
0.0965625189990895
0.105096438196539
0.0986025162951142
0.0986372444475443
0.0958932789402334
0.101246865718239
0.0972120050340053
0.0966744801192791
0.0964171476787317
0.100904261543273
0.0969887377516018
0.09973847221179
0.0938288652937372
0.0979419311457133
0.0949964987968049
0.0962061653010937
0.094091955935006
0.0966443075169036
0.0932901487570159
0.0963427347855796
0.0947011177758767
0.0959393258848747
0.0926161616906773
0.0966808033662041
0.0928602391819056
0.0941325662261172
0.0938030808858007
0.0935975127096868
0.0929594991190295
0.0953882275285237
0.092714782875702
0.0934433976895811
0.0931801601130385
0.0948030771082289
0.0889838411120571
0.0937147119520122
0.0931651572051979
0.0933638397918716
0.0900242257406568
0.0929777432361566
0.0914257301892278
0.0934619736461358
0.0900949504595959
0.0901989674719318
0.0874969539154769
0.0903970380962142
0.0910354397917609
0.0888278624524871
0.0895571754019006
0.0904225791963569
0.0863138868682704
0.0917025544780419
0.0872928721662028
0.0866831039505708
0.088554899652249
0.090619304806467
0.0859112755261913
0.0890427951843638
0.0857744101781099
0.0896273961324433
0.0864195543439861
0.0895822776921265
0.0838250327769505
0.0872320802426184
0.0831052869633304
0.0838181256861662
0.0813724495695074
0.0844461928857781
0.0824863788527154
0.0866523775492325
0.0823799179402784
0.085191839039506
0.0832922718802012
0.0823144062903063
0.0816774377054174
0.0813423155051293
0.0841485099527016
0.0837009514291365
0.082476883140469
0.0821761095728447
0.0795615115190834
0.0819728095123637
0.0789852191712252
0.0810070057823274
0.0824162159560219
0.0787138932904273
0.077559331714334
0.0802578620916211
0.077715045238263
0.0804419617661469
0.0794977517026766
0.0788232050713362
0.0749001375530199
0.0781391427405814
0.0806572884476218
0.0798470668810134
0.0753408790013187
0.0770005456355276
0.0761681180630479
0.0778307373016001
0.0758735633601328
0.0766349308303489
0.075266397977924
0.075010521337732
0.0762847425945049
0.0774682346386478
0.0723243222385067
0.0770354470680106
0.0746733432264338
0.0765065670169367
0.0743058265674594
0.075344964834787
0.0720329098431334
0.0765053135229274
0.071775139624722
0.071022078568684
0.0745173439342681
0.076791791792791
0.0724091010536336
0.0738928873728912
0.0724405743879837
0.0769058920086479
0.0719768701456432
0.0720762448796054
0.0711317553039776
0.0742885907748371
0.070870658696312
0.0722962387258122
0.0724729803760919
0.0723076506547835
0.070349009784967
0.0707279079647884
0.0706378552307656
0.0702969539409132
0.0704435877547168
0.0721103634002889
0.0721361852272638
0.07086936373042
0.0688037138852677
0.0736353473471412
0.0693468069990104
0.0685287656154644
0.067491017352911
0.0709129797954725
0.0688213041047289
0.0700306735359576
0.0676010450375388
0.0685007599432857
0.0680873865082459
0.0694699236435505
0.0696664976491386
0.0708496431571057
0.0685043124258503
0.0712756546832681
0.0689034587749401
0.0705440906195019
0.0702655501645684
0.0689780962240091
0.0688076318776906
0.0680821676610252
0.06700978404009
0.0681334300714004
0.0703568924161354
0.0719185037028333
0.0666106842059157
0.0704641020530457
0.0688516997569835
0.0656472747890451
0.0654236446167387
0.0679522158495171
0.0651067705448848
0.0685003203434116
0.0643866688063389
0.0640924930038263
0.0648627783312505
0.068333395703619
0.0716002048397539
0.0708044827512758
0.0660745532767307
0.0634481167698018
0.0664110980518582
0.0700681084024233
0.0698648622052711
0.0668573081283813
0.0698462881477723
0.0655763222849458
0.0681713442852835
0.0652675286948467
0.0639972314928096
0.0658035894006429
0.0676795431020819
0.0717859654198507
0.0672271885995775
0.0702234667482429
0.066475304516657
0.0696734867227189
0.0655293409758546
0.0664857559947968
0.0682735020241878
0.0682534710637339
0.0681852768217825
0.0641287818841695
0.069946185485677
0.0618894963579194
0.0695194018009787
0.0660023583601573
0.0717160871377235
0.0622808331425054
0.073281081080501
0.057041185777407
0.071804267896598
0.051444483725042
0.0766613793558948
0.0543536072772402
0.0835517171501832
0.0512899744547939
0.0811524379333517
0.0473758580587118
0.0912285513913537
0.0488120450490128
0.0961012332041551
0.042589877582019
0.0917910422048371
0.0405014661966255
0.104936255305939
0.0425795931605232
0.0933479740325391
0.0417985420971536
0.0939947648447833
0.0508063471538221
0.0793697931413084
0.057665477103816
0.0782532174807394
0.0639645536364957
0.0651369551851035
0.0778569665963378
0.0610353316851841
0.0782015152565956
0.0594632179549376
0.0778440096481217
0.0618112564639287
0.0770292116193844
0.0630239855483287
0.0711013135844383
0.0703364758780468
0.0676738096918825
0.0690574091451859
0.0685624069740456
0.0696062007759501
0.0699696454364903
0.0688058395292118
0.0711742934410725
0.0646170043598574
0.0689400711738013
0.0669169966926671
0.0706619176548727
0.0689722584180252
0.0700414398799708
0.0687089822010263
0.0703613189382397
0.0679653542490246
0.0695557007556017
0.069140149593323
0.069237982727655
0.0697677994627094
0.0717307323325326
0.0672299753840091
0.0709902622046769
0.0697796437412592
0.0709204387618416
0.0685461894421203
0.0721868320432643
0.068666147849177
0.071884653198201
0.0707467258325348
0.0719770209669831
0.0700845262575805
0.0700056618037446
0.0668211911662826
0.072330215914226
0.0716172638374474
0.0727671456358101
0.0701423644563059
0.0745847179955441
0.0727764008432982
0.0726200366133636
0.0701256475003285
0.0738572359418053
0.0718803612000495
0.0741550678096204
0.0734319519065622
0.0722730986961426
0.0715507603686083
0.0732949721155398
0.0725612457221243
0.0746538347000757
0.0740491003113041
0.0750037097066061
0.0730979780589178
0.0739956214580042
0.0739193743599351
0.0744694026624311
0.072660023168136
0.0751121186566653
0.0748383836114271
0.0743200789322505
0.0716778705551146
0.0757437789634166
0.0724367880642835
0.0771812989077171
0.0747441771384377
0.0754775613588939
0.0753097224566727
0.0762944560647315
0.0752211122845778
0.0775300737032965
0.0776194285712951
0.078414186951967
0.0744010416251697
0.0762916288658261
0.0755988739958277
0.0774990416836061
0.0783922174642605
0.0775060799846027
0.0731865177855976
0.0790945656952745
0.0770638796555364
0.0795110700934656
0.0757063823959862
0.0791421752445239
0.0752175376287047
0.0775729172572588
0.0760520942566214
0.0794388474353244
0.0788502925242507
0.0794981889195944
0.0795309953390773
0.0791426809562988
0.0781409702157464
0.0807975321006575
0.079541715698072
0.0805278487274316
0.0794283453616514
0.0809879143683222
0.080831175832492
0.0795179303150244
0.0793096829303913
0.0838415623686286
0.080428394606663
0.0804464570324172
0.0805208180748341
0.0827662848331384
0.0795447307930105
0.0827500073769592
0.0796401105854289
0.0842926827675256
0.0828350256932526
0.0824457660978916
0.0823324688836834
0.0844741287121783
0.0816784245043592
0.084509047794252
0.08311016084828
0.0866579447493431
0.083842751453822
0.0850338323916184
0.0799659839409602
0.0883314128070083
0.0850523797446268
0.0851196131944878
0.0815204372304357
0.0854767714916416
0.0835821078999056
0.0862691262418523
0.0826606870493717
0.0834693819901232
0.0837421815002983
0.0862245000925233
0.0816739129535628
0.0850257802751199
0.0840237445664662
0.0849452508415482
0.0831880697960008
0.0876467795257016
0.0856072171618498
0.0884109140327406
0.0853301713207544
0.0881928366428366
0.0861749998472929
0.0882214073917423
0.0860627267137656
0.087662765290543
0.085904775940418
0.0897071748206971
0.0850785802235935
0.0880946163617456
0.0866892635025629
0.0883026927174568
0.0870528080771469
0.0890779761163954
0.0878227493047649
0.0901158375880183
0.0856920947199973
0.0885222737849152
0.0893738134632006
0.0918513173851096
0.0879827182667416
0.0907265405758543
0.0882337211069146
0.0898879235242944
0.0877985086345008
0.090679748854921
0.0887540645580483
0.0910152270539031
0.0888019289295483
0.0909437080618924
0.089010147351657
0.0892968773324367
0.0852183613835996
0.0904383343768296
0.0872361162625133
0.0908905475281911
0.0885542982431178
0.0878794654184768
0.0877391960426063
0.0888733584904558
0.0852781498410375
0.0898336700147175
0.0875967480048194
0.0901411065144203
0.0862132703968041
0.09052905829534
0.0863675855283524
0.0878778846562341
0.0848379331503614
0.0865774762442513
0.089045520702239
0.089200185287944
0.0864099414431341
0.0890844328026469
0.0854805466132614
0.0901367918454665
0.0855479544848115
0.0850231830191522
0.0853838704416284
0.0874017564494153
0.0854994672425035
0.0889505627762661
0.0863375380417398
0.0865331638265457
0.0897198470321972
0.0871455984613702
0.0847958828023169
0.088406119357086
0.0868175314061463
0.0852170152323408
0.0843523431198328
0.0848187966806891
0.084810867390604
0.0872719232935373
0.0848156559772779
0.0837986686922318
0.0840550224030028
0.0860558198639585
0.0837419688720585
0.0862903272789927
0.0840963753853636
0.0856585924116216
0.0836005315858082
0.0846870631323222
0.0829627114608522
0.086214206721556
0.0818349268717135
0.0836201241702001
0.0847938239209189
0.0832552682461459
0.0827424906148032
0.0850055337023662
0.0827054851220896
0.0835923257794077
0.0813833864844066
0.082939039353444
0.0825615458488101
0.0832207756643975
0.082939050536471
0.0821622863043794
0.080253529654982
0.0849301778719387
0.0811138953502779
0.0852360188864982
0.0816359036634763
0.0803201035373488
0.0777158386231054
0.0830794234909465
0.0835398004504364
0.0804225310345589
0.0806430830509404
0.0832171545648921
0.0812203286424205
0.0822858093050166
0.0791900528957629
0.0829024375749182
0.08256566055663
0.0815400900019746
0.0807610693687204
0.0821043282888328
0.0795342565147551
0.0803058607089606
0.0770436984835085
0.0804502194105052
0.078370070832399
0.0800316597203931
0.0779542728759323
0.0804146633984697
0.0795091600913368
0.0798594583197398
0.0753855788807404
0.079440366273403
0.0785863599804946
0.078829022918852
0.0768211439733635
0.0772887367572205
0.0757580742415563
0.0788043951977457
0.0788135183616488
0.0772433331901799
0.0760559073342762
0.0752579928329573
0.0751692079532354
0.0769639384197222
0.0727345637567038
0.0759825354752872
0.0735510301099959
0.0741841992079183
0.0725957924242565
0.0764198447484929
0.0732634787353466
0.0751755648959604
0.0736622904857
0.0745007450070328
0.0713319410487186
0.0734400247329141
0.073924212854285
0.073697927932799
0.0723475576297848
0.0716238147589253
0.0727279388340126
0.0714351088994243
0.0708156046603574
0.0727344237600727
0.0693959180408428
0.0709837308058107
0.0684192262709881
0.0742183424979592
0.0685111043857161
0.0714667087559904
0.067002277845155
0.0695486653654942
0.0665538017113458
0.0695086340369267
0.0679792323626027
0.0679726346725666
0.066047610050453
0.0698651023341924
0.0652948646215511
0.0668258593249073
0.063756818787965
0.0680567724520279
0.0676754163646371
0.0680176658961716
0.0632176717191336
0.0675930117084379
0.0644609539247946
0.0666806816143798
0.0619496616719006
0.0663196243866913
0.0622866544735804
0.066828077309195
0.0618228812181701
0.0695382246432731
0.067608961341574
0.0624751644151703
0.0631118148931159
0.0652963012617554
0.0646912077086097
0.0651514424680492
0.0621739122182597
0.06352476658517
0.0611375468353764
0.0641847127094101
0.0619336474816602
0.0631335609326566
0.061694815666089
0.0601684891587247
0.0614845515177941
0.0624294153399758
0.0626552443379849
0.0637979757640561
0.0614947185057239
0.0618022433950037
0.0613758908646727
0.0620865773242919
0.0588905955666438
0.0609127046044512
0.0614496657071113
0.0611984023332266
0.0623203854756758
0.0610053985733737
0.0599388494478281
0.0606856622775629
0.0602246491978102
0.0597852659288342
0.0610057350419634
0.0590485232379857
0.0574558701691124
0.0572785949513094
0.0589504035285656
0.0576781775438174
0.056415948559705
0.0593710546275574
0.0589675890609398
0.0578086589665617
0.0566326874712585
0.0566085004050312
0.0573300668227753
0.0574883671721455
0.0589763422627412
0.0561875063578012
0.0574770834627004
0.0552070479787366
0.0600378763170554
0.0528212727250396
0.0562168718510609
0.0604723861975084
0.0567606614207282
0.0592352589950169
0.0554484451731632
0.0560031369392769
0.0548426887143703
0.0583045282181897
0.0524216193895594
0.0567162053268211
0.0545622200525228
0.0556401144532557
0.0554591727121855
0.0581408734247924
0.0573616540967852
0.0554655725769385
0.0534889469674511
0.0575620253295042
0.0540384999205167
0.0595879882570203
0.0519974160863135
0.0559768081362751
0.0604473509178247
0.0560179843593129
0.0558601674138338
0.0567923243739959
0.0501058415767063
0.0695727619891611
0.0506092137793746
0.059779408101104
0.0510758267626765
0.0575589522984651
0.0514942218498163
0.0609649178612746
0.0507523468765267
0.0588614188898895
0.0522989121636115
0.0526528624992188
0.0553390477063776
0.0532036596371014
0.0531197968571319
0.0551996157007575
0.0521439803520158
0.0549249121545248
0.0506673517907567
0.0554107339689039
0.0532736895468952
0.0565944972400602
0.0507724246657225
0.0555474197239531
0.0509025657897748
0.0571569884305005
0.0503787656579959
0.0561624148376086
0.0524168857811328
0.0591404526289808
0.0489019332757654
0.0574384653565056
0.0559895379428199
0.0549557930661599
0.054676332937536
0.0521211966443854
0.0533297615647115
0.05385977607109
0.0539888087559909
0.0543080024380182
0.053139402068217
0.0535570362010841
0.0544132432463423
0.0525985385535014
0.0540400608943095
0.0529510370960216
0.0544645883547795
0.0547313952956923
0.0542558583906625
0.0541701982410191
0.0517446722142042
0.0563120685824828
0.0482580823774615
0.0651630823633951
0.0514419020283384
0.0618217748949529
0.0528305105682544
0.0590627013452195
0.0524058253886367
0.0551971908059519
0.0531167728135473
0.0544810398405993
0.0528757246468274
0.0570463546770871
0.053200853815267
0.0565853582751606
0.0517442836422703
0.055829455450285
0.0531305456200375
0.053229851858484
0.0513255075201399
0.0538879320245654
0.0552300310336972
0.0524869868809466
0.0557052483298783
0.0540765225724291
0.0563758489144567
0.0542174466804697
0.0594966377092898
0.0422208828071496
0.0744299370236068
0.0539270392221818
0.0604803681734927
0.0518973100140062
0.0530078355129572
0.054941566338214
0.0542670718722392
0.0551265133480615
0.0553655550783659
0.0550745182633232
0.0550537039304007
0.0558049281299397
0.0580387324809162
0.0568580234393118
0.0513017855912603
0.0623092074957401
0.0657405472915009
0.0580438237218755
0.0621820118437035
0.0506479944200768
0.0629817674572896
0.0652361750384756
0.056448008119978
0.0633334611262775
0.055785879299361
0.0617490306136373
0.0541475215492143
0.060375791601842
0.0540258153114816
0.0639504672234603
0.0576375322702008
0.0619424666506552
0.0573538967519579
0.0593287884446085
0.0614670054946992
0.0579917902849778
0.0625945107298155
0.065089938572638
0.0597331805165991
0.0654443678558142
0.0577841178316459
0.0621537325879982
0.0574524073300488
0.0645334363237677
0.0589793880830528
0.0645104344577666
0.0616554180162917
0.0619821611635404
0.0659671539838107
0.0648255349817133
0.0621327871478483
0.067532803110095
0.0601952431743516
0.0754470398786608
0.0518161498088523
0.077001070305155
0.0643968574349344
0.0737200258634986
0.0690720826076624
0.064523481178107
0.0687031887477629
0.0648156501301977
0.0659545560688591
0.0605227829508233
0.081108471380119
0.0622562419803562
0.0752378391261447
0.0567720634325967
0.0755924028490135
0.064676050093994
0.0763253048555302
0.0673131509780445
0.0706666916769568
0.0642335111716421
0.0836650639864477
0.0623640184011275
0.0683098093818883
0.0815898962342027
0.0713434953393481
0.0901135095540941
0.0694014229051887
0.0735088831393192
0.080851730555402
0.0695601568282724
0.0832438009511118
0.0733803101595278
0.0825365465921056
0.0679726402324558
0.0820409401741661
0.0887399780208281
0.0743977959711976
0.0818319696932177
0.0769226217945824
0.0768228543845337
0.0935427484492138
0.0782847851495552
0.0842521766346533
0.0801890675167569
0.0887068758864544
0.071531495425817
0.11886853256626
0.0747576527286016
0.100898740393358
0.0856176139466423
0.0985999395562979
0.0910667386617645
0.0965064124396417
0.088696600171763
0.100187479207773
0.097609471641871
0.100756667906979
0.0853008140658987
0.109637618658417
0.101520870501513
0.100899271234559
0.106600842013643
0.0963938114449096
0.0986841682735971
0.114386595132126
0.115652567929296
0.118936852269197
0.105277061255453
0.109506397835406
0.119888251846056
0.112638108427764
0.118128739177989
0.113714037734224
0.117935669418647
0.120405096201711
0.121147447550728
0.127832653220731
0.121556313741334
0.132180997127385
0.121425182022107
0.135597325826195
0.127605565891289
0.160511950489521
0.145251243901924
0.137130586103467
0.151174660805297
0.14196629796499
0.156468598708266
0.145688780561681
0.15345282447203
0.154406230548576
0.158871988364386
0.157862620098711
0.15439247728487
0.177774240249481
0.160920894505596
0.186651046946513
0.180564865507658
0.182455103988104
0.175024810578525
0.180658072263538
0.278342810062671
0.186172913738644
0.225741319260531
0.184175815839293
0.235143619452525
0.22734072428262
0.235634190803606
0.226998777020612
0.240296912111681
0.2362522873201
0.253471488034519
0.250963410907122
0.269795479737949
0.269737910093003
0.281533387327461
0.271512930851757
0.306299905615109
0.307632121138405
0.34014421514922
0.313762094196656
0.323919780659361
0.324045068739026
0.344317572189198
0.338187892207386
0.367370955051337
0.339510470632828
0.385147145996416
0.394933820024265
0.397154386457995
0.38865578550681
0.400626920297
0.420842288906407
0.397600756302042
0.456654730583874
0.432741768922084
0.456490533982561
0.440049917663959
0.45840333818279
0.457490682831469
0.460359956932161
0.492365679874862
0.487360889022225
0.492024780647241
0.484420794836628
0.503580779685175
0.49502874521925
0.524456985435059
0.520500680723847
0.519117041673988
0.529528093845943
0.550010798691838
0.671297547243001
0.551375132708942
0.550252926557214
0.547665584508513
0.55032600298174
0.567853463848756
0.540372691242805
0.607398418153952
0.571147014558586
0.569969648590726
0.559077087854317
0.57025614040188
0.561462165465097
0.572004645608269
0.565049509307215
0.559585225293923
0.585636644053309
0.552168867620709
0.615856535117434
0.591063369992798
0.558940642805069
0.556317041695277
0.558767097868349
0.552117418912436
0.551363397622058
0.535230424315484
0.556081778824503
0.550695716805263
0.53472446951778
0.529863402201221
0.503862409034416
0.555516687236891
0.524556504700099
0.511682299018065
0.506842335908768
0.499788175320898
0.496084540922515
0.467923494365917
0.502800840211769
0.507570332495742
0.465258450298124
0.466078217690161
0.450700702349024
0.455998907363123
0.443285162256164
0.438047753263857
0.427994687196477
0.427290976739719
0.424037027376347
0.424208389218905
0.41500619025616
0.414091980839761
0.405746577264442
0.415393159803534
0.393061532641226
0.404374943647958
0.392032232366063
0.394813157495312
0.393786425185716
0.392073615911547
0.381620788948398
0.381645599024148
0.379261926879869
0.384236206130144
0.379812411741954
0.382788689138019
0.36893095837643
0.378586471677682
0.363680193154207
0.367974825324115
0.360168418025773
0.371885231044492
0.356832224143024
0.359763896641586
0.350475268177423
0.363630985987297
0.355601765274991
0.360054642855244
0.347864864510364
0.354389901886016
0.342426534690159
0.339215993253211
0.390567845362104
0.347791517630837
0.349681208557527
0.336060958505022
0.342386947839747
0.334011971461979
0.333035154618136
0.36961623939853
0.338801571409387
0.342770135983865
0.331990165701823
0.332249638609963
0.336270706371216
0.328975729652722
0.323641365430388
0.326238711761997
0.304242996957566
0.361411070488014
0.306224998657056
0.383048221757933
0.333169302855261
0.337763656842475
0.292119602854968
0.337496989993375
0.318128539999666
0.310929606594622
0.304383380940455
0.294531412441618
0.310632702051028
0.29909860768427
0.30085377114753
0.292921885267827
0.285267853785843
0.303550319656805
0.296216515290203
0.282650878074265
0.296593401292444
0.290107496300092
0.274631280650178
0.300015011874698
0.312441783404353
0.28814465424431
0.269316242276143
0.275848839498889
0.258345284868682
0.270152153693265
0.270192515236451
0.260552760908656
0.268736429943466
0.249546605429175
0.254537393861927
0.249905688085137
0.266066948087898
0.239908336556637
0.255418967641418
0.256351023045369
0.234583015221299
0.250112311103603
0.234809267983822
0.268443431004701
0.244523868765132
0.246412452549837
0.22041200425228
0.257050012059296
0.231462888451043
0.240310068519861
0.238909964511256
0.221371476927112
0.227702910200833
0.237894098784845
0.216005262699785
0.2302119081549
0.218975042534497
0.225397377676853
0.223894987506562
0.244740793762967
0.24273841025733
0.21980417967335
0.213327522236329
0.214786580537047
0.216980246864175
0.223767505797004
0.200817289408846
0.245082571740084
0.204341021784297
0.22396973750232
0.220515988633709
0.225157018873403
0.220645803314013
0.222678385742405
0.217795477175503
0.224781376304336
0.22718079920775
0.252453803996062
0.222985308333903
0.242699496025841
0.234176786216674
0.243313259707672
0.236036498966224
0.245190650357949
0.240988364539359
0.249938319716684
0.252659135825412
0.261719964049461
0.255779659299097
0.274059375074035
0.258946860265129
0.298221229986638
0.283378617544059
0.28810521930544
0.296506783728272
0.294228802206467
0.322023989743704
0.3067954644883
0.317501569192924
0.31403334251415
0.318738033311245
0.330625375558741
0.31980373007715
0.342152544171204
0.341889027178494
0.348958153061387
0.343280023104219
0.344370275554025
0.352315899171541
0.350753250582641
0.369614447050561
0.343730570012681
0.406154955753095
0.367645008946185
0.38243258726845
0.368128467090202
0.365397786825278
0.370059707557116
0.371568771833656
0.375799703160804
0.364589269967059
0.377486632579248
0.392349669325738
0.377361776185668
0.381420044096665
0.381996710933733
0.381295493935196
0.380086336108603
0.383447937767272
0.388879413538595
0.386122287453322
0.403065009728733
0.387667867587824
0.398844376895359
0.436292251292549
0.408827536277553
0.407782906475162
0.397809162592932
0.414195050780083
0.407001017672375
0.413937446386667
0.421252330603267
0.42588409276509
0.422192425300427
0.424616605574582
0.429336696094682
0.427061922217155
0.430415319938365
0.435852050141732
0.431050875278771
0.446447824596423
0.417888623684545
0.472493669820284
0.447077181495967
0.455846473201246
0.442289204766237
0.450517591256573
0.441560939776659
0.452699697756019
0.441684060418038
0.44910176857315
0.450328940482154
0.444107327773044
0.447111140306233
0.443105959874799
0.448885806924502
0.446254486050464
0.447740582572392
0.446210045523448
0.439724925570812
0.442068552156276
0.439647675034623
0.445638633493475
0.430299887680074
0.457144137719842
0.446257930524384
0.44710774295085
0.438233618144171
0.439756508217883
0.453364863876054
0.446338464803436
0.435779284785352
0.44163542385141
0.441860796852217
0.447482435056972
0.435707772187787
0.453416264399492
0.450639539022009
0.44845656352845
0.448317639553422
0.456000059275221
0.452917326228188
0.454988715978499
0.456672819349285
0.465786698653117
0.462316471741079
0.471285692668734
0.46875686840284
0.470660259246684
0.465751337480045
0.46998442722935
0.473945137785933
0.477462105374505
0.467259175638472
0.466744327579547
0.461035513142939
0.46635129590309
0.461823600606282
0.457598365957037
0.448526491094268
0.452974646967304
0.438480375835758
0.443443335402272
0.445328683043879
0.433850458338218
0.443172609111387
0.430078257211196
0.429006810348437
0.426031254048912
0.422850101875007
0.416729952179946
0.421467045527405
0.414092702353075
0.413397072066644
0.408434110149338
0.410435656075868
0.409170419965176
0.407496969952684
0.402221517096558
0.404386782122922
0.404091415115895
0.403390054330443
0.400163583610985
0.40045079269036
0.402079769692812
0.40102548916804
0.393949586923694
0.409522346356677
0.403182116168243
0.406237926450022
0.397958442761549
0.4000665636475
0.398754688953718
0.399157123549836
0.395646175338574
0.394406036750299
0.396592932248246
0.398223682101801
0.394596134344638
0.396123979302261
0.393171320182479
0.393680782265668
0.392522206328728
0.391029261140777
0.390624987941331
0.390798258708874
0.388982254262189
0.390740300273321
0.388175419118256
0.3883077110754
0.391464364247539
0.386334022814038
0.393432916036294
0.386416355539889
0.388228732934521
0.391827168458987
0.386928157666426
0.388549035588514
0.388555250685562
0.387738673881662
0.385950609365322
0.383994223223077
0.386361915808127
0.382713952500726
0.385927960963971
0.381230959234958
0.376259659749687
0.37751382392053
0.376506614503643
0.373504827323308
0.368137957950455
0.368679976576142
0.364290031873475
0.363059780335786
0.359170838604184
0.356808407247514
0.350198962800413
0.353773068834793
0.349197603098095
0.351773565374388
0.343974583861089
0.343764645032681
0.344729642045759
0.341094953115847
0.339732741574568
0.341101003939027
0.342242263220209
0.340876513914283
0.339069098252341
0.336031957462861
0.334451910892141
0.340395927486022
0.338545085014892
0.340897212025863
0.338818684270955
0.34022233889073
0.3411407185617
0.343516198664276
0.345048691424779
0.344080288500509
0.346568007491664
0.347407531884979
0.35096478359548
0.349000813437489
0.351167179080022
0.353229944039949
0.350314844635404
0.355028704356479
0.358172741926071
0.356838759249318
0.356269488137894
0.358309574102318
0.357800514643932
0.359478051901054
0.360769033100685
0.36109806845916
0.360822412090266
0.357313021414648
0.356608334909308
0.356315603787363
0.355765233992129
0.356770899711108
0.355728523696756
0.352740648105788
0.353860553278422
0.350714790493175
0.351313154252836
0.351221643387224
0.347312301955775
0.345767510650229
0.345131085056353
0.346241098469356
0.343926529347438
0.343414731429377
0.341115780828775
0.339505262658257
0.336988346114276
0.337925894305665
0.337181488079418
0.333409834379449
0.331845821376913
0.33282512206454
0.331211079611099
0.330925382585064
0.330227845518728
0.330952570337677
0.326978686919342
0.328439861876464
0.324127865456081
0.326816547340007
0.327184710195008
0.325301564329747
0.322280748898294
0.320270460899618
0.322683146604612
0.318074504994349
0.314485513793751
0.315012673306892
0.314799761796477
0.309041855246197
0.309904426292296
0.305092332216539
0.30649281736218
0.304801752956699
0.300749849031716
0.298578759085432
0.29795536281922
0.296895635401676
0.291826210013452
0.293679590891653
0.291925401477908
0.29309535757045
0.290000290062007
0.289947080252555
0.292507058108232
0.289014114960137
0.28887175171942
0.291272007493715
0.287225544293776
0.2843560175706
0.284481221700117
0.281669545435781
0.279402939462264
0.278013064112547
0.275884624083582
0.272367261540797
0.269150974433572
0.267581781703427
0.262944527066981
0.261629710478654
0.258142702433354
0.258739339860691
0.25783576595701
0.257006103026211
0.26009292669596
0.263540442858302
0.265719033501055
0.269311612425706
0.275998611342503
0.283623756610664
0.288096614847118
0.29673668512194
0.305562493226862
0.319353595693631
0.330457798442419
0.340501889639646
0.354704336813429
0.365855636651819
0.380800184430061
0.395576050201208
0.408621657120055
0.420934026237335
0.434368514098043
0.451075390850655
0.464095900784114
0.481548517309689
0.493855971803829
0.505440313681412
0.518232641583471
0.533802419801726
0.539555364067264
0.552756961368194
0.561784646685876
0.567276542700586
0.575779447297041
0.584856043106575
0.592643855575801
0.593419581825551
0.599616389846315
0.605098940899752
0.603441806217873
0.603674139954248
0.605307571233015
0.604327648597549
0.604093076112438
0.60648258271737
0.600242696318735
0.600640173460161
0.600297580817178
0.600754415756565
0.600861212230704
0.595593793632083
0.600437558902691
0.604433307547523
0.599545278636221
0.606489845550576
0.609578265794556
0.617063458546156
0.617924308267659
0.61913347183656
0.626118725666818
0.63571549695503
0.640486617162076
0.650285175391833
0.658416626680801
0.665214032302494
0.675876473832376
0.689499379013969
0.692410511631948
0.704085167408661
0.724826564808212
0.7322964250559
0.738979979015934
0.753384839163786
0.754449669286149
0.760856508447536
0.772678935884218
0.77044647051583
0.768852463049283
0.767735137957089
0.769187538100123
0.756405050014441
0.759700539527517
0.756329030563653
0.753930800070591
0.748040222713118
0.74241193832454
0.741518650139412
0.739360997467143
0.740525034985684
0.749628713022983
0.766504767222665
0.771261264290583
0.786443966963496
0.801347073047268
0.801237130741347
0.817381589235792
0.823370924579543
0.842499417389775
0.857515478720584
0.859923608827109
0.87868138877003
0.886431647217856
0.904238826480663
0.919877297624328
0.935383169245307
0.949970343209133
0.953442320459234
0.959506595722753
0.991768785336076
1.00838424808011
1.01779685724153
1.03578940687804
1.06267178765462
1.08964560036303
1.10524094775097
1.11151870118395
1.14034828429586
1.1636111883295
1.16199122197673
1.17991430862929
1.20971216056481
1.2012107770851
1.21740902345757
1.22633881572006
1.21817062181561
1.25466437748786
1.22791409016341
1.25499660167781
1.25596614456387
1.23858591461205
1.23243374380303
1.22936874148609
1.21008678003676
1.21001440095138
1.21479059946085
1.21919126863434
1.18203760285038
1.18853287529928
1.17674590562018
1.1651521263163
1.16112801476231
1.17832203841395
1.171179457432
1.17692438099849
1.18580588463535
1.21085807409876
1.19446620516516
1.24184532831451
1.24447040800487
1.23482234711787
1.25898035857031
1.27156047482975
1.28510755760449
1.27880088638477
1.29623002818107
1.3023669065946
1.32216987451419
1.37477171565864
1.34219384589831
1.35593197103694
1.31088811802918
1.34600088732647
1.38806543884434
1.34132392620426
1.35045951618653
1.35471177114777
1.37007348063549
1.37273283796029
1.37324574574098
1.37250054886572
1.35854287802085
1.34666357173229
1.32757372471346
1.35094744954521
1.34184184813644
1.35122859862074
1.2922465241174
1.33596141650676
1.27645337496478
1.32440047929559
1.29249053077123
1.26491991866043
1.26267385901038
1.24583755136038
1.20812545006648
1.19240193470741
1.15476610799679
1.11301989355717
1.0696555986966
1.03201904041104
0.970976823015203
0.941126190642567
0.917887403956817
0.877460676118869
0.844787647917653
0.826129535880343
0.789830444650592
0.77755221095204
0.766499174889456
0.757118627199438
0.756453935212675
0.749766888246059
0.738652843651308
0.738006386394962
0.731259937136063
0.735499563902475
0.723605832560739
0.712996093427479
0.704538847237762
0.694514207404235
0.695271383838541
0.672426306196672
0.658055251903112
0.656314580768228
0.63692354118901
0.618784962600624
0.608329590163214
0.596235220348583
0.570770555187565
0.55866957456247
0.542472670293526
0.521735093132663
0.502005522934024
0.486931741913145
0.467130818558229
0.448760202898465
0.426650517943095
0.418742217205661
0.396842338133993
0.384552256358386
0.370783496202657
0.359900991759603
0.345681887206038
0.340346216983959
0.331335233141536
0.322968737191663
0.313517227746683
0.309252696554443
0.304920157761288
0.293283058093788
0.292488610174472
0.2900252350614
0.288031101380487
0.290241216597961
0.283424139454321
0.286721974448476
0.290297333599367
0.285991080465929
0.286482929357607
0.284802660475014
0.282118374378514
0.285327226330466
0.287974530383443
0.292633360057313
0.295122783840193
0.298665951748819
0.292703602740428
0.300894521867393
0.307303201429594
0.30498898614548
0.298665155114133
0.298533035600225
0.30030471346266
0.301150978725913
0.296008115132401
0.294918178164577
0.290712622859679
0.300453300383436
0.293913508250075
0.296170384694596
0.297740557900298
0.293091878475997
0.291844205061242
0.300353327980189
0.3000407608247
0.296052395587314
0.293699268009479
0.304265000104615
0.304056678341554
0.308309039205053
0.309130919919329
0.31240389674155
0.316184973497264
0.317189080994305
0.309633929811184
0.319918333833126
0.323544015768215
0.32724374471721
0.327420515476523
0.332743744857919
0.32690892560334
0.332448089004987
0.329677416412229
0.3264326073954
0.33312114195311
0.331992509013546
0.332550921249685
0.342833956127314
0.340247871041593
0.341725625798428
0.345354628796986
0.346990291615993
0.343586340886565
0.353577405314714
0.35594726383621
0.367820116220057
0.365337247863757
0.374131495788548
0.384481849560312
0.401875611178714
0.411835027021147
0.414569720168946
0.41948687837903
0.432466241511839
0.433551589568093
0.443968648542013
0.450869660189898
0.446038626471627
0.436631581854246
0.43881561640641
0.433630916929901
0.424268418369066
0.419501804850672
0.427237137654675
0.412903358092758
0.411952845553533
0.418603252732591
0.41656527336385
0.418114563415575
0.4208005288376
0.417471234894359
0.413247484010102
0.423333270337203
0.429931222225298
0.425075130091994
0.426034223208994
0.419999228495305
0.431566730214768
0.423878295461813
0.415966730603703
0.420114612799156
0.425157121875149
0.409752483220802
0.419104265014072
0.407065290182811
0.415846088807029
0.416817302941466
0.409742847272187
0.409805298428529
0.408820701024366
0.416723908907719
0.420338764841944
0.413062750934902
0.419408819873072
0.414290707522046
0.426228348804159
0.418071678360641
0.423209607614781
0.418419799053198
0.421250462215099
0.418909669613284
0.422416561263509
0.417845050054962
0.425437671471202
0.425106196347336
0.426201476040093
0.421524800777356
0.432891602752945
0.410861208726648
0.423540428207524
0.430457956554713
0.436856688034439
0.434436720109182
0.425727972499803
0.426003529401711
0.422864688773476
0.418521201645679
0.435319403076676
0.434186293378477
0.431069394350044
0.427060810835481
0.439732998030911
0.432863237343932
0.443830480955334
0.449359007374891
0.442342699572724
0.453941552473668
0.444652908675674
0.454178409649033
0.447487275678519
0.446605630825716
0.459916338496449
0.455135954465426
0.457858959663112
0.447658744237331
0.461467196565621
0.457174455626589
0.483138686151475
0.490890585208358
0.484380342221334
0.473711219938324
0.490102889762897
0.4814523898443
0.485301549764363
0.483424043712764
0.487969324110501
0.480618585800852
0.513514396282215
0.496324943729954
0.524060442157707
0.498138330911319
0.519405148216461
0.512153327799805
0.544306576964597
0.515152114111712
0.543211358245596
0.533816685989704
0.569771942760794
0.538247725858226
0.555318125180811
0.559987429113257
0.606372836407736
0.596431988079948
0.619228465566007
0.610867882931859
0.64958152496374
0.62896054027317
0.665544134940486
0.655257501514923
0.665912369272498
0.663812824487951
0.677561057027258
0.668917815974698
0.707606825580179
0.677317972639113
0.688620747083373
0.672022650029792
0.648184122868145
0.676363719875356
0.669625498416496
0.670659062297353
0.666660089704834
0.658503742670959
0.676257188672886
0.660043248156824
0.732536841299514
0.683579680906565
0.695727965339264
0.672714334933945
0.689227949190033
0.706760817688299
0.709330304721498
0.684163559026684
0.698154265571431
0.666608072961811
0.696688578127109
0.653491892367859
0.664870959963007
0.68409103603107
0.695580014875723
0.668670011729973
0.684049030176971
0.6565703012191
0.696704879323002
0.674469791241312
0.730010590039992
0.629981347883111
0.710502342224295
0.650559951660227
0.701492993270905
0.671303736908741
0.742178469743595
0.690098539104661
0.665339051355005
0.641313238878329
0.771628615651181
0.696409177023705
0.705325639360869
0.666785473016511
0.747793914715579
0.654036982934421
0.72711215168285
0.680522042971774
0.712337331088919
0.724074585803951
0.712651329288757
0.656597346738793
0.716580345519553
0.683888698569385
0.732707545227574
0.67764205566954
0.778195908386594
0.67597197203311
0.797572468240506
0.734984523156174
0.795264858709348
0.716768460563957
0.813803064154001
0.774826811282383
0.725082996982798
0.68827558660759
0.804511279517582
0.814500592907332
0.721454751786716
0.721693249563745
0.856167732211655
0.785692322057565
0.789487620495688
0.844974569747097
0.849247279945111
0.864252517277841
0.936684476113302
0.841117265450846
0.793151762227011
0.803439892491946
0.938200776121643
0.830076285425127
0.760046500489895
0.796362429085317
0.860573323390613
0.749974737939826
0.83061259731267
0.884157771317195
1.02690463022706
0.819772947901357
0.971848320034718
0.857131164166411
1.1455285544062
0.851527760570384
0.881317906789718
0.758677285184638
0.751717674699925
0.706234975541291
1.01022431724134
0.695100128938047
0.858796871666204
0.794777485361529
1.02735720006661
1.02677070953307
0.853618044921492
0.909436336707634
0.942428130933121
0.686580463250501
0.903575143706984
0.879644795482648
0.810194173218949
0.780643214248736
0.850986956021026
0.626089579228811
1.07186413173122
0.689331212565864
1.2887456730104
0.573225816298457
0.827845609911359
0.724009931625038
0.883224193488612
0.938596252443304
0.538126909782366
0.545656611090279
5
0.754554512175571
5
0.799626900486623
0.779512287115463
0.786622290055392
0.767146391438072
0.833752190516429
0.721661443792613
0.569583173432792
1.40308978328125
0.992235011308447
1.15580979555205
1.44720412930966
5
2.629073912171
5
1.07596757484991
5
