3596
4000.36533379555
650.420452594757
1
2
2
0.0550395217811439
0.0374129811680455
0.0488767621551126
0.0362801660339256
0.0489685293010932
0.0428870081892713
0.0478609846960396
0.0331006058827489
0.0486089664625988
0.0402633986343266
0.0467235841268128
0.036280163482909
0.039287747819463
0.0337599497582153
0.0521024555751473
0.0332581584888243
0.0501390851514411
0.0344602896466938
0.0488787831583901
0.0331871356627593
0.0453217720111904
0.034552921200472
0.0452817706239255
0.0373412129072779
0.0514526959294057
0.0325080544884539
0.043028550304526
0.0347216050183454
0.0450634199230186
0.0411272526130923
0.047181194130488
0.0309441994977772
0.0417077243937574
0.0348311609990886
0.0464728814208554
0.0353610407013209
0.0438176029561896
0.0339309487386658
0.0423171006907296
0.0344942074374094
0.0513504207216988
0.0276064098309937
0.05062941532766
0.0369408976662957
0.0456030076160665
0.0367320195777114
0.044814007283565
0.0349745539270527
0.0474020278477497
0.0348651106135521
0.0515088181103492
0.0317482261019319
0.0489238988853568
0.0358512669289982
0.0410642811277714
0.0442607667132662
0.0525396250320567
0.0288570304361426
0.0409553027861453
0.0311397159545023
0.0533433559350007
0.0436689344524611
0.0434894186724744
0.0349310530801026
0.0431390956209269
0.0291984054697764
0.0419114667448923
0.0402671810529015
0.0445390339616853
0.0353443903053357
0.039786781503991
0.0392698993883399
0.052754095996726
0.0328690907391115
0.0450391094480206
0.0358585090619769
0.0450309980538246
0.0349917251473143
0.0363151662128418
0.0285200444096878
0.0479584280740881
0.0341253390458711
0.0447099831076027
0.0300201274346942
0.0397500170330494
0.0488989160714914
0.038436544087648
0.0317767440405498
0.050086842413058
0.0388129971420308
0.0401902250091122
0.0351393705694937
0.0394411636295224
0.0372217203748909
0.0476288566362334
0.0302670500585108
0.0377638553654596
0.0316217919393319
0.0405269993092773
0.0388187354911223
0.0381053444288927
0.0224085921695126
0.0602021372036231
0.0258298650782467
0.0713938104152291
0.0411118570977385
0.0322204390266876
0.0407102069677239
0.050462228483835
0.0352097114286833
0.0383776681943835
0.0362514407179532
0.0412642414558449
0.0408261252984412
0.0344716679882718
0.0394507531755407
0.0527660657046781
0.0406384368726655
0.0435115738662984
0.0420542131847332
0.0291514303228205
0.0425537819957618
0.0553907387319091
0.0428804481970295
0.0536793463899762
0.0336970603602494
0.0363410718292575
0.0449602007877511
0.0472835599960375
0.0336877476046112
0.0427930011002431
0.0366469369382737
0.0321148617876475
0.0234525787711325
0.0621968710926481
0.0337239634873634
0.0441069769684674
0.0166950962155615
0.0415890314142791
0.0564736448536181
0.0460144510382349
0.0334903559562214
0.028188235760442
0.0261456406432762
0.0664767607979593
0.0445106897397978
0.0345567541968674
0.0367849981907451
0.0505612371455605
0.0350711879234415
0.03961559760071
0.0221690258261114
0.04871773869016
0.0323705590610533
0.0089077156009754
0.0420930755584977
0.0674784690805029
0.0257470166908558
0.0754782409014163
0.0422852365370016
0.0487499248467172
0.0295683764387523
0.0372345531873759
0.0301066030217063
0.0447195477261141
0.0264389666926932
0.0387698947082293
0.0486593865483078
0.0438680957766859
0.0224280335491796
0.0540713291603535
0.0366991925580869
0.0322471620591033
0.0539269177393899
0.0491923505612335
0.0240605390482904
0.0524112962682465
0.0441496474445533
0.0333155256963785
0.0309563812098484
0.0582638458744927
0.034623544802302
0.0414146980874565
0.0280658972611237
0.0434103509835605
0.0383962921927758
0.0385789227871274
0.0334208434992137
0.0476632115978503
0.0198698792849153
0.0339845818495389
0.0490188195930308
0.0539634612528586
0.0391012557216237
0.0425844461182001
0.0144641830237321
0.0575089703739197
0.0500992575442263
0.0458335522338181
0.0390984402471346
0.0419994181889584
0.0292023247367375
0.0370866772285843
0.0370876082141272
0.0329995505775693
0.0130052138264521
0.0600565127208886
0.0361095283899995
0.0453812916818011
0.0341841518229103
0.0408728126472715
0.0131290073428036
0.0597079855635093
0.0501168086027142
0.0459222858001672
0.0351119206670642
0.0314256209783483
0.0395816426424376
0.0552150279300013
0.0425518620708352
0.0437544250127924
0.0324424743246121
0.0450975158291811
0.0265234817077968
0.0357289171772627
0.0332750913086649
0.0432439798010614
0.0327853583665469
0.03893972761727
0.0347936054531088
0.0446230374168174
0.0349899688734695
0.0454921788947267
0.0373390744553327
0.035935410174224
0.0307062470992927
0.0580199986611117
0.0410956632829403
0.0430865662054234
0.0321533703221459
0.0439472510768394
0.0355539490841081
0.0425455187961024
0.0384800549111788
0.038030071457028
0.0224503190809543
0.0563524214531843
0.0414242193060687
0.044485189207766
0.0241310975216927
0.0593609288095761
0.0373436542749816
0.0495278737549644
0.031515587264238
0.0461469801836136
0.0247149068132701
0.0459664983772928
0.048543380127149
0.0506188074148252
0.0326661644960089
0.0526509264812528
0.0407950800620073
0.0480667408160912
0.0286015043743436
0.0303297990050909
0.0787510054389703
0.0461754641654574
0.0192468448775825
0.0770395345338688
0.0449020941895383
0.0518693260892258
0.0253049953442451
0.0246716790462355
0.0826311078879842
0.0800472899823369
0.0375417722152419
0.0510470098607786
0.046770217766438
0.0476861819380922
0.0383398752637007
0.0435498038499154
0.0407280053243676
0.0438382301126732
0.0606111694181268
0.078173064015719
0.0209520977916359
0.0656020344910824
0.0576873739772381
0.0534781743633388
0.0381886869364545
0.0480926156024169
0.0362834581357608
0.0659886303549022
0.0499028242956853
0.065429283460939
0.038492881427698
0.0476818121027246
0.0553961172319341
0.0595013579887793
0.04149261178735
0.0569700998883219
0.0493144221506152
0.0513281129030026
0.0487941527262112
0.0506848484085065
0.0514450929578981
0.0460841537749752
0.0358429890597463
0.084839441772551
0.0490039379086953
0.0534949514201217
0.0567327731590048
0.0635069044102801
0.0524464326536495
0.0579218081370389
0.0462634581843488
0.0579194893931521
0.0449581498916031
0.0501183497285198
0.0630165873650363
0.0629708222838547
0.0515991515642916
0.0553399239461637
0.0460159904356744
0.05857127925965
0.053415247552469
0.0625720580695829
0.0593548390916067
0.0639898694825217
0.0448630215098032
0.0785295666412666
0.0676114562656229
0.0462151700265155
0.0719652723886857
0.0830354803064676
0.0594941060770464
0.067818731878183
0.0618440459100069
0.0672972618908243
0.0617533834056721
0.0748955929478605
0.0633866187409579
0.0688682675172742
0.0737931529793557
0.0874019118060983
0.0623968319814302
0.0646081289719778
0.074033561767506
0.109320346122584
0.0784952575872611
0.0769514220208474
0.0559531959752762
0.100059201513202
0.0845410967733368
0.101810533229497
0.0891592142088432
0.0878667072634874
0.0906337528520651
0.0912546074744266
0.082229024956276
0.0947464722181486
0.0880148392950427
0.0961131822553028
0.0899906785287186
0.103618423704852
0.0965570295425717
0.0896313973440348
0.0898472833857325
0.123475098112861
0.10501401863435
0.106085557540447
0.102694315415192
0.103134832235698
0.111203725405937
0.116066317941048
0.122025217279518
0.125585223360574
0.129628867092643
0.136750601263123
0.114986971788002
0.124418543109721
0.118360292750085
0.128047691072854
0.121851245144775
0.136662236858454
0.125104614548609
0.136686307977198
0.125057215860905
0.146354782815181
0.140697886411146
0.146003923919403
0.127772990633525
0.148539483461337
0.1428574081271
0.156054285925607
0.136310932517509
0.161668849280796
0.15622372145793
0.193487723886944
0.165349162409437
0.170351784610817
0.153315120071599
0.169006504845347
0.166479113718796
0.180123490355331
0.174454762881476
0.177230937694564
0.189078702435249
0.18999812671501
0.18707700666097
0.194889438766944
0.174783532221301
0.204316814043121
0.199007339213318
0.195379373116181
0.197601647292801
0.217635564447348
0.186282620600086
0.220462990007691
0.213780629512282
0.225736377497459
0.22098617181959
0.235158329060342
0.204310639622573
0.227474011930384
0.226530003642374
0.226655512831971
0.230542596989099
0.251691002064716
0.227682805045505
0.245979111181104
0.236740468001443
0.253486385719119
0.250338905327644
0.248017582775443
0.24127939741924
0.259974794984814
0.258505722655429
0.270086904580479
0.251592528499258
0.29543241076879
0.269770441559933
0.296549056436663
0.276559777756903
0.285984266929729
0.271472785801014
0.299593460581644
0.287982105616792
0.308376168738587
0.297008037288227
0.309801623145919
0.29128844145677
0.321178460561789
0.301535963595984
0.329643285210059
0.315982938896169
0.330218842452743
0.319380689108832
0.336609602404892
0.328964549525627
0.343502840429107
0.325415358480651
0.35734348601982
0.348454300933372
0.375834166529959
0.349906923574597
0.371206115758846
0.361480048269586
0.37537546627997
0.363165651848792
0.384048010057181
0.366179703898622
0.397448872584577
0.365422308693749
0.395356983561837
0.377475112219306
0.403118515920513
0.368043180745169
0.411163601396482
0.40567223727814
0.415320425191553
0.402510606234378
0.437162845733974
0.423378088599723
0.443137556765941
0.407275268483708
0.439864216149242
0.418679105235608
0.463032055005915
0.44066945180854
0.45489907975168
0.44193693646215
0.456474981634626
0.442807138482814
0.485797263530879
0.453086371478054
0.478814155867459
0.489112742587272
0.496908695411308
0.474771346814024
0.487572907765876
0.477255081339838
0.505691956081532
0.481535136526293
0.523499983067546
0.495215996034018
0.528458280687473
0.496236321790514
0.534079008896593
0.498786631062359
0.541405375783316
0.53882380675301
0.552477305619911
0.543534094568878
0.568887143253482
0.532912837490431
0.564312282654056
0.54007466877676
0.560695705661424
0.540204822686836
0.591783003985438
0.539390378917601
0.59239283721344
0.550039734200287
0.592948369182237
0.592216839303926
0.617610697833769
0.580446719108669
0.624845658747012
0.57156323401338
0.622789703796788
0.589664423326436
0.62557366644337
0.605208356300665
0.647415313664009
0.605318525865174
0.666608233474382
0.610941571565599
0.627317725969949
0.652195888360014
0.676453803343716
0.623604119105971
0.665434575944534
0.647442212603321
0.685123282839497
0.664130152241255
0.715729069119607
0.677464264009132
0.701050989569948
0.644672342631299
0.746139798157163
0.679196963118266
0.702732991192247
0.68928249090991
0.726046044354999
0.706571134195417
0.744782828174972
0.685169632610068
0.749227493982651
0.697407486268729
0.763786523993865
0.701916248241509
0.756893323572398
0.72650246545627
0.743456270477604
0.728906673743963
0.757357063538164
0.709899872949573
0.752044102996787
0.735974403871481
0.797118615690673
0.762427506011648
0.848372098614171
0.768466289035578
0.808859875963829
0.778341863982227
0.786862645843036
0.767375757814159
0.795517351082166
0.804897702600028
0.870532813189863
0.77777004817454
0.879350776595888
0.785399909329097
0.835500606034357
0.813051293288285
0.822055292706952
0.841057381899106
0.874936427207828
0.828809300874291
0.858047544165428
0.816306314863819
0.899421758712573
0.847784222352105
0.847302395079199
0.844531368125153
0.86996578083234
0.892576623344817
0.894903248840283
0.850465508530677
0.865275719731163
0.858943409384282
0.90575741151061
0.889983518351775
0.927732814328165
0.857208752744948
0.951543280680864
0.926586756607487
0.958191413732433
0.865865846757666
0.894903547715749
0.940500659361202
0.944231887274747
0.922310056552663
0.954402220313183
0.933052602604747
0.959389371835652
0.95169700026976
0.991774135572417
0.917112714637584
0.972190442169633
0.930757312210014
0.994452097077063
0.923831345839163
0.985775042036888
0.975910098826322
0.983234139779622
0.971166356133841
0.99711776567457
0.968544235538998
1.07059544440112
0.990851213963057
1.02175801707251
0.946562636641454
1.0790690523676
0.990474048608529
1.03366179890106
0.963738078169004
1.00625610767921
0.968757156579234
1.00486540781239
0.980951641588573
1.02522727274661
0.985418844744615
1.06215641160562
1.00924396403745
1.12408301668478
1.02111648247495
1.07408630645322
1.00150665876804
1.03343138182259
0.978416621135698
1.06008758752581
1.03133385671067
1.08019969952553
1.08333430488719
1.08025743585912
1.02638135111497
1.18651644994099
1.05325165998523
1.17861803854
1.07823725983706
1.13571774665955
1.07819010488284
1.0912237528183
1.08746481170447
1.12350043397548
1.08293804158443
1.16361333894877
1.07337383754555
1.14359006346228
1.05700641427913
1.11995670638227
1.08293406745259
1.09699834492322
1.07020038431638
1.08591317515728
1.03776742308713
1.17472587751919
1.08214268836955
1.24105585109432
1.13130404585126
1.1525076921224
1.06409297310496
1.18959871290925
1.12262220298196
1.11911647691879
1.12452105029372
1.18732651955578
1.07328733602287
1.22738331585654
1.1726060117702
1.1300914629147
1.10534181419854
1.16561374284929
1.15874376679768
1.11693411541165
1.15109447762001
1.12419975576918
1.14593630079231
1.12236568836226
1.11712552128822
1.21900010749678
1.11964501946708
1.22469118555059
1.21083917253979
1.20479006728024
1.10794287996217
1.19633261524945
1.14230050822617
1.25560193835489
1.12355994863489
1.17285819410812
1.11883046201667
1.23965678352892
1.09375457666649
1.27072393112516
1.12811317411493
1.19160626832824
1.13221672018977
1.18833077030243
1.08844893801435
1.14794785317058
1.18567924423094
1.19625151142508
1.1604674459658
1.19704332922701
1.18252590792236
1.18741756522035
1.1670035482771
1.25142084928526
1.10867148775578
1.19510607549419
1.17607350423203
1.23835509408387
1.1371591206698
1.27014361413483
1.16239000864468
1.15227586253072
1.14519030589701
1.17252139001423
1.13743216525595
1.20586222691564
1.11098191992992
1.20248847803439
1.1021414770664
1.18916236815905
1.17187840686626
1.18724315388525
1.14324684864029
1.19648735063304
1.13508015084543
1.26951583509256
1.17934624033673
1.19907813714263
1.18527804787253
1.18455829300863
1.16344742839035
1.25540304724549
1.14797783048168
1.23287227814649
1.16447814584611
1.22289778363767
1.16548307109539
1.23619864513771
1.20419811395193
1.2150408748242
1.1719208466102
1.20101028737985
1.20591192896217
1.13429919250467
1.11556651512168
1.2392664264342
1.13285366687509
1.21288313437576
1.19538346959978
1.17382248933261
1.1680932955621
1.17711751100249
1.18676049263266
1.19775317270084
1.13677998957599
1.19883333888271
1.13942599163413
1.25986617371951
1.15932199253166
1.22566478444814
1.13125003049857
1.18354729833991
1.13192469706639
1.15438719089431
1.111259042036
1.17828781988826
1.14330573555957
1.25290299009372
1.14101281352943
1.17305489490792
1.17241971648262
1.18079011657424
1.14438220007984
1.19847866687257
1.15668012983034
1.14496927305729
1.13317328497449
1.13943924798286
1.11148412539952
1.1870968357249
1.11981389560387
1.15868787309456
1.12700261539269
1.17255047332665
1.13768199878615
1.14247428470455
1.10706388740953
1.21743892441389
1.15051404058382
1.15465343524172
1.12984327021745
1.15166466284312
1.12551866088654
1.15434271171107
1.0761982662051
1.15183168762095
1.14004233916544
1.13740303257303
1.10578460828587
1.20844321061511
1.0925964950504
1.1423399050615
1.10163305155977
1.12734368609308
1.11028821296661
1.16392170112989
1.07272529527481
1.12238851671355
1.06827065091195
1.14544246465432
1.0864267036336
1.11462964499238
1.10909056472388
1.10048941731872
1.07666870378808
1.05704945027552
1.08762316873357
1.11939460074859
1.03603169437753
1.0637294791246
1.02631638620965
1.13103870765535
1.06763955560306
1.07299494952541
1.07251159715263
1.07885358466797
1.05502591421305
1.12138107235121
1.06460906269749
1.11294216928311
1.0050969491821
1.04878079287849
1.07020786567581
1.05886624060514
1.02306664099065
1.03258493926643
1.01539867112626
1.04268204932845
1.00817299370641
1.04349916101885
1.00877369088872
0.991303556994507
0.984881087783085
1.04692286855852
0.99474755715775
1.01737664595689
0.996694796381053
1.02159310368088
0.97032478407267
0.99353155494187
0.974005169447599
0.95025534616343
0.936353401662007
0.967682207709203
0.954028588199969
0.966535512087564
0.913660354864633
0.958102158309606
0.946951960091098
0.977782291699607
0.934713758250834
0.980805207826445
0.933404848671667
0.953772850967014
0.905866972300565
0.941545813672388
0.901920636044548
0.930998260856972
0.887459263948352
0.912539345304859
0.875314518399371
0.911812483859977
0.889290561658547
0.904149743894887
0.884199885168572
0.910787112108212
0.869471862513969
0.891224801166939
0.8614584350712
0.894097206652282
0.850931566638817
0.874353340899297
0.867599237459139
0.887091956833512
0.844565881476509
0.866329946785946
0.842013771692454
0.854020517360074
0.84231953888358
0.849348642748243
0.8047252484463
0.859735305223361
0.818025837977665
0.842590213905088
0.808155738057105
0.82627344788017
0.794221841773188
0.811287441660723
0.802406321085677
0.813989232318033
0.791337138487905
0.795266432574465
0.766874034314673
0.794520596848477
0.782681230640332
0.799897751939894
0.775768670830406
0.793913480575761
0.770758313900938
0.77545407602749
0.73865797766097
0.764297698690869
0.757794767261357
0.753551486496038
0.721025270065283
0.744547386960773
0.718114994022682
0.72271715417187
0.701791886448473
0.727090284750441
0.707965200831547
0.729319068821772
0.699427910572153
0.720710835242351
0.700968666712237
0.72008664285932
0.69293758924205
0.71410335188724
0.682650180626324
0.694834527444367
0.681907218186375
0.690782849259974
0.665731050590986
0.681765214870902
0.66369064006326
0.679203706715642
0.656668258387201
0.663253017208525
0.649561857070563
0.673525649056443
0.648414326926004
0.64792715362949
0.632891839914105
0.645466041668035
0.624177258703617
0.649233326498305
0.633142433128147
0.638229857635718
0.61649812261653
0.635282402794713
0.618452950721372
0.626337081290298
0.603552999910516
0.618091148371229
0.60686057991657
0.596317582726483
0.594535734047906
0.610009270206398
0.587589846397031
0.596527185306591
0.582612776254869
0.591400923905368
0.582130221493177
0.588762248021861
0.586317662870123
0.585529910616287
0.567931494750217
0.572732178370434
0.564613154595043
0.572478089746337
0.562516621169347
0.556808428282426
0.544658142292412
0.555665129071147
0.544779889176808
0.548088515086309
0.537580805136462
0.548357086133451
0.541707556522991
0.53730836801155
0.527708620463011
0.539040836226369
0.522346046938129
0.530672970320506
0.515835601054289
0.523510603593841
0.515916126187442
0.522775304582102
0.510282381039955
0.515668303904274
0.499853233768628
0.514526698001137
0.488942464895052
0.504074385771497
0.498530781926212
0.501748714034136
0.49128050505351
0.494184788489928
0.483078782150022
0.494086436472323
0.477132920866318
0.487771515103754
0.480338988842636
0.481516538863244
0.467434368323193
0.472426173605277
0.469791329486541
0.468998707238113
0.450535281403525
0.460629273388616
0.450224672507572
0.462759476713395
0.461671486123136
0.449323721199764
0.445182193373887
0.455759677114006
0.431144163671651
0.444271224316139
0.435720943877331
0.445517437045849
0.429502749325805
0.43706010856149
0.426007915095044
0.436339646772207
0.427337630913374
0.433416980000603
0.421721433857791
0.426376829053954
0.41431986865719
0.424473372208496
0.414572440325518
0.42040605764146
0.404177977218091
0.410340801898455
0.401669948595612
0.411409347252449
0.401435008423321
0.407241567624476
0.399447824772463
0.403081904131805
0.397116153304635
0.402380811009001
0.391163118342928
0.397693855381624
0.384602488972553
0.394678368031011
0.388628964212194
0.385359324840612
0.387397788763165
0.396476098983889
0.382196182299757
0.386110261065174
0.378252193631912
0.388224833095154
0.378065812460007
0.388895765204543
0.386817287545538
0.391326096475937
0.380970450651723
0.392633372775504
0.378494401663069
0.387432491278575
0.380550937146795
0.395949111812739
0.384288346797586
0.389759885183039
0.378745604195451
0.392374256722884
0.385568454855135
0.394199260639232
0.382789741213684
0.388491511547201
0.388760892851597
0.403214780788151
0.388650301532203
0.401206833837404
0.397668618295895
0.400035333279049
0.403612076475883
0.400156962652247
0.391973307319251
0.412349517786046
0.407501962657505
0.407465778049498
0.401814058751725
0.408317538349617
0.407405731999953
0.420487793435793
0.406554648321114
0.419073403216179
0.39903883354482
0.411072407731829
0.416844327860989
0.425048951192214
0.426168367027607
0.426831246965018
0.41787481752561
0.432532201450355
0.427056837491869
0.442226258716621
0.434406257570322
0.443065103111128
0.433972702225236
0.448118036893658
0.442831128987528
0.45110244099368
0.452047520123868
0.459320853122074
0.45666418345768
0.461827087933051
0.465649413687584
0.46657582473865
0.464136710956626
0.47370559698665
0.465593806614733
0.480516665385329
0.47918249411269
0.487793010813524
0.479314724475118
0.492759211920956
0.484503127219525
0.497143923742707
0.478095030360271
0.491211907089446
0.483845307256451
0.49407349646245
0.484161306435337
0.497038540444371
0.482490141426956
0.497820643543249
0.47743166665939
0.489264193318375
0.484912344045914
0.490329204159392
0.480547533263372
0.483900613223186
0.480979033784486
0.48338578604459
0.469693157756406
0.480353550602926
0.473288960200673
0.484558850911262
0.472745218166433
0.480240240294614
0.471137496395859
0.485526734220303
0.478361067121319
0.483193910398939
0.475158396512489
0.478585884894324
0.475638178462356
0.47900566883268
0.470072564727421
0.479549614665429
0.474189324063635
0.475078929782552
0.474201617791591
0.488691006338764
0.476312304656927
0.483047401897529
0.476674328817486
0.4878489675489
0.469387024085689
0.484025560350561
0.479303207650852
0.479354332281782
0.472117667938402
0.483945450574859
0.470242099428592
0.479012519485485
0.466760241298436
0.474607062127919
0.47590296078925
0.471478055709569
0.474315525204661
0.47678147059115
0.46281748143061
0.483333096691205
0.464321130028293
0.471752663540156
0.460895568856959
0.468493857448716
0.462607868469096
0.467955718111459
0.453789592778914
0.455203355636438
0.448260334570002
0.455523788525678
0.446171062493313
0.455103217103379
0.448201710290283
0.448639023203123
0.43950530599018
0.439926770298634
0.434715745345934
0.432853322251815
0.423711276650189
0.431670506769316
0.41682138991184
0.41812553033919
0.413694596568068
0.417220571205431
0.404134198065134
0.403574604328212
0.402716735089995
0.40804094341955
0.397241807483901
0.39379624747708
0.384878253499215
0.397202837122211
0.386888153364282
0.389192254822366
0.378527338808518
0.386634412900198
0.370974341117912
0.375267893151794
0.369163637120286
0.378388794138366
0.363776746502026
0.363948333356567
0.359380405862107
0.361719407676811
0.352667759931639
0.360004198250317
0.352983317261945
0.359137949691204
0.343668070519054
0.35002318502028
0.34295444622167
0.347746281764226
0.340849113586544
0.348317998459709
0.340388252398137
0.341326820081108
0.33775632698948
0.338019825644586
0.334393479448807
0.335745152024795
0.324581411006458
0.329021101580416
0.328235425853973
0.328241783725775
0.322748809664551
0.327991986004094
0.321677133447378
0.32515114244134
0.318886719429776
0.323270135165791
0.309342446509267
0.315198309410592
0.307268888044894
0.312986636476662
0.306247030638032
0.309636864848675
0.30431841783456
0.306193877274637
0.300423676805967
0.306146232898538
0.299702568464344
0.302759216217598
0.294061883349779
0.304812300561224
0.292294259309887
0.298756797860665
0.292681932972061
0.299091651711722
0.291858523532422
0.295201302409613
0.286914222268174
0.295044917162786
0.293671071017456
0.287526164237418
0.278742378606853
0.292418291630262
0.285529077617218
0.286454357008027
0.28495344723458
0.283156226813358
0.283073229797907
0.285860808049847
0.278527011361521
0.281996826411444
0.273542229302497
0.277747954756661
0.275640100003969
0.278124385707002
0.274518502032237
0.273924749531302
0.269174658001571
0.273996562673508
0.270546801441235
0.270317806182789
0.265308862920563
0.271788032504113
0.265969354474829
0.266731280107971
0.266770655322937
0.265103299453968
0.260586419694235
0.269071324991473
0.259454249614079
0.264089680962315
0.256987764785603
0.262166900774125
0.257814364307872
0.260585897744955
0.257663391071989
0.259152453378229
0.256244659653692
0.264376219148198
0.255179842974286
0.262962205630488
0.256453331974507
0.252751404719021
0.249781468883252
0.250339968789596
0.252817933669416
0.25594801360009
0.244505801235585
0.25054155738288
0.252379025219782
0.250998628778937
0.247577249194736
0.252989443258781
0.246305974340673
0.244455114904789
0.243328633709621
0.249942424924686
0.24438601722055
0.247342853300404
0.245594726010262
0.249508683104693
0.240569208733888
0.248533617459971
0.241043807235093
0.247391072557884
0.24396303350111
0.244483887109741
0.237800911926068
0.243101994388238
0.237069120172352
0.237017285149054
0.239558391707403
0.242416047626384
0.233563684142872
0.240650103952013
0.236329591218188
0.240075346275883
0.239277320637731
0.235288058705346
0.22863017683804
0.234048846184838
0.23541433883571
0.236909613773657
0.232823661604809
0.23463154367555
0.229697856758769
0.231959660249815
0.230106671022502
0.234897016642303
0.229288230483724
0.232816641843545
0.227894842728112
0.232972527290243
0.228158072777202
0.229643881197105
0.224123000470742
0.231325839294877
0.225169837809983
0.227045789219435
0.221954375878838
0.223504466580474
0.218595997142362
0.227127499889975
0.219895554842448
0.218193138529508
0.216932423449901
0.220702984032375
0.217163126649855
0.221402832101599
0.214257149056015
0.214229533300636
0.211733328388871
0.217619624134126
0.213476462922116
0.216696466616265
0.210740364415397
0.212961731736667
0.207616262918583
0.213383525978249
0.205723676987526
0.212521213738997
0.207600230066221
0.211516622698113
0.204867394219999
0.207430180010224
0.203286258675957
0.205506243468102
0.200856867023808
0.20676983807714
0.203375035999827
0.204945809197983
0.197223974519025
0.204429030698794
0.199026785889342
0.197593779565823
0.1962703008223
0.201869345309313
0.196202285797106
0.197145433831929
0.194420413389149
0.19574114464861
0.192200017048019
0.194534264374759
0.190146619585548
0.188995991270187
0.186655106371416
0.19148540133193
0.187775896702685
0.18934058975277
0.181687458221485
0.186822914860219
0.179725366011119
0.185475313125775
0.181021347558921
0.183557369804391
0.179444836653012
0.185320915001246
0.178557054042547
0.177611693691036
0.177970915034873
0.179215457944723
0.17313653498204
0.17692992292797
0.175344810286697
0.177947866558942
0.168420207521322
0.175688036494359
0.168057204898794
0.174398435634771
0.166913635702163
0.170549116670132
0.163830386762745
0.166505746167146
0.16525356628805
0.168302278827728
0.162456123754874
0.165160514376796
0.164386627320578
0.164840437908317
0.158717012779035
0.160461884924234
0.155723377962573
0.163326877852041
0.158466731497328
0.162599715631924
0.158694141567789
0.159549459566477
0.156007452882889
0.159596900709228
0.15595661161876
0.159470618841431
0.157664693428194
0.158353353700019
0.155505880773453
0.156353796163536
0.151228509857515
0.151854584273124
0.150682648200625
0.152637805788855
0.147661130105732
0.148193277196818
0.149448259803852
0.149973795276892
0.147776010462002
0.149052277171068
0.148756602972156
0.148164965294646
0.147365367301597
0.147788856877361
0.145129748170655
0.147505264894347
0.141500436750205
0.145170289862808
0.143884549045613
0.146508996685678
0.141322556264162
0.144513545658803
0.140169463597073
0.144920182723917
0.141753706933971
0.14587389111929
0.137852381552349
0.137294350481617
0.140230261121007
0.144240814067932
0.137587804461931
0.140145611097013
0.133860412238676
0.141520691318517
0.135800118879874
0.138046688419398
0.138359600412361
0.137066386299735
0.135228120114066
0.136267335493991
0.134317181206774
0.135921430008087
0.13590523621762
0.136979726844171
0.133843628450744
0.136559391284479
0.133289727953375
0.130946291877181
0.129651576055372
0.133288332397649
0.130681309026644
0.131461602829823
0.131330240179306
0.133307536009275
0.126420561123877
0.130940434902299
0.129214972757405
0.131239941373028
0.130735929454628
0.130124982594557
0.125579982863916
0.133029414953995
0.128659670391587
0.129382125243671
0.128823486158406
0.131273673110847
0.129433035857502
0.130015861000221
0.127013658396473
0.128771879617365
0.125023505671837
0.130024485141702
0.124546232950953
0.127027369678118
0.125894904249279
0.128653029019372
0.125506410798238
0.12441820728642
0.125851620670328
0.128305358741018
0.123783465253246
0.125509673092327
0.123017029815911
0.125429082173123
0.120912688049303
0.123033758431029
0.120704321370575
0.12388251435709
0.119703589692482
0.119503369445179
0.118523399630136
0.120607449415961
0.120185676728774
0.121762074133439
0.116996944273373
0.119072782794463
0.119003733060664
0.121041030452454
0.117014912371108
0.117567186536272
0.115011228992804
0.117985489361239
0.117480748186208
0.118656943767978
0.116186178512756
0.117817580526953
0.116594318110915
0.117282506817516
0.115578765918195
0.118147900442578
0.115375607486427
0.113958294731939
0.112649309448936
0.114782303028759
0.115903772722121
0.116388613110204
0.111698051227269
0.115220457034697
0.113584848802074
0.113288985908877
0.113266548698773
0.115147978585268
0.112873001254006
0.115452008358808
0.111819356413277
0.113142668201202
0.109329111486019
0.110822787488457
0.109616697817127
0.109740566730246
0.110525616059295
0.112390968344569
0.107474311916817
0.112043716827864
0.109610271171422
0.107697526076235
0.107342079326326
0.108925853423378
0.107458948302367
0.106643646872408
0.106739758937718
0.108904257035945
0.104597805070473
0.107843825318586
0.103430445232802
0.104626126535722
0.101235705106935
0.104477960259877
0.103623364198155
0.103623802614181
0.101323544185139
0.105332181588577
0.102405711209925
0.101536809533404
0.0999682792720148
0.104043317952633
0.0980576597612778
0.101893274910101
0.10011501765971
0.100668774727753
0.0968503511854075
0.100070288363747
0.0995559110079769
0.0988730305765551
0.0935387784830281
0.0980490325867686
0.0986237568196636
0.0979941607815504
0.0943868359432719
0.0993146565051217
0.0942367957275438
0.0981698691104827
0.0972140089178448
0.0961278976489007
0.0891673382361383
0.0974363577907327
0.0930156037661004
0.0965634925012519
0.0935653133973885
0.0939154508594037
0.0894964713547659
0.0918612950146714
0.0902462838111756
0.0924834721546832
0.089658668527288
0.0948942084177946
0.0903769284961915
0.093613895386979
0.0901138221696111
0.090199560721366
0.0872658808124258
0.0908433098414961
0.0881136154514093
0.0906766697065187
0.0886794146547182
0.0903517576664547
0.0858334178981561
0.0872241446399039
0.0875409994349487
0.0908348543206719
0.0870819652181943
0.0899456454612369
0.0854584956798979
0.0883089855454901
0.0844491250234304
0.0868650323031797
0.0854871325441552
0.0847586262934027
0.0845998683566041
0.0843448850802414
0.0851888553832753
0.0834514062426295
0.0819004635477493
0.0857567569007957
0.0825801570255533
0.0839949920904076
0.0800174462360752
0.083205289791953
0.0806029947535371
0.0828432145810041
0.0801976020691301
0.0835227173083312
0.0808784202477267
0.0814023595220828
0.0803824912841669
0.0810558362473225
0.0795117853036638
0.08203888893947
0.0795250938845384
0.0800338708886668
0.0793135041983679
0.0794385300209831
0.0795719260564173
0.0815444033944032
0.0795387857630002
0.0811443251623529
0.0776132989834818
0.0794413045303035
0.0789172302108658
0.083553745313696
0.078773071500996
0.0802723363087986
0.0759707514455982
0.0782153179818175
0.0779013199341018
0.0805599951117812
0.0749341634724091
0.0802705613614761
0.0794477934078494
0.0789093517632662
0.0739303248790717
0.0801445443914288
0.0748918637653173
0.0752684363906264
0.0736669570530013
0.0747600307675329
0.0724194659166292
0.0782397247805856
0.078740361065098
0.0832092647415664
0.0724810004557863
0.0758755639783773
0.0706730104120633
0.0827655191475841
0.0757389367443049
0.0748405664886074
0.0741323737463534
0.0774635849368526
0.0762684462775018
0.0773925278014145
0.0716343899345931
0.0792181217982544
0.0742039007650809
0.0806289005607335
0.0716000181786768
0.0804393867719897
0.0751888916374527
0.0797388152474739
0.0724946963311452
0.0781728311656617
0.0725758142407144
0.0780753737675279
0.0752655777695319
0.0724777420300742
0.0756868091525658
0.0762009547514768
0.0730445873371757
0.0759355937137107
0.0734576219978834
0.068950071405533
0.0725652556191526
0.0698870981378002
0.0714040710135901
0.0666508689275838
0.0763328775964972
0.0672693043468298
0.0869524009902368
0.0681133439474942
0.0839422319837784
0.0578986877039865
0.087427493159006
0.0571784061374271
0.097989501813036
0.0553764535041976
0.0890532051729614
0.0495814758960876
0.108125843457668
0.0506688641416279
0.0996642776060957
0.0443976866443599
0.105993295404624
0.0544811153466459
0.0940110969492719
0.0548915330858577
0.0909899639623754
0.0638061952912955
0.0798606353247044
0.0756418214743497
0.0713218885216034
0.0769955833392411
0.0699518176185553
0.077461770173875
0.0707247624131278
0.0803522046648268
0.0709184741271346
0.0748615498208936
0.0741167343002652
0.0706368727687938
0.0735254619564124
0.0730405959475484
0.0738322680682662
0.070540637263334
0.0745899881295079
0.0759750427353716
0.0706523310451062
0.0731230526312916
0.0715244851191066
0.0744406607315592
0.0713946508044951
0.0723980062560727
0.0730173572348573
0.0731755672120879
0.073230205896447
0.0732352565388736
0.0730042843597159
0.0728466269839248
0.0725751594147166
0.0735807802542064
0.0722842040172232
0.0738470061849567
0.0719215282270645
0.0730743394782194
0.0758410742335594
0.0733978059893988
0.0723024356191232
0.0765850201861254
0.0732394630044079
0.0743470850970341
0.073096554272314
0.0726587679276979
0.0721410275841141
0.0747412479358588
0.0738853985944422
0.0741508912094655
0.0726398518025068
0.0759170274550742
0.0753855289464645
0.0740148471520288
0.0762589718593365
0.0760542772426406
0.0739051255893613
0.074455472493068
0.0753353317883801
0.0738478664013679
0.074413655841469
0.0758587207973412
0.0747262083592588
0.0765257337390563
0.0749253187426027
0.0761826843846346
0.0738094249742018
0.0773525960510281
0.0757541900587557
0.0751406020618878
0.0754214299601207
0.0767103818077834
0.0733458779828323
0.0760370133380397
0.0753918720749274
0.0775122372756473
0.0757935599598508
0.0763128331833642
0.0755266858377222
0.0767887546554048
0.0756028214687903
0.0775690168655191
0.0762286898704876
0.0762785896962353
0.076859024549709
0.0793469903945522
0.0765786539482316
0.076483638132779
0.0743513398109953
0.076922470201827
0.0768664788419444
0.0762198995170569
0.0742119397026282
0.0775420770513811
0.0763873700388317
0.0797962053924558
0.0769217774932833
0.078772713934291
0.0760196282799232
0.079152002524659
0.077557949415084
0.0791436127754426
0.0776827842875584
0.079603786224773
0.077664566159764
0.0796777315836752
0.0817194734297257
0.0821739761938887
0.0775763619654439
0.079011490765227
0.0777027818329051
0.0790110284888141
0.0782932128847293
0.0807971788285128
0.081561237257002
0.0819356316202479
0.0818671158257639
0.0813972576768041
0.0817507098872668
0.0821495950070737
0.0802338918309163
0.0830295097125335
0.0786003931393578
0.0828711952832665
0.0814343199145401
0.0815320531615156
0.0809123117396128
0.0823350396972735
0.0814803722730547
0.0828304987032243
0.080145418622175
0.0844472608253696
0.0834192295722999
0.0828886592535767
0.0807127864276521
0.0837900116155534
0.0827961680923704
0.0831769544264869
0.0808404081885173
0.0822146603640654
0.0826230018945602
0.084123667650268
0.0829539542315489
0.0848674347478557
0.0839834014937331
0.0833550851455397
0.0827126383037848
0.0844689170394177
0.0817766676862759
0.0830075909175095
0.085204669448143
0.0869666433562198
0.0843042408053993
0.0879833969661863
0.0846606229355615
0.0837769580905311
0.0867593411838358
0.0851396435341073
0.0847548007242131
0.0844591348348441
0.0828124465504659
0.0873350861073537
0.0848956453727241
0.0883647290889713
0.0866639993979902
0.0875665834252215
0.0872286660977743
0.0867761862066525
0.0859904185626139
0.0866850403808828
0.0862042586554818
0.0871549526906724
0.0867883427364907
0.0884744431871839
0.0877545945725785
0.0880779751268524
0.0865629602102757
0.0888364185545143
0.0863766305999108
0.0893468006545633
0.0883677559619943
0.0891831730823814
0.0881866373390949
0.087042569636658
0.0883198751901177
0.0867645558087387
0.08449812170302
0.0869667506166656
0.0848321770759452
0.0862654054675643
0.0840108234437668
0.0859832446231317
0.0862312236293729
0.0864561862164494
0.0836327679216646
0.0856768225309741
0.0849143417654192
0.0866084245800391
0.0853565190011113
0.0868102848805082
0.0834046295933039
0.0852980990815432
0.0838851499040827
0.0860537235288378
0.0847988952816069
0.0854266907974852
0.0839048208404696
0.085220542364943
0.083743204318111
0.084532167823542
0.0832468773992988
0.0839864872149185
0.0843505737424549
0.0853362771817867
0.0842469086238092
0.084852679941058
0.0827916529094858
0.085126574729519
0.0849328190211713
0.0859534564002309
0.0835888156104665
0.084445964789087
0.0830353334907991
0.0809672328913481
0.081152097237762
0.0821473794569807
0.0831943692259985
0.0852920187330512
0.0838008582926771
0.0800306495883081
0.0796217001930516
0.0833227204645756
0.0820971358606406
0.0821412995580704
0.0813407638488739
0.0814428402983517
0.0802228400250228
0.0822506996082279
0.084409624408359
0.0833041574075485
0.0829483655541889
0.0810770786542605
0.0831909688726473
0.0814390939279784
0.0798094468681893
0.0826097138154926
0.0798163668663864
0.0813322359799432
0.0816611835260746
0.0813838027254439
0.0819286621064957
0.0808280820210405
0.0793680929949061
0.0785703486177821
0.0775172381355715
0.0822277816806553
0.0792744220118124
0.0824701237960862
0.0807596583777353
0.0788850772714651
0.0782288137376774
0.0803405726726971
0.0775172565480673
0.0786074748840434
0.0779632065341432
0.0793744900544583
0.0798134734256303
0.0811661373972282
0.0802675219443921
0.0797150059843236
0.0789804477396528
0.0799059614880226
0.0783000773782234
0.0797086314075556
0.0773820000887117
0.0798530678700786
0.0774260785982459
0.0766933093847817
0.0764363992815254
0.079273375469556
0.0803881187958229
0.0784773030678919
0.0767297020774657
0.0774871496086763
0.0764474869894298
0.0786539916432838
0.0778307508338698
0.0789295933323569
0.0750938864486053
0.076538138550074
0.0763318267800946
0.0760081096333953
0.0767562157936268
0.0771459219413833
0.07631684775451
0.075554806379036
0.0757334131743091
0.0759779610033418
0.0739791018215345
0.0772771052107453
0.0729411364983345
0.0735649120691148
0.0719414964275752
0.0750281318426097
0.0734466633970839
0.0738184799889938
0.071873204070221
0.0742653916170469
0.0730353998206727
0.0726101072634004
0.0718281243703096
0.0736841238869703
0.0721630610439646
0.0729762877601482
0.0728963650285491
0.0715645804483139
0.068090004542235
0.0713461792361036
0.0702177815802977
0.0717577431411065
0.0690839015748681
0.0720373953249125
0.0686917934997871
0.0708577821779509
0.0669996395108632
0.0692244668848756
0.0644813498016641
0.0700423884231893
0.0676410381062102
0.0697820947562421
0.0681198376304519
0.0696891112214755
0.0655522636955874
0.0668445139624563
0.0648398801395161
0.0674796897868074
0.067321991029415
0.067892793041876
0.0638048152655633
0.0663399733986912
0.0637376201841627
0.0667175025148527
0.0610571265026625
0.0662634838011852
0.0632705813243755
0.0674885718662098
0.060470268691099
0.0697582621857681
0.0677544923872399
0.0657835138366561
0.0635032934134483
0.0646454557747849
0.0626083517548139
0.0647985812509877
0.0635397846955918
0.0643187640131132
0.0619236101103775
0.0632077158569066
0.0631886241055974
0.0628359902073369
0.0627804478754201
0.0612810134270634
0.0610767420634511
0.0653466289803576
0.061724025072586
0.0645313397493158
0.063024734207259
0.0621069406415807
0.0616867851589742
0.0631061786037204
0.0589826611871929
0.0632247933204623
0.0626321732291688
0.0618813319266273
0.0629062733765093
0.0633473502744813
0.0628375136055531
0.061385330295019
0.063134909382684
0.0615899586797934
0.0611757511323421
0.0598774611832299
0.0578231177865849
0.0605402571140311
0.0611653955435108
0.0589508612089036
0.0596058858472222
0.0589767556759362
0.056759362174364
0.0566918740672348
0.0588394551518658
0.058223641866468
0.0590570130074794
0.0579908885593451
0.0599638953569099
0.0577358334048736
0.0601666100955522
0.0562684946938737
0.060846418255417
0.0553201244356927
0.0586243740894177
0.0623376188522051
0.0601838469910536
0.0595223779617018
0.0576159331371094
0.0566901341512748
0.0555635346006629
0.059363047879685
0.0568589330890296
0.0561983266353297
0.055698244323042
0.0559893893352687
0.0571384869188103
0.0582060828673638
0.0563049162713441
0.0559918118046322
0.0570890499642036
0.0569178865202493
0.055346476758892
0.0596096693837695
0.0555891581292934
0.0555998756476331
0.0615072937128107
0.0554860514604303
0.0569092152975693
0.0569435730672759
0.0523248660176116
0.0725841550338942
0.0556794768801251
0.0612669399018742
0.0527471931970475
0.0591652409501082
0.0536520201947898
0.0619470575757307
0.0495347056857378
0.0571986761242012
0.0546083633340379
0.0596197546138833
0.0573029637305996
0.0562523503670673
0.0535804461002888
0.0570045552003207
0.0549960348300947
0.0547572216849775
0.0527010211742719
0.0553973280650181
0.0559963354282001
0.0565847111552383
0.0522183426765137
0.0578328113747981
0.0514003180228162
0.0576411338921426
0.0535562667578874
0.05989955133967
0.0521192898809193
0.0596551882569051
0.0492731326182204
0.060167610694677
0.0566643400512067
0.059284455817534
0.0556108863770971
0.0555958278576599
0.0564664698462471
0.0570243456602961
0.0547579370663516
0.0539578460166048
0.0535352394352695
0.0540990505884788
0.0565866821537368
0.0552320742689495
0.0548167335803248
0.0540236210485827
0.0538746959737051
0.0545039400552576
0.0570877267335763
0.0534846492363046
0.054548971768162
0.0560472183934683
0.0507996405082744
0.0649736625841548
0.0534682357934977
0.0647652303408453
0.0546897955591591
0.0610472607878052
0.053898549078623
0.0587938132116954
0.0535143926785428
0.0587439759522924
0.0514799678282014
0.0557322831746118
0.0538003068430883
0.0578473644468668
0.0543393297650879
0.0556307027346188
0.0521367347347434
0.0562607407009024
0.0515745483308715
0.0557905545171109
0.0544420959070315
0.0562867804914076
0.0556236752811667
0.0541315532490188
0.0581987398253048
0.0568088212814542
0.058991441811478
0.0421143052897734
0.0773326063545579
0.055734313981818
0.0634257343328663
0.0542102331082684
0.0563153672783506
0.0534271284972252
0.0547859185374172
0.054355348332949
0.0577642563977853
0.0542239966227406
0.0582531725064801
0.0553329014544782
0.0586631307313809
0.0574980371255823
0.0511515018059903
0.0626599244101338
0.0671545038070355
0.0597783538759849
0.0624913326492064
0.0514242483625851
0.0641624641886915
0.0669738050753546
0.0597276155029199
0.0622974051680281
0.055849036732391
0.0634721717751083
0.0558546991422762
0.0600543957818128
0.0570746481192588
0.0640469201965834
0.055862439876014
0.0617237187689898
0.0557540431339148
0.0607552512186012
0.0592127123035756
0.0575735423292239
0.0604245202638475
0.0645688905147055
0.058935716109732
0.0632760011177413
0.0592577469400985
0.0616680983122705
0.0597118482229799
0.0637108994455183
0.0568463365434142
0.0664611695505958
0.0606954246753764
0.0616993651648529
0.0665650938326507
0.065073619697211
0.0596544312533935
0.0633833773530578
0.0587306563175424
0.0739124511784671
0.0497725797875795
0.0773125901586769
0.0598011262902212
0.0789829802431478
0.0670233382799855
0.0676210925898911
0.0643728269257349
0.0661174002974582
0.0609161175228499
0.0615372733485999
0.077331895006397
0.0639897175428604
0.0713646890421983
0.0559638261995108
0.0723123378570852
0.0627773140373041
0.0725325013631981
0.0627150246005454
0.0712687697725296
0.060366452783728
0.0790986921398347
0.0608090671847814
0.067297701364282
0.0744186134359484
0.0702192899010118
0.0910404382348789
0.0651566418632562
0.0725167173038717
0.0752630310239591
0.0696922867029541
0.0777576523055278
0.0683990226799782
0.0785777728659774
0.0610954638043341
0.0783709381654768
0.08612463398875
0.0742046533284164
0.0804815917699745
0.0699302276482626
0.0709499862235708
0.0863845851623929
0.0778295957387687
0.0797513682342758
0.0771034613176603
0.0804645670920187
0.0654585215971013
0.108138027656321
0.0717864449223917
0.0959636256497052
0.0777143884928993
0.0950601439056807
0.0824476030025232
0.0920502642606047
0.0797983551673746
0.0911502600569032
0.0913518916323702
0.0934223227718948
0.0748084254414392
0.101818042979704
0.0914405231546514
0.0969862931977785
0.0950675643691358
0.0882814179580874
0.0836748812257094
0.100693729180495
0.112140472524193
0.113974954756685
0.0955091047097493
0.0996640265462115
0.108000396596053
0.104301982084362
0.104416123531805
0.101844471002874
0.106880896354328
0.106637299740071
0.109909015273755
0.113484350619962
0.105223797874249
0.120171379987814
0.105503245361183
0.117347222840472
0.110471641042848
0.143958654421756
0.12818895815506
0.1250212216798
0.128412040071954
0.127365550673877
0.135291833370811
0.12560897192279
0.132228962038453
0.129535495806964
0.133666063081102
0.136180229185069
0.131622925899109
0.150697406751049
0.130970715401809
0.163633349451719
0.14603588119248
0.156967794313619
0.137119000928332
0.146974081051629
0.23420278022302
0.163197224746275
0.188480123735459
0.144504629629567
0.191758130476109
0.185384353952738
0.197242170884039
0.184551457785992
0.196081338118994
0.188078037842367
0.200672158923774
0.199410879882342
0.213751841816536
0.215684826676319
0.222974945402437
0.208253548038508
0.236797097000412
0.244918955160492
0.281153692488132
0.251069905173693
0.258848418049539
0.25986415698025
0.275163124371845
0.265389273487652
0.291974890424135
0.264120395939385
0.30910893088638
0.300228855105698
0.319336453821864
0.30203460612829
0.319470388885433
0.325847602526232
0.318629436527161
0.355762471768258
0.341169063266272
0.365592909880443
0.343826366338908
0.363384984571641
0.357806655998503
0.364464378493939
0.382213365009615
0.386331726441495
0.393654617510153
0.386653951400085
0.403107380917708
0.395541046093179
0.405654310034245
0.406402790888386
0.412492951979474
0.408240668557038
0.417161031888409
0.533929802217997
0.441484060913626
0.447598255340827
0.420151473274838
0.426626147806743
0.438808897439699
0.431916717312259
0.468591800189452
0.45413747446151
0.450028962530762
0.437718584993012
0.448668749520377
0.432974594920893
0.447384431989574
0.443835947023746
0.437818686914502
0.453282780046788
0.41821912772023
0.48586336006463
0.46045478581745
0.453608535756475
0.444723800998101
0.445272224522598
0.429158026291554
0.447591692440028
0.427080532699803
0.43846227207016
0.439188419224731
0.435965468321423
0.427601560960445
0.416304506110757
0.44311079073854
0.435121950826318
0.430464913191812
0.410523147554156
0.400306113131361
0.412958765120995
0.377529014699637
0.411508477855989
0.407181507809724
0.393657075596335
0.385010436676183
0.380696156296241
0.382097969687329
0.374491836962188
0.379437946095895
0.37332284162027
0.372769682002367
0.370977643173222
0.370371450318673
0.365170951028769
0.364158854190715
0.356402274423358
0.360062744350334
0.347521047704183
0.361336532549253
0.348852987337401
0.351101814060334
0.343555114260443
0.34984697981888
0.349456236865457
0.342696874037669
0.338667141004789
0.347661059504008
0.343105641213925
0.348798746320061
0.336837891140791
0.342674944662695
0.33343512024229
0.338647973920931
0.337494916722728
0.336740832616961
0.333863349221882
0.331481052406819
0.325275852406702
0.332376127802145
0.325934077923636
0.334854208217107
0.324041462470893
0.333952273742207
0.316973322554709
0.305061313034875
0.349440951390502
0.332136783704952
0.322860463684647
0.305705589968913
0.319301652569068
0.30803018935937
0.300288630468996
0.326827629581115
0.30942553399272
0.311460906970421
0.300374158112669
0.299965032079544
0.307061436867452
0.293252352705066
0.294953079953139
0.294291730095758
0.274455210683512
0.312181290351374
0.264300467525336
0.338976824844687
0.289972545731943
0.311862056357751
0.259724317254295
0.300899986182416
0.274793695392049
0.283126594446613
0.272295879540686
0.259309640257032
0.271517189732478
0.265779981212039
0.268850698508708
0.261253610971955
0.251963415894891
0.264420441976895
0.270127495834626
0.253860960799007
0.260105209801803
0.25341886139307
0.245341740126064
0.246844597510036
0.278900433967675
0.261601094326533
0.240122904882683
0.244472582760822
0.224663714231209
0.246251507642522
0.239822049866704
0.231190130278231
0.248589495099568
0.221635152441705
0.232309809980532
0.217745293519429
0.242405037714354
0.21411391077418
0.23223789588724
0.22579074261994
0.218554120501168
0.22317188148996
0.209280686202343
0.245592201694118
0.2311090898623
0.224384838459659
0.200117068902662
0.232517139995815
0.217369021110515
0.221467154832988
0.218137414771559
0.202756534692704
0.208239311463383
0.215018304482666
0.200399412521457
0.211125791746696
0.200356351136115
0.214596525817884
0.205085862545062
0.223919183224089
0.22878551945303
0.20812863323937
0.202865310298902
0.200421909988248
0.206630339825875
0.204389276739078
0.189594610061865
0.224718017901033
0.195149136063562
0.215858743379918
0.207620128795993
0.219318598128758
0.21376574572219
0.213676977521623
0.21043065870387
0.216709484356712
0.219477758894583
0.248531073923091
0.217778568075783
0.240086336806133
0.226518018552007
0.245147815458527
0.233812283770167
0.246376282107126
0.238713987182767
0.246475133260089
0.24974358370778
0.260415196040648
0.258537892395411
0.273106216991569
0.25637179628858
0.2946640622583
0.282884860488841
0.292466467328186
0.287591702600868
0.304109993806308
0.329054352201319
0.313507531527661
0.320100940567095
0.31668407406936
0.328090753189391
0.334468699060095
0.323920499857934
0.341744642972211
0.348070803637974
0.356803811287381
0.347041518563418
0.355505503883075
0.357584578255722
0.361948858159966
0.376901193166032
0.359469740913844
0.399006935261045
0.383867726116033
0.395562076020594
0.380156044448969
0.381222287012474
0.381901216183637
0.382730649116933
0.391233059784966
0.376860125511694
0.392687348797998
0.401985749472787
0.398622443658483
0.391471952838563
0.394293577876256
0.397316129578701
0.398021275737593
0.402319081830043
0.404298982298307
0.405686697282587
0.41612449801002
0.399397436543967
0.409834696674218
0.445914207863382
0.428532903212743
0.430384124291701
0.419743259161802
0.436590368067257
0.424067480983699
0.430914707707009
0.440745391125578
0.446746855899655
0.446619162709698
0.447199919359544
0.456414519586819
0.445568829369887
0.454369042769386
0.459952190833675
0.457605969592559
0.470498077151655
0.449152245036842
0.49082181452183
0.470700723656747
0.482384994333899
0.465013406912999
0.488287315158371
0.471201962204438
0.476889461876073
0.473504435609965
0.481326898726956
0.478025792978527
0.475603095355157
0.481891444234068
0.482863792356309
0.484453685205297
0.478974831286688
0.471802113494123
0.482547654173804
0.478976752715542
0.474746979469355
0.476713470947405
0.477631890720087
0.466757067682737
0.481453229308988
0.478718226188828
0.478037573761103
0.461685321382415
0.46700291117728
0.481396588763295
0.479815713025219
0.475812497232428
0.470366607011653
0.469195091519041
0.48120490598938
0.464395147106999
0.482720903790951
0.492628744255056
0.4874847138917
0.481991370759631
0.486426935442884
0.486381595040046
0.492533124113493
0.494169709982462
0.501413098298161
0.501883345816253
0.502557543776585
0.510268489780193
0.504943644758264
0.510977710257178
0.511092516946394
0.5143642869678
0.520374508748738
0.505991197433302
0.514974202126764
0.505130565690446
0.508401747445831
0.504512775737455
0.506619294006286
0.493999770999012
0.499190933671073
0.480061072209473
0.494296144123157
0.49104101179068
0.480748424353108
0.483378174651919
0.472470636030793
0.478066079351991
0.46595721206147
0.467263120571001
0.463717698159231
0.465318703664277
0.458879371442218
0.461025981345844
0.452273799744689
0.450682889635384
0.456668345123099
0.451774296905803
0.448966461046573
0.446694495003719
0.445560301983486
0.443838311273666
0.44523178791266
0.445548643403239
0.443550640295585
0.444753117159389
0.441744774778744
0.445728377272396
0.443601205511826
0.450164796771726
0.441771068951
0.44918280152695
0.443824878265029
0.4457962133467
0.441968622042175
0.43733517362588
0.438253976353952
0.439754518883141
0.43802673494603
0.432558624476085
0.440608988963671
0.439643293057647
0.436718185258921
0.438215536829203
0.434493936080125
0.440007623485764
0.439855029531769
0.433799196376937
0.433984056865206
0.430357424379166
0.432636187336521
0.433547298742783
0.433704678287179
0.432100312143272
0.432135781323743
0.430520800396132
0.430619784190918
0.433849252593318
0.429640259289605
0.428096129098586
0.428807427401789
0.427888829078085
0.429025297345465
0.423732368150902
0.429928120457018
0.429421747580038
0.422471153508163
0.421428501589259
0.419753087484894
0.417112835393297
0.415946970905065
0.412710588298976
0.411255821656675
0.408039261017077
0.401389007686678
0.400903097818701
0.398883470818681
0.391950732831517
0.389534356617858
0.388162213455237
0.383224138688752
0.382537385111424
0.382595536542241
0.376435921086181
0.374754147578546
0.376858037178334
0.377451859808357
0.375005183484758
0.372778372318437
0.373609076766524
0.3720530050794
0.372622576750564
0.373917020287174
0.372348317427474
0.373753392590775
0.373794620952633
0.374116959732725
0.373409955343064
0.376195115175336
0.378664290205369
0.377173062270528
0.380568379761721
0.381011745200188
0.382468237171047
0.382683622927973
0.38655593116307
0.385362709715885
0.388988982805189
0.390001905644505
0.393508855980014
0.390486326562331
0.395107818400356
0.393912967058645
0.39385561918349
0.394365467102685
0.39505032215822
0.394246636076201
0.396340076361653
0.394625527863863
0.394639839715196
0.392428275266484
0.391082555877123
0.393078601501782
0.391264057577428
0.392216832689478
0.389979445808214
0.384647788363626
0.388119276248706
0.384886064717558
0.382138387035156
0.385122226755933
0.380425708224436
0.37867701020036
0.378156241245667
0.37598319977381
0.37557035490375
0.373515670757606
0.372725882722128
0.375713903118419
0.371945366839912
0.366989589915162
0.367443890277795
0.367606860220684
0.366477229307605
0.364414619438238
0.360710632273031
0.362051410389775
0.359270565308798
0.358467010533392
0.358667238178036
0.358552559170477
0.359521541915128
0.356464716884564
0.355828238398143
0.350256709690131
0.350738858009773
0.348853127863404
0.349559841155663
0.34465506526277
0.342571042513784
0.341339931543617
0.339500095804867
0.338474826993403
0.333730138123355
0.332832775496378
0.331132638492191
0.32789324191013
0.324931664225798
0.324325454106451
0.322219988277984
0.320204400567324
0.320882875806145
0.320405519219889
0.317453520532606
0.318251124675845
0.316830286300322
0.316519961949939
0.315740883198507
0.314921038085587
0.314662034971668
0.311363773872235
0.311477182686906
0.307625473846057
0.30372036438345
0.29962878623587
0.295567729212051
0.293208446555677
0.289611224787255
0.285852142179184
0.281676277995237
0.278307023316286
0.274950486479431
0.275493543089324
0.274571181811969
0.27646144392413
0.279422302074313
0.280803498775703
0.285043919953503
0.289150349881019
0.29558582788979
0.303432566570784
0.311151664055684
0.323455644489673
0.333523874508258
0.345797401338872
0.359541630888081
0.373748607152471
0.386549799384114
0.3959878572164
0.410020346948361
0.42507386799368
0.441805262191485
0.455100213049778
0.468294047027998
0.481335856292249
0.494957368768732
0.51496526852417
0.524347611732093
0.539293114356476
0.550304082564267
0.566395082602034
0.57565257384586
0.585148461912347
0.597369680223084
0.61078285419987
0.613479858640053
0.623206735360229
0.634129492184253
0.641229393730994
0.648575256708878
0.653422384544679
0.652208176308324
0.652298402684209
0.656379600079221
0.659768950243758
0.65343642565291
0.658917046149178
0.651586828415288
0.654692601076618
0.654230987043432
0.652865864982293
0.652538816038065
0.651453083515965
0.656778155348689
0.65765191230172
0.656335271929924
0.661748685523024
0.665152342094904
0.664771852261775
0.668953024405386
0.684221914385447
0.683694781408595
0.685651405999281
0.695003015576989
0.699314421458688
0.708367312491083
0.716815011003932
0.723806615300262
0.735403206137731
0.745856647056194
0.756168064309895
0.767823072710157
0.780772775053318
0.782936927916779
0.801471161335952
0.797685020640007
0.812812684418308
0.809869229674435
0.826462279147622
0.821063572140401
0.821954630853841
0.820336947188084
0.818368483186396
0.820634438645255
0.806400352006648
0.798938952996897
0.810413418823044
0.802486665627012
0.800823206782279
0.804600683417526
0.805950695061517
0.812634279599109
0.81945020386354
0.830061218876643
0.835734328685843
0.852354687982966
0.862934604897415
0.874870318148119
0.877749970338192
0.892416619418319
0.907132356943404
0.919632335797777
0.940621490272657
0.945423194835914
0.955714019608377
0.970496805372836
0.970856739861003
0.994638853358852
1.00863959921866
1.02434033256781
1.04508147350149
1.05377890810769
1.08914848625232
1.09367814814535
1.13119164734424
1.14049477932087
1.17137404356304
1.16665029904035
1.21741178629707
1.22603649590122
1.23381079093617
1.2534580009579
1.27532565630808
1.28091674012938
1.31023517624822
1.31414213064011
1.31421670441189
1.34372814555956
1.34007447969511
1.33170751306693
1.36777258906954
1.33477731150381
1.34828566259176
1.35445011503966
1.3401893136333
1.31963068569589
1.30935052737002
1.32059794627114
1.32209362085503
1.30634268711613
1.3551254389588
1.30628334679454
1.32893238683856
1.34648581572578
1.34181520314157
1.34002983246813
1.39966970000964
1.37957929086494
1.36770420538514
1.38178842752766
1.43414425649652
1.43007209752636
1.48455557187922
1.42975373335348
1.49403885662505
1.50330326417992
1.52692088929152
1.49637229851409
1.55678160954422
1.53973270943193
1.60011274761495
1.53666796054332
1.59677330094527
1.57312022058757
1.60063359607089
1.61859833116253
1.61532968308382
1.64094511366544
1.66755502753305
1.57128830589877
1.67108156549926
1.6590948567857
1.68778268391124
1.69142722798946
1.7133266487841
1.68805894052257
1.73386375996401
1.67651064898043
1.67382668899713
1.69589434024374
1.84861105520597
1.73218044311998
1.77492287849507
1.70134568122748
1.8164162958448
1.70474136881159
1.73364434918286
1.65066122432419
1.70857954763089
1.67583202746248
1.61883203224455
1.54778595193186
1.56521231739982
1.43661529230335
1.42820050960806
1.35580481529553
1.30614351633894
1.29381187808323
1.2594450167756
1.18309859093195
1.20285208736105
1.14240639352951
1.16933057316831
1.15944500758664
1.14572920702878
1.12893749502786
1.14008067264083
1.10204451539661
1.11641542756396
1.09213317439362
1.08154646324121
1.05991466711253
1.04708384347731
1.02771053506071
1.01778202336935
0.985910358715007
0.978414638239844
0.95558244679952
0.915233611627131
0.882742419830307
0.876204833969023
0.836309799993492
0.817258938295317
0.780445314148444
0.738790409764467
0.718147892061563
0.68869657057864
0.661080981824395
0.630663839483846
0.605574780964969
0.576006764283001
0.548798651834095
0.52630665134179
0.505085402303077
0.482223577211198
0.468652066745806
0.455257964328194
0.437003499831865
0.425505938373691
0.411447255586125
0.402318112311223
0.388730571884355
0.38275189958171
0.374694692812177
0.373786221256624
0.369231348351989
0.364795095003545
0.361864370140844
0.361424820893738
0.364290850623994
0.358482854224199
0.355252327460962
0.356020504997814
0.358182179130621
0.362808815675951
0.364233523424451
0.369265307523551
0.364780700579707
0.365313104344036
0.370856068249223
0.376004844112939
0.373819917125511
0.373593729992102
0.376820554075082
0.367482610220545
0.366140163818603
0.364618446127148
0.361825640227225
0.367863631538826
0.361760591627951
0.362259042953438
0.359782837203995
0.35682367585731
0.351780261066022
0.360000007442731
0.357107296526431
0.35624505980902
0.355209246875917
0.359371926174803
0.363153550715875
0.365031436361747
0.365930871854171
0.367471760743404
0.372197771375397
0.369813406294284
0.375322479960769
0.371860760628589
0.375952940040192
0.381657905486242
0.377015778213162
0.385370283478809
0.385138303146462
0.387754160605299
0.382354134550596
0.390204599420096
0.378449587460358
0.386741507467347
0.380479854005663
0.389697737329994
0.381063613532408
0.389396425857189
0.390398561104531
0.39467043981453
0.396364762020195
0.405269430834595
0.404899983766797
0.414201016050077
0.424056040979901
0.430944588480026
0.439405090726535
0.449910212720696
0.462402882812482
0.473981663429431
0.478855892995334
0.496902913290709
0.494696117303888
0.522229689459121
0.50864191138653
0.513256647669226
0.512762204111986
0.508496265545641
0.499662084473685
0.505306579903955
0.484720947023089
0.477987580568605
0.472231685355014
0.488406893330698
0.466804547170185
0.467059847140869
0.4608704124061
0.468042031193667
0.467877320475372
0.467923707747015
0.472803027084477
0.476606504028377
0.476248025940463
0.468730413516099
0.465251835448384
0.462569213919336
0.462017886888177
0.462743347395417
0.455011652804689
0.457489876478189
0.450237641227722
0.449077536405703
0.440214107084507
0.437905480616445
0.440113472697022
0.443406474068901
0.431876237030057
0.43078783975107
0.4363944338977
0.431937694765034
0.427367735828465
0.434506326463177
0.441637048688036
0.434525802848606
0.420795478893977
0.438082415942429
0.41983394437943
0.425320758743716
0.416914786194331
0.423614880949495
0.425502774521823
0.41865194649257
0.41067938051883
0.426002143570238
0.421225930590878
0.424499422645934
0.414760051984809
0.421740285047062
0.413883115079229
0.420599143088491
0.402968611069111
0.41549920795947
0.406019429360159
0.404932425162683
0.406770959926364
0.409974172196041
0.403523132061232
0.40823966104913
0.406101401228222
0.402711769736235
0.40372282529281
0.410517763487739
0.39746958438119
0.407074186278494
0.405009768706356
0.41918553160446
0.409239960228771
0.412838895851175
0.402700607734058
0.42111034343909
0.412340727350873
0.430303577699717
0.417886540262191
0.427982982558437
0.414923305463222
0.430851797974348
0.432011636030401
0.426964235707439
0.418142740854248
0.439549261961443
0.430092923938495
0.451992488810094
0.431892225616796
0.458190599754247
0.43406295114291
0.450347564967317
0.445553703354967
0.476137394951875
0.472964973902586
0.479343057116607
0.459547108932189
0.496715122276431
0.47258733462603
0.500725405714384
0.485548643402857
0.510815169790311
0.504878315380774
0.522479914574063
0.515920486390172
0.549829445908606
0.564785570355184
0.597790400571719
0.569980273812973
0.604823577070829
0.59131258194247
0.616123598528166
0.61762530608491
0.659135456783607
0.622902072970787
0.672607140357671
0.660046221182329
0.673464636767317
0.654847390946976
0.688383333387379
0.649812535868243
0.681729942922111
0.665730683804822
0.650901958376112
0.666613256442517
0.695374412323581
0.681474710682722
0.717743272430701
0.658758104830806
0.710697231826241
0.649098783927385
0.700230068723747
0.632598202669119
0.696506659271353
0.677261229674956
0.660175150093827
0.629086109056176
0.64302149620795
0.630150529419149
0.664292935549515
0.633878143697538
0.670777488034203
0.640584476617211
0.651198711377415
0.621050525362482
0.634162557166248
0.645190942779176
0.632553448369058
0.616880395868248
0.622572014950834
0.62735158264864
0.650553265178793
0.639860551541558
0.630320584779763
0.603408646643753
0.614823993795802
0.597817841483845
0.631346813580126
0.635475685762497
0.603561174656269
0.629903224685191
0.665351120975738
0.63286737078653
0.638485897054851
0.640018201036674
0.646852388656607
0.568477127811512
0.68997789314209
0.605169384403128
0.687141001535339
0.661475754109054
0.671452439032644
0.642952567014094
0.60948072968886
0.663268045386181
0.726332374198648
0.630420197485061
0.653959065699907
0.646293165638331
0.636719859637739
0.64854701756722
0.696493298333168
0.661782550121653
0.748047340352411
0.677030301712522
0.718937524615444
0.663303722776948
0.70539127386735
0.68677741363442
0.72110249734314
0.685956714181835
0.727978768511369
0.818684588999023
0.88820664956568
0.741018349147426
0.784415408852206
0.803638750813713
0.898339788164007
0.706827657546011
0.903353826841544
0.723796939355917
0.996190719375791
0.858297530944915
0.927644406015448
0.741536402269035
0.852839598373687
0.872832311214972
0.973816373487102
0.77667056403669
0.961462243041076
0.931571197362276
0.90066586898324
0.736248049206869
0.863889059247636
0.870527791780882
0.782753855151595
0.811870855939556
0.956075540220128
0.633876889626856
1.02935247698452
0.72706798257537
1.13226445547401
0.843993962227163
0.801409314618926
0.752706998825451
0.997515783821821
0.729883887988025
0.9429265762129
0.665336154777803
1.27566401457876
0.727046795636274
0.897301820989529
0.760199149012885
1.15365368953959
0.607623500989582
0.784625847217219
0.968043405741715
0.776786496654329
0.667461926253933
0.95468930490315
0.784661158045996
2.80201348168036
0.6815654019346
1.08752442633856
0.874949698301415
0.666697093731559
0.75336945488391
0.812840796963301
0.690174638023218
1.16626921195109
0.919329495640191
1.0762017772544
0.702905576170381
5
0.378729859381086
1.14780534680154
0.960089917265251
5
0.697046924488243
1.18910285273704
0.610273592813338
0.979961956250029
