3596
4000.36533379555
650.420452594757
1
2
2
0.0554535654994559
0.0450737410819744
0.0563495228482886
0.0460897500291561
0.0487198101501816
0.0544398714458427
0.0601769696083609
0.045283479120297
0.0589709517454726
0.0490590397969752
0.0492028653268645
0.0484919783419094
0.0476097208868553
0.0426805791419651
0.0601204354555459
0.0412850878885235
0.0553157181163682
0.0470829832976463
0.0528033557490866
0.0342167983712415
0.052476719226055
0.0475985853397518
0.0520475575876653
0.0464515518277653
0.0556294610707017
0.0439396216428358
0.0509715394625954
0.0404750082164893
0.051070586183112
0.0490670874469119
0.0501939633065117
0.0403873228289008
0.0519214570077893
0.0465708971354466
0.0545211388176892
0.0438096950251578
0.0533383117210496
0.0461714969678001
0.0509553521048021
0.0529715116794616
0.0548995259980014
0.0427026392737443
0.0580782240924795
0.0464154043227811
0.05361407469946
0.0436051265587269
0.049582986423366
0.0431652743528747
0.0517201332824657
0.0459256777528815
0.0579365869816787
0.0395588255642418
0.0575199914705778
0.0551889817361849
0.0510972791360574
0.0510990125390547
0.0606412705479592
0.0468829196164211
0.0514548956568904
0.0402769635364885
0.0583609050379971
0.0524766559353888
0.0529494382404559
0.0474516671634284
0.0508433343087793
0.0468921507373129
0.0490836754007139
0.0419955990610688
0.0519398017521964
0.0440051412181565
0.0468436927331004
0.0494763852094369
0.059883516702892
0.0423070301591314
0.0529505663479123
0.0463639709554467
0.0532226070740487
0.0425840955048552
0.0477857644327425
0.046320569414385
0.0568060763475871
0.0427362441692372
0.0506677421049708
0.0389414878249232
0.0475107270527717
0.0514324619224667
0.050689082358523
0.0424560226774663
0.0626679243212235
0.052579412762589
0.0511691901849453
0.0419456710039458
0.0457260118762948
0.0468106460742508
0.0555890950722156
0.0429973675822661
0.0515408520937456
0.0470980782219751
0.0496909555390238
0.0485490207281588
0.0538823881046204
0.0270750231787478
0.0730645351682249
0.0364350288217148
0.0701855725392607
0.0539399408211689
0.0381982626861041
0.0575190448847956
0.0541589218385491
0.0526057939912031
0.0496514588311887
0.0466089873965362
0.0477854633940341
0.0499967894254688
0.0464691133372531
0.0451758958508604
0.0711889124414674
0.0479159605203448
0.0542530763321361
0.0488180483202537
0.0379554140918632
0.0506457866551533
0.0711744375827972
0.0469676337613854
0.0561369756753704
0.0438890353884943
0.0448370501212469
0.0525859065044144
0.0652397448597634
0.0493644974446831
0.0534060616420207
0.0433356274346239
0.0450189736184141
0.0320151302889556
0.0690913584432538
0.0432573502580464
0.0481714188162136
0.0360347727023906
0.0523709946801456
0.0694515403392143
0.0641028583003376
0.0414084558883797
0.0409316106464052
0.0354717810497995
0.0708336274130109
0.0477881855362576
0.0400600160907164
0.0406204528991935
0.0624917458906473
0.0459442708260227
0.043268902694402
0.0298484070087869
0.060418287264035
0.0516864138386848
0.0278065558870792
0.0491939710938656
0.0901401093618288
0.029165629130432
0.075010214917602
0.0494128371021816
0.0547840783593834
0.0424178235220444
0.0452312225008463
0.0465510095143224
0.0516484151128085
0.0404900180072504
0.0447156880104202
0.0620742321357199
0.0546138293892018
0.0386139333246824
0.067819143650947
0.050185412914172
0.040407366921538
0.0613741048378926
0.0578869011710851
0.0325132450689549
0.0665731241218005
0.0554591766339398
0.0463448353790959
0.0431169671779769
0.0711388828476723
0.041977476356335
0.0479993396406924
0.0398947109465757
0.0481481721668439
0.0545306381380477
0.0547712252588075
0.046793369801427
0.0544379083975842
0.0330461929171762
0.0505125032059663
0.0633831266360533
0.0623174399589278
0.0456495184249047
0.0537889608991162
0.0208006581728365
0.0641661191502838
0.0698054029693453
0.0576753111248187
0.0474849168163379
0.0521858516834096
0.0432859225522718
0.0499796861544178
0.0474790815943188
0.048164080989603
0.033825439684055
0.0710157478332611
0.0500469263454101
0.0536935435347572
0.047174498111537
0.0469099166116975
0.038299934564676
0.0735431273344861
0.0647594471913507
0.0546477724556299
0.0456171551992551
0.0418374178577075
0.0521849155070585
0.0661515411325455
0.0519142788921834
0.0582899261918861
0.048211173272998
0.0567291769298285
0.0465554333753042
0.0512581670884909
0.0470422514012263
0.0534649028304788
0.0462877118953451
0.0541128575586536
0.047508704784161
0.0576387250976833
0.0489083187886766
0.056011398752384
0.0489295788144478
0.0461314687350351
0.0502217895678192
0.068683603015037
0.0504839838157374
0.0518024295459161
0.0490190396641021
0.0563961497003891
0.0507830571488102
0.0580713791713889
0.0522660012553837
0.0519869047438846
0.0384410800695828
0.0711383865833566
0.0519877330901296
0.0528114355692905
0.0433477114684566
0.0664012517340107
0.0538820919114259
0.0588246879710188
0.0479302202961604
0.0563342534292185
0.044752450225771
0.0547716020147959
0.0643565974225468
0.0574413946153986
0.0453830977248654
0.0602297518805822
0.0549343914968189
0.0563534107013561
0.0462645458214929
0.0410829250515375
0.083589216439046
0.0618190285367755
0.0421390910034311
0.0883736137901693
0.0604211644985701
0.0611703185931398
0.0500615666330916
0.0402909154135023
0.100646365128373
0.0929386094656846
0.0494765633292326
0.0645158720480619
0.0580749712738697
0.0599625444991856
0.0480423870180922
0.058051997493748
0.0556377801802519
0.0622448130388471
0.0721984618447599
0.0880337077624109
0.0411980396168647
0.0730213283237871
0.0768370054803044
0.0652195861890914
0.0546536967822001
0.0600067012753783
0.0559676648603682
0.0733591133236663
0.0671591762087936
0.0724372481069996
0.0570913225273119
0.0533509836749211
0.0749832155172662
0.071277865533466
0.0537365623803268
0.0657882380790233
0.0631650051292625
0.0618808221123781
0.0605307873859729
0.0623490402323051
0.0645643368981625
0.0607662235501815
0.0548833878011098
0.0971310570110359
0.066128482261889
0.0643953758676854
0.0760735546037675
0.0713288415649833
0.0630058851977045
0.0652854372250921
0.0602038100122341
0.0666152416862058
0.0584315154364533
0.0643373118899606
0.0789414662871571
0.078401431202154
0.0652689802349127
0.0699757546750599
0.0561977588752159
0.0693577126678405
0.0700279993664752
0.0774882917852694
0.0717000209715743
0.0743563329029368
0.0596969633246848
0.0898246821119195
0.0867075654364432
0.0650832529155209
0.0820246354705543
0.0938029012165614
0.0762188063304463
0.0827876869384991
0.0771003478293867
0.0860722144327505
0.0795360598132555
0.0904329614364335
0.078364607929517
0.0822021386253338
0.087437601573579
0.0976532383186084
0.0775990840104905
0.0824871738816734
0.103051038758734
0.124521755307772
0.09724938437435
0.0923218961214165
0.0758911409436801
0.112458380177981
0.114966891954577
0.116110910663143
0.109934549691342
0.107524524168975
0.110840404238402
0.107753993810609
0.10822998389672
0.117459853107759
0.110244703095551
0.118845666898835
0.118578385624831
0.123600189877347
0.124599904671846
0.117894791071982
0.118780707803712
0.152354458582056
0.133057829568241
0.136016931595912
0.13141938398434
0.133663388787655
0.147954973833848
0.154391534611592
0.153592764556178
0.161864016469363
0.158334592302003
0.17622233015944
0.153998676012549
0.159905270136757
0.15495504496915
0.170219128973743
0.165461281455046
0.169577495540726
0.16168440651786
0.178802831607789
0.174770992426344
0.189936733285967
0.181976308687138
0.189019009036727
0.180029863254576
0.193331426459618
0.190945359755967
0.198296495929376
0.18880073890324
0.223692448655305
0.220099945452393
0.231150816269356
0.212722028964962
0.211751943359222
0.21279214256046
0.228717283558682
0.220030113320799
0.233632496480378
0.225467515079904
0.23194464353058
0.237676380807539
0.255884038359398
0.251955859920036
0.251656024714591
0.235879451997045
0.257573017583702
0.264905163662627
0.264082030031286
0.268283746320384
0.279214339941728
0.254926639846193
0.286743649270227
0.292522553375867
0.285602771597081
0.285100170633428
0.292279446833263
0.287842160878796
0.288785420914538
0.294456972378914
0.30418636705246
0.298441353387676
0.318407909998812
0.310978378718907
0.324994916692061
0.317677222283224
0.331501455569351
0.33375063969099
0.335831247872639
0.323141021599428
0.33854960799432
0.341206444085539
0.359492544677473
0.352230384650376
0.379070172545811
0.361447546110529
0.374871716880018
0.372876193960859
0.379183088516051
0.366836527736729
0.385251368644581
0.380223693946991
0.398415350421636
0.396726547419835
0.403857006067162
0.382925706916016
0.407519322161263
0.406889445320357
0.414421483874662
0.412941480191514
0.417998541006434
0.404084037380809
0.439513091943195
0.431853861250168
0.44186843547927
0.428738162235422
0.475826428038662
0.462664407284719
0.467065364333679
0.463191573246747
0.4760882932336
0.454203452015927
0.481438358261068
0.471789944968583
0.497054605481101
0.468239869676759
0.508147871245703
0.485375289349011
0.505881871249736
0.502524389290393
0.52076462864652
0.494059903173414
0.528154960664659
0.520091208492927
0.539162180064835
0.521808455416238
0.545851462716128
0.538829330318542
0.555613161061605
0.542260899027096
0.576087781780859
0.563752087218532
0.574208516447077
0.555534076244391
0.568359419025349
0.576671297338483
0.581586792575789
0.576687121282856
0.611993021680601
0.560536454950825
0.610910761412364
0.612118198112383
0.619202551816339
0.590637212516816
0.632161985891786
0.61101256465851
0.641666189745836
0.640219230542609
0.634503740950519
0.632990455429705
0.663022592676599
0.646353115883145
0.660549901889952
0.62453161376354
0.662044475219869
0.657916116892917
0.673105937551478
0.6874591804585
0.695923554104641
0.667607118026099
0.707623043114616
0.671451375323946
0.698666316010126
0.691857962365924
0.729801572812615
0.69980488783092
0.70988297351729
0.727094569645592
0.766567966875299
0.690047782402666
0.757389719094815
0.731596124445258
0.763172574506204
0.759912652467875
0.793782028255508
0.75452006480239
0.784128150115242
0.760106808037603
0.810931221909997
0.801729987080703
0.822993280693714
0.771409040847031
0.799904485830252
0.787458234816329
0.880208665178536
0.821556815105537
0.83923054093127
0.823955451929944
0.835796049272448
0.817449186034756
0.826990999827213
0.786873155377218
0.842530785889516
0.80992371395136
0.888461363127103
0.878289797285334
0.892696780601831
0.856279856530997
0.889524404349072
0.830628488603579
0.907295968004039
0.845212629841715
0.899906276082965
0.897319713921496
0.89586278214408
0.939470134758723
0.971048302320429
0.883837204765639
0.936376037639709
0.919742731233108
0.946003221635012
0.871407308186821
0.873774708384632
0.895649034911168
0.955734927499342
0.957868297348011
1.06309195041189
0.939691561194853
0.989683498256128
0.980386079311608
1.01421826509414
0.938947507762437
0.990822296888791
1.00646705963923
1.03765033330686
0.953811029191758
0.988944857938538
0.927564283174838
1.02921878943197
0.953905496915878
1.11984582765833
1.02480594657801
1.05493971003949
1.02850923048494
1.09632276960101
1.03732524053237
1.10773722596717
1.03042403017206
1.03105989166349
1.03882151319888
1.13379795029472
1.05635616024079
1.07181472117774
0.99594913786442
1.07960840423975
1.09565001865734
1.09030064466711
1.05784332068193
1.14655764748986
1.11712964683838
1.11608702307503
1.14802065195609
1.15344725609286
1.00046769669684
1.14630188476901
1.19501557861898
1.18243357449455
1.03894665926331
1.19532519983626
1.16517439766799
1.17966142062179
1.14627469238936
1.14234331007799
1.13605840719036
1.22679206736044
1.12458286523095
1.11234492625211
1.14029014991342
1.26159521745169
1.18520918079865
1.24242270647359
1.13075121212799
1.23159833058087
1.16863808598899
1.11917948306764
1.15061044858102
1.19334869610261
1.16858221774201
1.3001683143138
1.20700984070344
1.34848183644115
1.20409385780013
1.17344256634748
1.16861727831216
1.19858817427529
1.20186095598796
1.25604430324641
1.25259001680125
1.2687484239714
1.19567773128718
1.38243074676562
1.23570738344316
1.29741397175276
1.22650810067793
1.32911200314298
1.29334050508409
1.37100022994933
1.2410802259487
1.38671268602671
1.3399815373739
1.31605103097981
1.28227030110551
1.35500581130573
1.29855031075448
1.38544410790957
1.24257521486525
1.36237862246745
1.24498044083552
1.41228704476439
1.2839783941943
1.33070716178144
1.27796404335519
1.44504313054837
1.29258732630935
1.45014181443382
1.27187183972224
1.29961055232373
1.29680930510751
1.26978660383616
1.28301320976708
1.34258881441912
1.24909095434908
1.39179428115119
1.28112350656636
1.34381131005811
1.3738863334969
1.44999173917171
1.416231851685
1.38332424503539
1.25144861818367
1.44152427803669
1.41216064485132
1.45704423782175
1.38474274362211
1.37018124579151
1.35223345437395
1.4779346147968
1.35475961919535
1.38688883246672
1.31917420020296
1.42697437374315
1.3538974648084
1.35678941796656
1.38032494581329
1.39306048775131
1.34929377800532
1.44091944743896
1.36372235045407
1.39875965544658
1.37013843696759
1.40474953872797
1.42836966312783
1.38012901769627
1.36194735040589
1.4437036819342
1.44025154253315
1.61572355192637
1.3563884717086
1.49310692665794
1.4188295249945
1.45166089853743
1.38198800384528
1.43108303343499
1.2813449467684
1.44451643838632
1.38958534297252
1.4822318282789
1.3763992974668
1.38668049520341
1.33234136234445
1.39464334410097
1.37745935428502
1.46922328315294
1.36177003551481
1.50573737826852
1.45642590819262
1.52566159306517
1.33844516158427
1.37613156935996
1.25581712267183
1.44800358911586
1.42045271108528
1.4320705917504
1.34920897382542
1.47985217443282
1.43854833696482
1.48044128661163
1.36799781574712
1.49659676142516
1.43567232404547
1.51830508363194
1.56890796919749
1.49628246759998
1.35180229756339
1.42861485822094
1.38057949042156
1.44820898069435
1.39445571033794
1.38417031450302
1.39939750543502
1.48719312098991
1.41137067539002
1.41584124629233
1.36455908338465
1.55713639100651
1.37982206445744
1.43914427317595
1.43301475765761
1.43025623071949
1.38539977977783
1.47145762596629
1.35830248576059
1.46407974796287
1.46052318785913
1.49346658834047
1.3890925783706
1.43235612754031
1.368531979146
1.43748508665262
1.34638545382662
1.43301242342607
1.41939511532829
1.39168302442563
1.454586291434
1.51135150326251
1.41479190451884
1.50564715745282
1.41572074306816
1.3933899848375
1.38403015399524
1.46435703696769
1.33797468772089
1.39312937878218
1.4228404970916
1.60826939586912
1.32874107853161
1.3656574329235
1.45602688528431
1.505066427267
1.39466167877236
1.47916672674142
1.36253528395746
1.41381419289906
1.38655788795107
1.48059497530416
1.3766506182743
1.38358083744411
1.34943232980204
1.42845938737772
1.41130670523436
1.48475259029224
1.33296456375566
1.4347517247245
1.38338057363841
1.45400484326641
1.38016807023388
1.37817008427533
1.32638902035229
1.43569975257546
1.33277963664113
1.45305770523887
1.3193348751125
1.34820639192074
1.3384891343984
1.37530589621948
1.35475328780405
1.44656300802428
1.37471931561532
1.43502872842056
1.39886425180164
1.37671569889542
1.28904187478074
1.37827817832211
1.33630142558164
1.32389918291755
1.2283149139018
1.36945087248319
1.3467546797109
1.3827009231014
1.23074640298879
1.27499196574323
1.32242412490778
1.36028359810104
1.28949788204945
1.35797224846962
1.27253242854922
1.3383625266935
1.27738368469317
1.32060527871538
1.28501598697798
1.26262596455221
1.30982227662656
1.29400425241694
1.26096488667232
1.27592553619992
1.23450997270851
1.29129380013362
1.28438246806028
1.27633150876408
1.20392375332
1.32383883528534
1.28947694195576
1.28598233432271
1.28939258522786
1.28756652232298
1.19976213979629
1.27755955131976
1.23670795645228
1.29596530180102
1.25629600722259
1.29074364917702
1.227685031752
1.24761827763666
1.1955580689466
1.24866489351369
1.187779320557
1.2075125479236
1.20375119368519
1.23357819909581
1.15896145148511
1.23719784795033
1.15377498521894
1.17126627018394
1.15435217775431
1.15193124907618
1.10696321550103
1.196437010362
1.12866478652621
1.16008804641153
1.12111360256585
1.11421434576316
1.16462365419113
1.12171986740385
1.1059579610771
1.1978738698289
1.09341622870671
1.11547062223129
1.11358756593809
1.11492783022215
1.08040259069949
1.11151972045056
1.11060661114935
1.14136812819289
1.04784701070717
1.07387782508004
1.08746371113251
1.04897794326139
1.02283950414998
1.0377771971236
1.02152254155951
1.04258745650602
1.02464226078659
1.0441834994663
1.00940476645238
1.04745923234586
1.02224766221258
1.06208442400308
1.02107962640839
1.01999115838454
1.01553721362927
1.00147790676698
0.996804124675696
0.977799593073208
0.95485825001134
1.00028870618103
0.962965174284822
0.991875449797435
0.968159516107107
0.949219651923172
0.934065170850483
0.964370853838544
0.90301140709468
0.96737689902257
0.936063086807029
0.928871320300796
0.916023126754861
0.921640363843069
0.889737097275711
0.902314328564573
0.890304884910837
0.926287813518462
0.906089088902313
0.886734235666346
0.871590447363242
0.911466798880005
0.876877160710671
0.86665859713784
0.839638978458065
0.871815908376576
0.868747236996372
0.868477413589166
0.858168390113588
0.863484816188416
0.85447060990639
0.86171513511853
0.822638745641317
0.830643048424826
0.804687571045357
0.839682051751371
0.800449232312897
0.809245602720257
0.792019534523034
0.815681492323797
0.80393688715655
0.801955893261583
0.794788921361297
0.79186161423198
0.767890752336492
0.789382918761449
0.77832636253493
0.771725585550259
0.775206008670956
0.789231106153682
0.749317963061862
0.759497171858461
0.738760361166066
0.756337230751015
0.734206695589128
0.751863941704704
0.729733793841226
0.738332713818855
0.726451780612458
0.726732672456849
0.707776986317613
0.715242989033651
0.720007688480495
0.717376732597034
0.693629382350165
0.707976878178846
0.690981873282846
0.696700555168246
0.688044492041515
0.687216405950877
0.688755165668057
0.686363695544882
0.661576807761501
0.68201870172363
0.671088587164261
0.669490890278632
0.654940740497385
0.667190738927439
0.653382906132089
0.64408186634126
0.638414619898858
0.655114516995471
0.645701546077799
0.643922219385869
0.628845879006698
0.630279848739625
0.611695346621075
0.640768064601727
0.619209021696849
0.620748391549803
0.610973899769281
0.623734181553408
0.604915620256258
0.604447910965285
0.590267763012341
0.60571502842549
0.585292974019234
0.593149346666291
0.583991782737844
0.583092835619895
0.577068888304572
0.589789470655792
0.570254937260023
0.576698684491097
0.563841265193993
0.564065814249099
0.557636768282705
0.557191921670048
0.54754237672898
0.561718164876006
0.542225996334887
0.556427629969975
0.542179865370749
0.541915899355739
0.532549698012975
0.531345709304504
0.517726157031223
0.536544654049344
0.522661691853722
0.529938473260247
0.520794702128394
0.522867811220104
0.5206377618364
0.517191036863321
0.494964437986303
0.511233440837379
0.501231613973266
0.507468766065586
0.492562738809405
0.503397191401692
0.489715767176449
0.499784278124987
0.47788525594366
0.4798764034995
0.481459330039491
0.48193533471513
0.471531036316495
0.479606803811203
0.472681440422995
0.479906952628283
0.461044624113492
0.46931866503795
0.460676342382452
0.477729746774113
0.464121453100422
0.468511090842677
0.461492626853273
0.456861159912045
0.452178222327165
0.454178102951128
0.44971621841415
0.453886722909279
0.440661911895462
0.448893094141858
0.436907604058251
0.440467686279581
0.441091116337552
0.444914953600168
0.437013700773291
0.44607790784885
0.428642303017919
0.432948992454025
0.43053400332371
0.441045129322042
0.432494961862482
0.436419987870125
0.433775606340366
0.443370993428271
0.427344230368661
0.444623235868589
0.434128480885815
0.436139264890851
0.432533270324778
0.442281591817474
0.430280376414483
0.445026330136883
0.437840556178972
0.44174133409758
0.443637811749298
0.444475837790882
0.440368442636748
0.440924570183229
0.438680378649126
0.448774734457411
0.441106444070233
0.444915140201768
0.43723514836988
0.452043019296085
0.445425770960362
0.456822664578717
0.451930986496241
0.455793989439389
0.447619207854514
0.454571258442161
0.452412221071772
0.461029622298051
0.452341604791457
0.46423440604636
0.461244345717585
0.46643685957306
0.456765573943412
0.463708961663975
0.465923199178432
0.483200958463629
0.470946025156131
0.479703997145561
0.473905317501727
0.485297011279242
0.482707930676345
0.480778396581965
0.486526328105592
0.495409763895618
0.496215556399066
0.504429702070378
0.501637417157109
0.500762866030861
0.499093803254668
0.515963338844213
0.507869598005544
0.513231442169618
0.517285341841949
0.514736869512997
0.520061768133159
0.527072728507998
0.52186663461888
0.532761555132685
0.518765772066044
0.528382118501659
0.526990831745525
0.528492857110846
0.527889600007798
0.540842436608543
0.527702698789288
0.525571694651692
0.527217457837975
0.535877112077412
0.527717372942438
0.529016640319547
0.526660907146367
0.529499687737372
0.519159027731964
0.521167394154461
0.510525028833288
0.519739726780829
0.505303233067018
0.517006902666873
0.519307449553538
0.529936657160212
0.505572306818886
0.525461978501107
0.515215334600055
0.518538210461637
0.508649900371656
0.515725044239733
0.505515106588002
0.508984473599916
0.500410923958554
0.507315592519323
0.498163539286282
0.518067061396152
0.510766856585902
0.508957201444443
0.49760003689607
0.507223062975095
0.501189520751018
0.511665564091616
0.509031346607961
0.515936587205785
0.506963836562507
0.515573667798934
0.501332693073394
0.504674897431863
0.500986627867443
0.51260485471236
0.500668796238889
0.508501334555953
0.501299071787084
0.500018183134325
0.49712597520277
0.506290368482879
0.496076251180467
0.50477764985246
0.497623838033266
0.500007441300959
0.487293764262508
0.495059100760548
0.486135737532954
0.496160404845052
0.484406458949111
0.486721812151457
0.479396930324302
0.486821537794501
0.47941150722517
0.476883432149994
0.472086661237508
0.470689035047907
0.462230981066799
0.46725179047158
0.456788106021829
0.463820961652693
0.451231600900321
0.453510250492275
0.444421491110106
0.456601951401057
0.444160387602969
0.441560680545893
0.433268528417188
0.439895794869957
0.428233912530972
0.435926779114453
0.43049433205909
0.425246343848573
0.422502632399796
0.418766490777247
0.410030014287762
0.410403580728529
0.396412351001148
0.404463209001914
0.397755410875536
0.408643940230025
0.387817623032178
0.398497532480072
0.386270628518287
0.39011418805813
0.379712080469503
0.388524616353553
0.37580301113867
0.379752515450196
0.371370792943866
0.377814127458704
0.365447976852434
0.362293671168857
0.361651665339528
0.36247946682026
0.356179871510469
0.365091450948385
0.353310536304077
0.359306035670852
0.350795163407739
0.357035561185551
0.350926300686479
0.352759273641565
0.348436123116379
0.349054479635521
0.341667586018332
0.347872709821068
0.33805477937193
0.337332781914333
0.334214433550214
0.334811627234698
0.329856396445158
0.337480678834036
0.330566924985608
0.32794220448737
0.325312897920043
0.327168052844093
0.324324528016879
0.322142309184691
0.314597172362334
0.323385631186606
0.316430904104572
0.320011711115149
0.310370359838784
0.316201270299924
0.312238148304567
0.315558916094145
0.304391207183206
0.308538111706308
0.305973750684814
0.31370873427543
0.306343557365669
0.302135604967198
0.295469216963746
0.302021331938219
0.294815789432509
0.304991574967641
0.298421894538358
0.298006519047748
0.293534680221888
0.295443107830882
0.2922639011967
0.293065070313885
0.290829349809545
0.290131933771213
0.286067848809452
0.290122142196548
0.284546638900553
0.287243628782264
0.281516711934136
0.28676145316845
0.281822574200895
0.280911049361001
0.280812908906901
0.283312033716922
0.274462105931562
0.278288679455992
0.274793930395774
0.277872506750853
0.272252633998711
0.273789303831751
0.272295227020755
0.275474439209969
0.267335927953102
0.273612395489496
0.271398549915867
0.272646407020636
0.265981494321047
0.268587374431498
0.267700959649848
0.265421661739541
0.262806662354587
0.266567331937167
0.258775057305634
0.265390945774107
0.263119974278394
0.261092633382168
0.255991910494847
0.263511837768134
0.259271774518454
0.26232397382409
0.256532553804337
0.255648317147945
0.25260672261235
0.254818297895681
0.253936854023529
0.257693663525817
0.250198716534637
0.256418178643074
0.250972196967494
0.252496466671718
0.247870127731543
0.252536168726758
0.248598637298046
0.249320796445578
0.250316911206415
0.253658622178307
0.241954023589172
0.247262429436605
0.246139564502127
0.250442688003869
0.244062773597324
0.248108673136698
0.243024727492375
0.247428933747117
0.244080022821918
0.24281486233494
0.238951888541511
0.24301064353441
0.234419162838093
0.240909098991159
0.238077526321664
0.243772463505791
0.240842846848361
0.242487915432767
0.23756785468385
0.239278776120079
0.23880444620878
0.23785171962203
0.233565596623128
0.237089923762811
0.235419674033904
0.234442843822252
0.232425769135567
0.230881640338122
0.227643766230361
0.234202135397966
0.232267015922288
0.233354319927989
0.228402753375441
0.230182649895655
0.22835539243231
0.232722942630056
0.225100424080315
0.227232988303287
0.225636462020753
0.229150012553554
0.226670278318596
0.227802213348603
0.225033740579401
0.221230955996989
0.218651369961428
0.22650076677048
0.217789115552895
0.219622619484209
0.216702627360968
0.222568273619931
0.217040848883113
0.216788686780496
0.213072446742776
0.215568211600458
0.208906805909978
0.211532936272732
0.211562606113154
0.21854998686049
0.208848333984719
0.211505694491364
0.208847871888644
0.208154670202238
0.208946879709838
0.210124387023807
0.202332986532539
0.208388852382802
0.20413383330525
0.204433074075794
0.201218452678999
0.206698011228097
0.197959777919046
0.204484310572243
0.201523068680696
0.199912383138431
0.198133950543856
0.20328969096406
0.196562680095153
0.197848642588122
0.194429081007074
0.19633936780326
0.193736607165
0.195173621691179
0.191343176782292
0.189827299991932
0.18925834332804
0.193746558338785
0.188947876662417
0.187251932146193
0.183729988955484
0.190275666741083
0.185362569129136
0.185387749006967
0.181992898004764
0.18162786165184
0.183201559211634
0.183323773770422
0.179555610205766
0.18017813869842
0.175372561542112
0.176643521432003
0.175754616077038
0.174974576516434
0.173953511494716
0.175629658660389
0.173710481587335
0.174756762317723
0.17259113267647
0.174097989213598
0.16868537459632
0.169294863848018
0.167780131863176
0.170956439395038
0.166653004006541
0.168082448591379
0.162494169181237
0.165439269634526
0.163449912299083
0.163926747180577
0.158703927449995
0.163027755888831
0.159599422182714
0.159475209308094
0.156882122986152
0.159770850046193
0.157212688927495
0.158873601414557
0.156732136468962
0.156526803521292
0.152677916764738
0.15593502795414
0.152166099336909
0.154758858630348
0.152736376464773
0.152817407489739
0.150835202183356
0.152130386642281
0.149285148050703
0.152678494889391
0.146473253562014
0.151309889354152
0.150751382181293
0.151064850019987
0.146389996384358
0.150347558704511
0.145767606048233
0.148496072937746
0.14867672401538
0.149225639650842
0.142477946883077
0.145117174862885
0.144033581751106
0.1454074571786
0.141605353772912
0.145429871246198
0.139777187181002
0.145170546749757
0.142329129165205
0.141377502690044
0.140453380066635
0.142840125083048
0.137271290339711
0.144053483923542
0.140828303003329
0.140484610272638
0.135816717882538
0.137352155399756
0.138085844870422
0.13883793148359
0.136227455105506
0.137870624758595
0.133277979302051
0.136916671381986
0.134881891345435
0.13564831967948
0.135583666725845
0.136708669068037
0.138356541699996
0.1356798955693
0.132105526777865
0.135483559024195
0.130794798389448
0.135957991950209
0.13192894889544
0.134104587643426
0.13327723890718
0.133470788129964
0.130351610912351
0.133538989346626
0.131354376183715
0.13057799551219
0.130244130380064
0.133176246575118
0.126326194935416
0.129363053098771
0.129262744513114
0.129554847545064
0.129627941346124
0.127540353984223
0.125386846724783
0.131885289983953
0.126099685399443
0.128485958184511
0.127312587510427
0.129484779028878
0.126325153100032
0.129941695416467
0.12469986114508
0.129625203306358
0.124843030350315
0.128845791864752
0.124087876814109
0.125064134648091
0.124331761887991
0.127521083336891
0.127093297763755
0.127023199658412
0.123478729178644
0.126717695013958
0.124587495526087
0.126366708942484
0.122235291967322
0.123458152566576
0.122434076424544
0.125206205391974
0.122158581549916
0.122940454306014
0.120517824313214
0.12243885494179
0.119547894027158
0.120800392047209
0.119521134972689
0.121606369300792
0.118653214138186
0.120630667226077
0.116571056400076
0.12192294750852
0.120891776313143
0.118956380126316
0.117986087761627
0.119046907928585
0.116750588183283
0.12075550266512
0.115743051446301
0.119699600432744
0.117166136878641
0.117447718852136
0.116553723429361
0.118074889763156
0.116489151270843
0.118260720831329
0.114533281180739
0.115538686978919
0.113579022942142
0.117730009591971
0.115296202607619
0.117507117609698
0.112277062686707
0.114749107183765
0.114774242677866
0.116888408056608
0.113837486527736
0.11493331949208
0.112154708148344
0.113466074831856
0.110375870334677
0.113563764586756
0.111027340444286
0.113435847632
0.108906916497414
0.113524836809703
0.109504170717278
0.111253824562902
0.110373256749665
0.108761127746153
0.107482593417707
0.112537481138664
0.107955047885714
0.110712545317858
0.107205936057831
0.108767501182562
0.106175811601972
0.109679953667236
0.10630907013704
0.105463509262197
0.104061457062774
0.10673741535659
0.105784538061474
0.107331210776378
0.102923916401045
0.10563846723727
0.105242378682282
0.105489763881773
0.100423810498352
0.104470230097026
0.104395850693954
0.103186319189168
0.099713948425034
0.103443064450967
0.0979074155676091
0.103706434797819
0.100028395519664
0.10245992909785
0.0970327589481295
0.0992756117500343
0.100048973970397
0.0993768717763513
0.0978846037805084
0.0990165230394605
0.097828312927331
0.101656906060256
0.0978651504741797
0.0999453861273437
0.0967136557495952
0.098201639282204
0.0962433990432802
0.0988501032085295
0.0936636293847306
0.0960241330453888
0.0941380548266226
0.0966013395946933
0.0929444592264517
0.0973371723362357
0.0942293366936889
0.0958881837488978
0.0934738675770623
0.0957072490315045
0.0928919803032346
0.094974614160161
0.0941067666509121
0.0949118939111758
0.0922032173343244
0.0932232638280385
0.0912621030028778
0.0931055956768255
0.090942674571029
0.093930486314335
0.0907872545765763
0.095177355026196
0.0918653828417406
0.0921735480916237
0.0883038633495093
0.0919644852693332
0.0883522686208271
0.093163104854744
0.089139104670589
0.0887864425048324
0.089142613194365
0.0906603862249406
0.0879049632831932
0.0894979019614222
0.0858135425465648
0.0894173685602976
0.0865899028551728
0.08839389745935
0.0858619909569837
0.0887263733088436
0.0874667324275377
0.0878443682506312
0.083698871299612
0.0892056984743647
0.0853436599016219
0.0875909372482157
0.0841133889321305
0.0875319964101241
0.0823087294555704
0.0867316471608659
0.0831790230051351
0.084429262404885
0.0838036560476614
0.0850433683126269
0.0867998471786019
0.0878049690048347
0.0845940134302569
0.0865861750138761
0.0835072894735365
0.0851020029224407
0.0847219453504496
0.0875676500167316
0.08328668921205
0.0841673368924398
0.0822730733214497
0.086545533590936
0.0848258962135142
0.0883519079942467
0.083647281765877
0.0856928881970062
0.0854673402403061
0.0866336546135573
0.0813884991609677
0.0866888515363031
0.082527530869386
0.0846559926624538
0.0802658756444741
0.0807711660026001
0.0767103508115576
0.0837972655269012
0.0849503382501208
0.0902099930664889
0.0824367527541978
0.0805511884682822
0.0758300613626002
0.0885865412011761
0.0832947378105003
0.0804705995964046
0.0795592869075998
0.0823628541957547
0.074057284816045
0.0822873722233982
0.072600813943998
0.0853170615624299
0.0763478526077237
0.0858249395143599
0.0783591825006709
0.0857834239625368
0.0800615553544706
0.0881305745015367
0.0787751620536843
0.086891021407057
0.0789428750902094
0.0846307615948036
0.0833029692265117
0.0863209011412489
0.0812449440865932
0.0820669725429735
0.0767607408763459
0.0861929089635052
0.0794670784470853
0.0829702148688629
0.0787865214895129
0.0774922025428425
0.0748245701639491
0.0784228141628491
0.0759850391585756
0.0816633533662579
0.0880650850675977
0.080056336750708
0.0879400121265105
0.0716791425800985
0.0851068581052346
0.0722294453649684
0.100834806155395
0.0700922180993558
0.0923201476508566
0.0635557120373473
0.10956382239919
0.0621392127497587
0.104916117905539
0.0552792229017346
0.113006735439827
0.062696406257005
0.101101104969794
0.0648766999691625
0.101988049305807
0.0679375638001938
0.0916530178069023
0.0768280155034647
0.0837185491684526
0.080955815470156
0.0832294809286498
0.0867784002330053
0.081440308112238
0.088057824071687
0.0801981032420337
0.083205805882411
0.0828176022358051
0.0795037249436548
0.0839309344007728
0.080868426681042
0.0834952993049635
0.079759744068061
0.0854899510828828
0.0832101839512899
0.0819016559920419
0.0801780955718573
0.0847782533265692
0.0825928479086501
0.0822148554308947
0.0834102317370119
0.0818527720478457
0.0807521093571556
0.0840200880850421
0.0815588489867726
0.0824998053922449
0.0813714853859237
0.0834367837890894
0.0835909368445172
0.081112449197084
0.0813393698244588
0.0840216142155924
0.0821416115770555
0.0860672379750026
0.0857861479975782
0.0836813003577011
0.0850748954037379
0.0843193876554426
0.083264716351258
0.0843201610500583
0.0847919679448532
0.0834684588606573
0.083553933850301
0.0855988519359244
0.084080198949914
0.0838257203482759
0.0851891689575105
0.0850842322596889
0.0843832699028582
0.0848817278594199
0.0840638619882466
0.0860200673271789
0.0862938629698235
0.0877076129407007
0.0834254830812699
0.0877761478249628
0.0863419368623302
0.0869693413021109
0.0888870057939536
0.0889156414193724
0.0875918530395332
0.0869427525438223
0.0866294264295331
0.0873778342247287
0.0888846656354936
0.0881136242022389
0.0869128483047263
0.0889005494237358
0.0868246343163189
0.0860442669150429
0.0883722785199744
0.0872742446132068
0.0884640203971174
0.0877147322292663
0.0882087152661452
0.0869089736267444
0.0883321438971894
0.0882348258888312
0.0879432306337208
0.0899163465057365
0.0894274418704649
0.0877296698988875
0.0879051191909753
0.089328609164137
0.0900278268706942
0.0918235647241644
0.0894935929848291
0.0886442609636217
0.0913751456234559
0.0896906417332767
0.0907696491053784
0.0927764450260877
0.0897217467253028
0.0899668056744142
0.0919857092134641
0.0905488964135468
0.0929824638364934
0.0933374265297187
0.0920303749749197
0.0914237048729588
0.0950801122953479
0.0929716043836092
0.0924994482290977
0.0908334625010983
0.0918972737329809
0.0921137114204846
0.0931289371605055
0.092527692681567
0.0944062150852683
0.0938575131583406
0.0934287825283432
0.0958546317056572
0.09546650462848
0.0933516616759684
0.0947571598606043
0.0949367738108542
0.0952326244180837
0.0937600900935436
0.0972605637325311
0.095414814003341
0.0969665546533045
0.0972657723666066
0.0956957919328249
0.0951575126306811
0.096031795817212
0.0962324226596902
0.0972005069080275
0.0970789871927503
0.0992708737019433
0.0976896723428538
0.100107283783622
0.0961300688555782
0.0963511290499275
0.0951284723880458
0.0956437901593947
0.0977874062152633
0.0975923705835022
0.0991207786208277
0.0972718132163556
0.0987748760628469
0.0975994627437387
0.0949229716458457
0.0978243228508186
0.0980517610228526
0.0973864903217951
0.0991127397815719
0.100876966785767
0.101998034234227
0.102257843290787
0.100021570385982
0.0999616815862319
0.100055952663613
0.101196726491804
0.0999012714284211
0.101690454229662
0.100576637544312
0.101652822890215
0.100544584609695
0.102302035419503
0.101772912639133
0.100970678204208
0.102238739827628
0.101908692780678
0.102357918675803
0.102190460240083
0.100316077357076
0.103728228750828
0.104413460807664
0.10265312344712
0.103227110519399
0.101886122463939
0.102739362130154
0.103986727895844
0.102965558459305
0.104429211253808
0.103654535399596
0.104900767988134
0.102726559802701
0.101428437650456
0.10297845277065
0.10245190604744
0.10144897886672
0.102775478313464
0.101180800357626
0.101620010626984
0.102379866706929
0.102815808527951
0.0999157183878996
0.101798715986832
0.100848613092355
0.0991802809152039
0.100895792071298
0.103301540137851
0.100727312367961
0.101447308374478
0.0996986420156695
0.100767605513128
0.0979809058488197
0.102379678143901
0.101109936465717
0.101630037048025
0.100615490618424
0.101381829855568
0.0984604837925944
0.101553289223318
0.101005327977949
0.101138874795063
0.0995966929267418
0.100168486428518
0.101374906057206
0.100906792859324
0.0987506067504454
0.0998959771900409
0.100320221574094
0.100051875561106
0.0987300808401999
0.0998158240530355
0.098231440962884
0.100317139917158
0.0977283445551852
0.0974073924039582
0.0989324859678943
0.0998926875385132
0.0982453778023564
0.097770517392941
0.0966471930372891
0.0990251290752426
0.0986547525554178
0.0982437748999506
0.0973925221241348
0.0993473079298645
0.0966340762724169
0.0974008855276197
0.0985942390023822
0.0972718825557713
0.0988059079489461
0.0980143703182324
0.0984510533752302
0.0966077208191467
0.0956332208583725
0.0958253926204873
0.0957302903951512
0.0961911499631352
0.0962899866144502
0.0969132390766264
0.0951434210939914
0.0954672085389204
0.0958355665780174
0.0959744503129216
0.0966736720908034
0.0964408598524721
0.0934130855466422
0.0953406534609945
0.0947655980438668
0.0936462842955618
0.0947554602030802
0.0949690129283453
0.0954031277349007
0.0928120768429504
0.0935620054777359
0.0950736289146081
0.0932053330681374
0.0959614264982514
0.0936628679331043
0.0951345264332125
0.0938242020558383
0.0951812314656432
0.092359929304762
0.0953178748590186
0.0936940861412953
0.0924882376467756
0.0937741008615698
0.0916673184339003
0.0892781948391711
0.0947594513186259
0.0928472846645298
0.091150495458405
0.0910651056527865
0.0921177402688828
0.0897884076385319
0.0907028036359339
0.0909532419029976
0.0928489694921153
0.090478315378252
0.0900573900118735
0.0910035700454092
0.0910035145727758
0.0912397906197886
0.090006395646052
0.0897628478280128
0.089150471499932
0.0883630669030106
0.090303468548913
0.0859396538147897
0.0899328308738921
0.0855914218828878
0.0861961861689723
0.0867813228485741
0.0871589219871192
0.0868724789666653
0.0877622128568973
0.0868000562828848
0.0864126396542611
0.0839193119720063
0.085183358383276
0.0847737669924724
0.0863413864307808
0.0820418388952247
0.0822525161232839
0.0842491016012089
0.0816387764577302
0.0828429525484595
0.0839508197794406
0.0809470270221405
0.0833425443575012
0.0818745941283739
0.086059970750786
0.0817343098975211
0.0813579043537334
0.0787853239915108
0.0800686381345485
0.0780238566587672
0.0814298621777897
0.0796647410695663
0.0813169186265287
0.0775627329443157
0.080293481085629
0.078243264632299
0.0771144317814937
0.0752073090220007
0.0788314654036397
0.0773388914610927
0.0789405571127554
0.0755962808699428
0.0784990969723756
0.0757072673041429
0.0768682540472532
0.0738005976291028
0.0756118181377539
0.0734978652466848
0.0765456452058338
0.0700983425675985
0.081628121153381
0.0776198395761531
0.0779298302292326
0.0739580538504762
0.0766175865983798
0.0744529996153553
0.0751546222834689
0.0742432880005296
0.075242354256899
0.0736925903949529
0.0739370641498196
0.0743314452944539
0.0739962665496603
0.0728705604645479
0.072559422872811
0.0734624834003433
0.0724442128598329
0.0729579449084495
0.0743380945537436
0.0737561586032902
0.0726148746811129
0.0715818239948712
0.072341367516765
0.0709836930920114
0.0719167147881589
0.0712548883905153
0.0700264550563143
0.0726374836126127
0.0724035566271041
0.0732817401703795
0.0703116785723658
0.0718885308578559
0.0711243031790095
0.0721103684407252
0.0706989558744328
0.0686942220705614
0.0697417589431952
0.06997155925522
0.0677042527362621
0.0691982497198644
0.0704501169599638
0.0690454982567766
0.06864416587813
0.068043815694038
0.0664881978777398
0.0675203223522362
0.0658943336609118
0.0672933892016405
0.0663310188793402
0.0700790869836293
0.0663806378774062
0.0708729809040975
0.0628395953966036
0.0707277197368381
0.071571326710314
0.0688733451221055
0.0682884215513583
0.0664032235842168
0.0636619433732843
0.0672447650055133
0.0673078897768423
0.0640843644259212
0.0670552788556506
0.0648729996245949
0.0657379638489534
0.0652484102283781
0.0666152113616708
0.0675753389621879
0.0649830641666368
0.0653784120358279
0.0673095905853514
0.0648900771387494
0.0675611749650923
0.0660097946703645
0.0642905005945158
0.0726415279250308
0.0671654570179572
0.0692125011907826
0.0635464111028384
0.0631236589244152
0.0802975497661441
0.0659634171544088
0.0697678897705413
0.0628095073048054
0.069308460696509
0.0619003400619572
0.0710174139991193
0.0589145722236191
0.0681899316962529
0.062894708583326
0.0665539316269663
0.0657192661006483
0.0669356699473242
0.06261793575248
0.0661140243526217
0.0608687283614488
0.0644524522864593
0.0630083423686538
0.0652690421167859
0.0641094136614221
0.0643102450452467
0.0600372479177953
0.0666753272793579
0.0599923103490956
0.0669235052768493
0.0623181126902742
0.0675390958647946
0.0618161136403231
0.0678109845909765
0.0587436074030606
0.0704115145873989
0.064911717601494
0.0666091060593945
0.0615930131794852
0.0635918402806058
0.0637739366317636
0.0657345133770763
0.0613691876352476
0.0627845970568855
0.0629302731049064
0.0628349691154678
0.0643844444030965
0.0647184888467669
0.0646109519697365
0.0615684948194329
0.0634408109463134
0.0623970882922835
0.0655459238353068
0.0613078536526595
0.0635213005676549
0.0633755433799933
0.0595085422379397
0.075226879822811
0.0639283472644686
0.0756686699834588
0.0653696550730151
0.067760514435514
0.0608159644833581
0.0664046998655669
0.0603310536128595
0.0654202733078976
0.0614256395315378
0.0680862660030657
0.0624206168292624
0.0663526806187777
0.0630728513805031
0.066235832746224
0.0599386898754856
0.0656530342240251
0.059900066873932
0.0658244692777143
0.0614587736298031
0.0646546675511366
0.0627195478151265
0.0651359618429962
0.0650907360351086
0.0670034136907556
0.0656038985766909
0.0559168360620348
0.0852738650870628
0.0644703517967063
0.0735163873873158
0.0609424192406043
0.0659891822274338
0.0624462501437871
0.0629707202442575
0.0637753366800081
0.0664708582338808
0.0664134606256985
0.0668903447251189
0.0667133352235484
0.0678232036057959
0.0656960816479713
0.0608989383560435
0.0732901693067564
0.0767743411094341
0.0689114715658709
0.0711801230911119
0.0595191514727337
0.076092102687895
0.0734039224989077
0.0697908717067116
0.0682152445336798
0.0667120273324548
0.0708795161058692
0.066244224071052
0.0675105940620867
0.0660325502947121
0.0742770254950988
0.0661451129761087
0.0723616000645895
0.0650212817628542
0.069056596100916
0.06898686236824
0.0677593099603812
0.0736469468308344
0.0739936744254224
0.0715290548856746
0.07294842974132
0.0671326875910506
0.0701336771654135
0.0680827195864676
0.0734295775293521
0.0685994360580669
0.0779559810874745
0.0701557708763277
0.073091903031719
0.0772022683469377
0.0745105602321485
0.0712994795510195
0.0754450662550262
0.0701350029636287
0.08309041594904
0.0606150017358259
0.0923184205728772
0.0695766620898649
0.0918247303574774
0.0745650362607876
0.0799390825592814
0.0718578367811741
0.0775326562629666
0.0725999396670211
0.0732154931627244
0.0862194769991438
0.0763022237782694
0.0808767663662885
0.0681732027476895
0.0844656993097018
0.0752019685265647
0.0856034409244373
0.076926030573724
0.0818852666177374
0.0731126106834965
0.094470500255792
0.0722452875485291
0.0821407410012713
0.0895256773154454
0.0841199188694054
0.100054858565768
0.0767604021225228
0.0877960801747144
0.0872378286895302
0.0854799218225568
0.0909734779315961
0.0803164122580626
0.0903116408136149
0.0752234286203313
0.0910944558476216
0.0999146550751881
0.0873498408744358
0.0935463501129938
0.0836375406463281
0.0883621409744867
0.102689968913646
0.09275956429784
0.0916902836989569
0.0935465743953124
0.0933833384509673
0.0853396826926945
0.126701379539661
0.0892843380450427
0.11663909781695
0.0946820311749121
0.113017738624795
0.0973215417470655
0.109429732802649
0.096179948111391
0.113086704169806
0.106884382307618
0.110740831004768
0.0934466141978464
0.123263160429702
0.111674409850398
0.114417541122569
0.111390032459393
0.109496906835899
0.105625315521867
0.12797409069734
0.135325119895218
0.133973062721616
0.116046028857175
0.123009558392034
0.129281843940721
0.125927896206006
0.126379113436353
0.124359324269962
0.128882977239764
0.129617545524144
0.131510269991637
0.138280761408297
0.131138375299378
0.144376409171759
0.129487031635883
0.14697701667503
0.139364022073161
0.179356565525904
0.15003923102633
0.154840671371271
0.155529910043666
0.158751446258834
0.162535060870567
0.154759856979638
0.163744031176098
0.161360725898614
0.165710705894813
0.167863438649508
0.165847049742146
0.186117693224933
0.171557265996005
0.200347352722677
0.180816808795012
0.195947611694072
0.172089751549237
0.198836055711413
0.263392260483449
0.212765845033778
0.225244392240548
0.194406778254961
0.24665474721166
0.234917630475171
0.243157344349582
0.233370842394392
0.243381925810487
0.241965037437526
0.256851913232379
0.254875093105088
0.269050343691508
0.272851542106274
0.282642941574214
0.273365793531294
0.302962652270962
0.308534105493103
0.348278568066956
0.314432674809676
0.326834035996162
0.326957484914419
0.341050179330157
0.335674605008236
0.366124290683845
0.339781379865569
0.385029366048957
0.38221129034627
0.402256747755995
0.38202976028151
0.404588604018232
0.40546622154161
0.407922782925679
0.442304499376723
0.432450250171233
0.44516414685447
0.42954160423502
0.461107480777875
0.44841516392901
0.461779410611833
0.484872084274573
0.481046175576323
0.487644335764285
0.487580451478169
0.500565728057908
0.499762701719099
0.514276681392584
0.51188646029394
0.517083513654757
0.519569493739446
0.526880348318638
0.625837886712112
0.55136545080916
0.553421246867901
0.527939672406443
0.546692500380191
0.558659966306334
0.553615161143307
0.589054822500335
0.565736028356469
0.565789080234395
0.552493279883402
0.561072815477806
0.55536898166327
0.563967110575925
0.559257250684407
0.553027937045964
0.577320226054554
0.543557835452882
0.619900726063596
0.591191321072113
0.566851567784584
0.549287176688123
0.556934672506022
0.543492547735489
0.550817175595987
0.53518974764284
0.55444699091872
0.549705389175643
0.537498999273437
0.526316133041909
0.509754434726829
0.558106433430004
0.52949348586333
0.527987596774756
0.503434088091476
0.494132120362238
0.495072254807052
0.466993280322866
0.505254911118612
0.498719460614472
0.481637347478803
0.47364643648567
0.455731388558033
0.457558751638142
0.451780222255245
0.442766952085507
0.442446554461793
0.433078147545746
0.433629077732168
0.432854891662253
0.431351229704066
0.424283601872754
0.420351100423711
0.418875480037043
0.411381954994065
0.415776404441517
0.401438402021949
0.410217728927219
0.401873469080547
0.398572346720259
0.400315774948188
0.394640481666114
0.392847727995827
0.397442571143109
0.3908869267296
0.389735430220544
0.383856289703784
0.388148915883103
0.379127974235484
0.384305688452589
0.375079807364647
0.379654980244416
0.373815588308073
0.373849392828601
0.370923762187007
0.374850103581071
0.368364495829371
0.37384107256265
0.358249218260133
0.370440699869058
0.355496066909355
0.350222435600396
0.419207761298912
0.369193167516881
0.368175902165101
0.347954819734934
0.364538348385801
0.342914463239494
0.347699257334104
0.368802322849185
0.357100478630238
0.354240973800665
0.3440372526341
0.337296138763483
0.350898206163737
0.341989382593228
0.344902208412595
0.336494963711571
0.320935605059061
0.372043759585365
0.331580697591075
0.40890245852295
0.349686199993673
0.352630699237635
0.302180350858088
0.358520964604217
0.329091044352743
0.330693069119363
0.314574688322093
0.316833908740124
0.323313034291939
0.316136231135832
0.317572778300723
0.308512946573116
0.301199433735879
0.314986402793536
0.319245854830915
0.301582740428881
0.321853954192882
0.313042717644373
0.301482423095825
0.307284634572785
0.34110642870967
0.301981935325559
0.29054160427953
0.293582592659147
0.272033824379331
0.290629918840521
0.295103962342342
0.286640948433471
0.287866247025767
0.271618339960751
0.273007437887531
0.266308152982643
0.291395196092749
0.257285657110845
0.285714203239561
0.26482787185533
0.263984029469509
0.259925844152278
0.259261224563806
0.293440435100084
0.275500406124555
0.264780971931375
0.245674223470565
0.281903621128399
0.259521105816873
0.267789713172892
0.255302147368549
0.244543650895853
0.251471072000377
0.256202391445959
0.237726378090017
0.250151136553675
0.237436229220994
0.256244999962387
0.242606469524132
0.272595365268126
0.263848534055393
0.237646814836988
0.235198873349327
0.233712855703545
0.240042613355153
0.2368391604531
0.221969124088061
0.254631365399189
0.227278191116921
0.252722387326993
0.242112257953058
0.251129763285971
0.24211053307572
0.242026746924858
0.240440090786769
0.249100662485926
0.257749021914942
0.280905560560124
0.244804193987122
0.2661445453863
0.255722898341617
0.27307220545627
0.261573952907648
0.276413218213804
0.264892410771783
0.276016838501422
0.279308655131116
0.286636221291611
0.282827354047004
0.301254243460003
0.286241304294124
0.330381939495555
0.304598980714647
0.321795218489621
0.317398268529344
0.336051949418877
0.365505514772402
0.34129595690774
0.349814813783973
0.348906991259337
0.35722095396931
0.364555830017126
0.353864819716552
0.386866405692473
0.378288042982642
0.384915486010341
0.37863714515316
0.389753365147178
0.385874774083594
0.395922334140544
0.40412464259317
0.396774346184587
0.454545129667611
0.416992439484882
0.428796865468136
0.404554385006766
0.41733464937337
0.419943538153921
0.420823969486473
0.429897874196284
0.411014510126594
0.426827739199462
0.433448735974859
0.427043073888793
0.428859615702371
0.425875890893575
0.428263090563153
0.430740633778741
0.435461334103755
0.439808817524314
0.432000229234527
0.451143081894675
0.429015502911103
0.452795919957804
0.481288198026895
0.454635579001907
0.451823845492821
0.449999577714571
0.467757085484299
0.455508963627522
0.462355943192049
0.478777379421908
0.479020901445612
0.474581439691285
0.473426691207766
0.478039802378017
0.47516081244144
0.487803104372873
0.485727423813029
0.48957194638921
0.492659332478255
0.469829366240588
0.530574734737525
0.50099086633502
0.517110068418904
0.49790705983047
0.508339279758773
0.499415135485792
0.50895896071832
0.4968950009623
0.505055089138831
0.501672096292745
0.508774636462253
0.505237113489677
0.502059247324037
0.509698036300285
0.495120735867335
0.507319100012126
0.508611890414356
0.502660398097457
0.500436646153328
0.491116031709908
0.496077593027464
0.489616145944524
0.506453258530911
0.501115359328684
0.505126921014332
0.484651670049224
0.498243027029889
0.50705243020972
0.502134753283047
0.490789966202027
0.495029923709831
0.493023451283373
0.500459805129352
0.486905617909099
0.506388482516397
0.499781923223458
0.511296302739684
0.497617991305779
0.50835297058969
0.505910314427037
0.516072652126109
0.511460058887593
0.516051537323376
0.517581280532823
0.526854182173119
0.530598874134186
0.528138291315964
0.524718293076137
0.534388417920784
0.538323621140106
0.536823513909849
0.531394113125961
0.530782767720061
0.523789979334523
0.524712597069403
0.523411606756032
0.527758056458767
0.511509509912912
0.523544627983209
0.50322043352779
0.515823612110536
0.513034955310612
0.505714345809831
0.503628018664723
0.497475987728795
0.496129076112573
0.484252216962
0.495404241532134
0.483367399678033
0.490085876808188
0.485212245103591
0.47778315850363
0.476085888195838
0.474722207586589
0.472125870356916
0.469951135776363
0.474039469356478
0.469707749933408
0.472699015899876
0.470641198413699
0.47036122323459
0.470260976891835
0.47061620234396
0.465344384019917
0.467622955140229
0.472735344233524
0.469250987733709
0.467112522752562
0.46198353001727
0.471927332519604
0.461263097100718
0.470012767832377
0.454716543180299
0.462560058393073
0.459299976887738
0.459989274392854
0.457795520605706
0.457658324304782
0.459454776456944
0.459718603509474
0.454775128695867
0.452534625551457
0.455186726123718
0.457123913771972
0.452657546110226
0.453739560233143
0.448526694493248
0.44881330764166
0.452058201360636
0.446485400523304
0.45116520236155
0.447105302435129
0.450793964925818
0.444508585812412
0.449351428074971
0.447673905045792
0.446020546562066
0.444776902895094
0.448266283152258
0.446314262334439
0.44558702294191
0.443616964844695
0.448570162061348
0.444390461003066
0.439763465290963
0.434521978281312
0.43604143870107
0.428703249539311
0.426664031915123
0.4250962322994
0.42179392453788
0.421219928272651
0.418114850640805
0.417762187551876
0.411247590670628
0.407800008375202
0.407275892499636
0.40623439685874
0.401360829016873
0.402409289828374
0.398131836659151
0.401320107993351
0.394087779689314
0.396310159690833
0.39314803568636
0.38904334262084
0.391510247729732
0.390764791337883
0.393887458917478
0.387650040820778
0.392162876085935
0.391006069695251
0.391041881903699
0.393963317347043
0.390922654119911
0.393451606174034
0.396844921629555
0.39684199008628
0.394399546514814
0.395286150748131
0.401665191129718
0.403426472891253
0.403515040477983
0.40898691317694
0.406337193776512
0.40494913689088
0.408739768026482
0.410655505361727
0.411461518778406
0.412596924043104
0.410303925145184
0.415478442817965
0.411520117029447
0.412234248857572
0.412824876037002
0.411145006724161
0.412479440978551
0.414817448787581
0.411850561702926
0.412166248043876
0.410385066370494
0.407861466567419
0.409512414423137
0.404312750959161
0.406063606113857
0.404027256508299
0.405120875541941
0.402247437872566
0.402677886548114
0.403540950383782
0.397768600637455
0.396704727255977
0.397398215447861
0.392549095994229
0.394724401538004
0.390693512218204
0.390453825978207
0.390451790983185
0.390689817727934
0.386127462083969
0.386361864363228
0.382691362474627
0.382717738990659
0.380961884952106
0.382476537224234
0.380448815784895
0.37466423736533
0.378300394407932
0.378531947391479
0.374795767520625
0.373456047235085
0.372151513747534
0.369037032196347
0.367650063047757
0.366617918778224
0.362514769178073
0.361916945133625
0.358606283578142
0.357367111066593
0.355578605075803
0.353555512159685
0.354368633668517
0.351031317230377
0.347801231025215
0.342403306198904
0.346182435868736
0.340209496328071
0.342542616144644
0.336097747440172
0.339510975253283
0.337966224567553
0.337709973907014
0.335518935179776
0.335559038792385
0.336349399069838
0.336191024663971
0.332760738437328
0.331578169872869
0.32899134594491
0.326055068230567
0.323927209595922
0.319298695086061
0.317830899596669
0.31488743930039
0.311444868765822
0.307391865140735
0.303180275461572
0.301725256653002
0.296824923160094
0.296149665159494
0.295230093437865
0.295670801068248
0.295284469893696
0.297715785064122
0.301672547273422
0.303472253951906
0.309745646984892
0.315741117487029
0.324044240152359
0.33269871063761
0.340864626219692
0.354754581871293
0.365383403688764
0.379051860079973
0.394410456031924
0.407292745482313
0.42111866607327
0.437169563400088
0.453448059279873
0.465932731721885
0.482595015405746
0.496550392771468
0.511120779901965
0.524956540740134
0.54527255335871
0.563601496344103
0.572508281997039
0.586647900506218
0.603253698335718
0.622664251943123
0.634206855069228
0.641513509251619
0.653662208863386
0.664801265528919
0.674534177749105
0.681299386718104
0.68937959781405
0.692391242010833
0.698868207246998
0.703200217159351
0.706627663313354
0.705213084505379
0.704629269910369
0.70485347331954
0.702199799647777
0.690392492971646
0.695646005460461
0.691321331923191
0.687463749843097
0.68717222570453
0.688790420680581
0.688397070692352
0.688029122462091
0.687421893080949
0.692799069620574
0.695477791785576
0.694271295937242
0.703141399824001
0.704077969982549
0.711484104400143
0.712398339819303
0.727698185140854
0.730149355524385
0.740534179598194
0.745804821686854
0.752445357077238
0.769472179975267
0.776337903247506
0.790304013922932
0.805344361489196
0.813000992115062
0.822613937433916
0.830081644776766
0.833428733263968
0.835868999116699
0.844339663203376
0.85288767049969
0.851430504123584
0.857983571180644
0.84088861126004
0.837332228429169
0.84355750593699
0.844089988491064
0.835213028284159
0.829352473589632
0.829656476357853
0.835181594536226
0.838692810616725
0.847925315027745
0.850277907570201
0.856580269488139
0.870979787363199
0.884376453062228
0.891306535746643
0.89540209401053
0.916084764471088
0.923224845599541
0.928830446269861
0.943821534712666
0.953113129402528
0.974778167906377
0.986000562931594
0.987473262269783
0.992736390191356
1.00587636303154
1.02967448940139
1.03937185072237
1.05731892624823
1.07380807929578
1.10373205165456
1.13393696583864
1.15585478438605
1.17299730598319
1.16604620097372
1.20560480413445
1.22988522134128
1.26086460191955
1.26657579626131
1.29707450131219
1.31045029573316
1.31400276278514
1.31770369160073
1.34876981331973
1.33583556986196
1.35678693755652
1.35126800970938
1.38506494140849
1.38494790490461
1.3479141726252
1.34719499734734
1.36523756806314
1.3057906177413
1.33555729129505
1.29903310714832
1.31143764172541
1.324009105367
1.31158858793721
1.29885882973676
1.3105453678716
1.30241071800663
1.31909619477755
1.34049196556317
1.31394232281984
1.32223809782775
1.38012147227223
1.36194329026412
1.36751745541974
1.42397273231833
1.43007625296195
1.40503035208379
1.44760940408425
1.48988314025658
1.45740427112306
1.45480367956674
1.50618996840283
1.45984082962805
1.49864054582788
1.49491361744932
1.54165798229759
1.58086749572082
1.58653687430841
1.51444582656226
1.56364043202825
1.55365661797925
1.60166872392875
1.57072019343385
1.6018024489665
1.57209025617013
1.66662191415267
1.56650520084522
1.68787095572183
1.64371599851739
1.68142262012054
1.61453050560988
1.66572865615379
1.70798695740869
1.64704443496994
1.60778997763134
1.59516057973538
1.61275679019631
1.74225056133163
1.5573172543545
1.61935278126281
1.55693774050915
1.63616084325482
1.52561953907246
1.5374169117179
1.45064572884468
1.45253185047858
1.37081394362099
1.36120941466645
1.29367718181203
1.2614737238734
1.23312735121379
1.18158608739205
1.13275868324625
1.13645058025341
1.11196827363657
1.08130385592881
1.0625501642151
1.06688828393361
1.05274516604272
1.05399874357303
1.03958311330937
1.03136421370529
1.01930409609283
0.995844858463673
0.98869520662925
0.995692118289296
0.96624998251192
0.94448645138912
0.93154112279866
0.930917789603011
0.88773981355657
0.872314733231051
0.849368179955255
0.830029960980608
0.800774945328154
0.777966801568579
0.752498061256247
0.712744714146598
0.696850229459169
0.669031378972163
0.633559653518236
0.617947363710258
0.5824610610459
0.568440818270007
0.539637689973461
0.527334456979779
0.50184431181028
0.486224954961868
0.463559439331734
0.452447212736649
0.438346400983291
0.432850657792741
0.409948861137173
0.409808933472671
0.399607164346928
0.387681553653523
0.384612171185426
0.380727645789874
0.367619936566733
0.372081518361536
0.366643685730485
0.36726834743074
0.365750866851853
0.363690053811986
0.3576790442789
0.364040037934428
0.362148048818851
0.367944856280815
0.360539914467842
0.367935319136915
0.366414153749236
0.373331241823099
0.372154705606702
0.374565983709327
0.375914149171737
0.386981914323625
0.386667478563841
0.380999901723486
0.379625272937634
0.382079023423232
0.382228813042062
0.376581622614478
0.371870901277831
0.382605262223032
0.376359778102293
0.376040371106082
0.382042601269059
0.374862881546524
0.36909610643511
0.376878516816449
0.378403447663269
0.376821752028678
0.377189637053206
0.385153918443594
0.391257664556938
0.388036717599731
0.391154167901122
0.393371842908717
0.39833871643305
0.395786633100159
0.398064050543088
0.408156831897354
0.402946124212709
0.40519884740474
0.397771997943041
0.403332383042551
0.404428641109673
0.409429327046382
0.407489720226206
0.412029584640975
0.406123762278527
0.405593008806227
0.402777749527767
0.408252722584106
0.410313847123311
0.416302070313808
0.410252065315014
0.419901632578326
0.424840524837015
0.428507091699512
0.432658050363715
0.434211595298257
0.441373235142987
0.444863253663581
0.451522748980827
0.469740703566257
0.475607875215483
0.49417585842814
0.494109234437254
0.506359975248505
0.513613312123536
0.524001737885102
0.511125534061162
0.51431548145612
0.519505089163649
0.515802826112192
0.514641468801133
0.508870446916507
0.493696108701229
0.503856130651125
0.485551241352259
0.485496140504736
0.485794551429168
0.485075861544483
0.476230177070524
0.488531867980842
0.480146523034087
0.489771640288159
0.486109232752988
0.497234309091499
0.485482389625519
0.490409539696796
0.487190429551856
0.493212988724444
0.482229868319995
0.490123810226394
0.482094118331866
0.487561444858915
0.474668960180853
0.485918700476716
0.474752427290066
0.492870675154742
0.479503784003246
0.485415906432995
0.477877139706922
0.482500348356431
0.479306655969637
0.471152152768986
0.474569764174793
0.474171669420112
0.47557468307028
0.476429308124045
0.473755384669906
0.479524322283328
0.474366143520013
0.47411829227484
0.482879284265941
0.484705457330463
0.471953139222181
0.471965138998723
0.480703385292823
0.500670529184163
0.477251682045354
0.494046579397972
0.473239783623194
0.494715834274628
0.483562116938343
0.488523703680064
0.472001864629947
0.482550250481405
0.473299187439696
0.469849495758153
0.474096567637749
0.490643818629093
0.487731485534599
0.492902837991834
0.485934332802892
0.479208927881948
0.479812753134285
0.501746051286633
0.469956615150542
0.481030775548321
0.473366322271554
0.489961916470367
0.489808865029952
0.487603926601967
0.49372135773812
0.511488702811127
0.500411616635376
0.500812597124547
0.493099330711331
0.510590117279487
0.508355633076128
0.515626652219553
0.511351414824763
0.516123775187816
0.505935956204527
0.53590676355851
0.520060296675302
0.539304782299407
0.527133876481666
0.546137236486997
0.512506426754136
0.543466363829478
0.519243986648644
0.536346602068796
0.548233932326876
0.565992510694464
0.549401948968994
0.578040236857849
0.585519700062683
0.576233632520679
0.582228712538254
0.609972484993657
0.574552829080465
0.62541617872183
0.592117386306247
0.652683787706843
0.643548334214844
0.659445878332126
0.656888445248224
0.693160274539233
0.683051472492496
0.705854699531292
0.690385606619715
0.736255324537328
0.753800758763975
0.73007806282248
0.736133465172263
0.7326903927024
0.765427772178986
0.713903694132512
0.710018825402981
0.716287213451847
0.760528730782045
0.768636458669869
0.727314439792588
0.773954215234574
0.70577448839442
0.778240945746668
0.729780977914375
0.802445691225388
0.721468800188904
0.755965075023222
0.759435186838829
0.785130937168857
0.748932923627308
0.782847272233186
0.699163547991622
0.790444445967725
0.728662513425468
0.77906569459557
0.742632745512932
0.774755018481173
0.748796438862357
0.771060023362823
0.713623644385916
0.754772030942028
0.697253794107248
0.735336647656258
0.694440243706401
0.745119721586427
0.751466303462716
0.82629767666962
0.704843840976412
0.802299483192461
0.730028670633305
0.771440557510726
0.744930494375755
0.785286990808843
0.761014519022886
0.806215701842811
0.71727796588111
0.761545245681312
0.63108664497073
0.793956331795127
0.70161429528957
0.776994514552545
0.72498962893355
0.777745997391311
0.728173079948821
0.767957531307549
0.671297238950688
0.836709202606461
0.766101951959634
0.78177567468176
0.791665785386215
0.859725103995539
0.759103146401203
0.854230149080162
0.742968364521559
0.907657039212855
0.861828834449376
0.877703386026211
0.808342501880373
0.841021071677663
0.791305372414586
0.914197064314709
0.818967660536869
0.929586088687216
0.88580331269075
0.836036077693829
0.802343662972131
1.07873432777194
0.774465024611318
0.936736894730472
0.782163366258053
1.00807523380425
0.922513651802055
1.08918383981242
0.91215550655439
1.00029654000374
0.823959842533276
1.16379520610973
0.863472022839835
0.969813007679881
1.24560782723233
1.06155143732403
0.810875930499045
0.924759473778541
0.883761163847722
0.891337760623041
0.921895644465829
1.27551647715731
0.790591194027935
0.940812198749455
0.824261406758353
1.02895816073714
0.88741370851348
1.07502035216659
0.813029714021426
1.17494873046788
1.05451763965616
1.16251565276644
0.851309890382514
1.00335377377344
0.819722890843954
0.916876865664533
0.799942136718367
1.33595469876367
1.06909383130482
1.41804604163371
0.749551059485454
0.99195587686991
0.955974979099491
1.17577041628485
0.922928744856419
1.40101660130825
0.699505604546147
0.85379192495574
1.04457346072417
1.47797934473275
0.799469240850727
0.933465751219495
0.914138796442544
1.59857733793708
0.657279321672076
1.50503808808886
1.10685080308189
0.942476866419232
0.566024565284457
1.0808880669964
0.730871709153445
0.854290921993082
1.06061530004953
1.56547918002804
0.883323428466404
5
0.803283889355248
5
1.46661643156138
5
0.920157087042259
0.651839114604911
