3596
4000.36533379555
650.420452594757
1
2
2
0.0513649636267294
0.04427889250239
0.0472274803408704
0.0422769759951558
0.0383917495839127
0.0457889172190487
0.0404006929240857
0.0357091190171901
0.04822568814959
0.0413013972364618
0.0432298028551231
0.0402704321239949
0.0392035982467629
0.0448365583794879
0.0526459325112559
0.0324282960051968
0.0442740115928362
0.0408804949165426
0.043916162208768
0.0352221710747671
0.0441115692989034
0.0379881528203126
0.0395611505492832
0.0414121323407685
0.0454046720476131
0.0382145683653523
0.0435579085107559
0.042244336884962
0.0429076902093812
0.0448019022842027
0.0467150986370083
0.0418565112921517
0.0409133699554931
0.0393363715006676
0.0449309778647489
0.0406861181007492
0.039030103569432
0.0383725063534852
0.0418940816818639
0.044277464566236
0.0491742955437346
0.0373880586491293
0.044544660299304
0.0426926777877598
0.0436008581734788
0.0425224360732096
0.0414610844568142
0.0341163133351356
0.0452670990758558
0.0465127014602137
0.0502085304401814
0.0380054979458181
0.0510580406772515
0.0483015777898494
0.0387024500953778
0.0521946462564799
0.0493600912628175
0.0376437210386361
0.0430021933649699
0.0374113594653111
0.0511357172366514
0.052776762729463
0.0420902897695252
0.0423869461609506
0.0411645434036293
0.0449273923874231
0.0375652343961257
0.040461332758538
0.0347141774448196
0.0338850493184481
0.0347596366505455
0.0380242454486158
0.0520387391138232
0.038704551305072
0.0378260676855219
0.0399955445310566
0.0385875688325318
0.0353008653219329
0.0336672830524879
0.0384674646735687
0.0501520893867785
0.0372193643781461
0.0410537694495872
0.0326025813977214
0.0395888950293949
0.0508113847215996
0.0385509334188913
0.0344899006047738
0.0507878454489265
0.0447915502518156
0.0384025263629551
0.0360110975623107
0.0362973964251265
0.0347194144866822
0.0442090411189414
0.040626590482286
0.0365845137388164
0.0356759256393994
0.0402174494778835
0.0367940747736456
0.0521535618517502
0.0189172460073031
0.0619361047258833
0.0303201810357921
0.0667711951649541
0.0570541323796762
0.0244556332439718
0.0628691591772502
0.0416891485016505
0.0426156264587549
0.036445994814463
0.0415030337451328
0.0334902244300719
0.0452974616553226
0.0287769166653497
0.0411032419486716
0.0610660254663343
0.0368723877174431
0.0466110496708371
0.0453343206487965
0.0291229289970934
0.0324410676402243
0.066259733325406
0.0407462402378606
0.0487541936182461
0.033051970608459
0.0343497473755245
0.0488407574451668
0.0537796854726164
0.0349360583502422
0.0400098000834433
0.0324075165574259
0.0344634450948019
0.017680666249824
0.0649833207970025
0.0374165557402477
0.0373628091537937
0.0221465232201893
0.0350957159015716
0.0704806685365801
0.0499709002284777
0.0387636287508275
0.032360241837863
0.028779747902288
0.0622384504627659
0.0436364745234909
0.031941072202684
0.0290169233160908
0.0474124513857235
0.0344202013985855
0.0362281991010749
0.0255062797623164
0.0456516352403277
0.0394314643305731
0.00339506003030107
0.0111388875741904
0.0871432459774718
0.0175084118415465
0.0860549827401263
0.0359355292066122
0.0514083251613311
0.0376674541304761
0.0347549032572795
0.034704267017804
0.0468432129803695
0.0338459936384234
0.0277780648082317
0.0595826276647261
0.0410251446241626
0.0243820806035204
0.0581433185816766
0.0453254795769093
0.018086528939406
0.0728304928600616
0.0520549282829278
0.0150505076224215
0.0531419983839683
0.0448528781164607
0.0339844967965166
0.0271024583036108
0.0631462439937029
0.0310045756402526
0.0438771298031016
0.02969880780785
0.0382585840062705
0.0432922594647172
0.043779555017051
0.0329836329836462
0.0419253012840548
0.0150597044225513
0.0320348853732529
0.0580255271468726
0.060821153944363
0.0332376667637257
0.0454227046233231
0.00470109796839247
0.0538849767059244
0.0692170954685908
0.0422232313147422
0.0398347851246359
0.0372954536024088
0.0340042073205599
0.037508581873809
0.0313951244323508
0.0382130356433171
0.00839449745990514
0.0614243355959324
0.0436659816350815
0.0434373496375852
0.0379080464378453
0.0347235252957306
0.0155362852837015
0.0614312594434971
0.0632080429847408
0.0350820066005869
0.0399279386855224
0.0259486685647105
0.036575812797233
0.0501310110388548
0.0429999948473994
0.044526609956669
0.0347485274211322
0.0428589179859004
0.0336821209000683
0.0356477328170402
0.0371184646114003
0.0392676335982651
0.0331524563471717
0.0359221557864954
0.0341308793923878
0.0451780142404007
0.0368856177980155
0.0368920370899649
0.042678313868513
0.0332701513946879
0.0318325651842673
0.0580475842425897
0.03779756463665
0.0430251813776926
0.0370366425090103
0.0418834236774766
0.0338387832493728
0.0418511042922401
0.0347839456462691
0.0415594411313714
0.0144033985853754
0.0557083939240517
0.0426352745289017
0.0427173833867563
0.0284377724281783
0.0502966973297294
0.0499252374622488
0.0438680807857825
0.0373101667444489
0.035707636162539
0.0336340581172253
0.0300148826141566
0.0555602242852348
0.0437548376718956
0.0329344713732777
0.0446213671869868
0.0433679722075313
0.0382607682240748
0.0387772274451114
0.0106973497521771
0.0873418329510145
0.0492773502168226
0.0131551011280989
0.0836148593485373
0.0529408123602115
0.0430347780960149
0.0365110140953569
0.00150219433713681
0.0970082092598728
0.0883115523482562
0.0404906309902127
0.0439733827099923
0.0513758551206501
0.0411768402864386
0.0401016923010352
0.0404063854366459
0.0365729845491481
0.0554397176753922
0.0414289409218232
0.0825259662677041
0.0204059188568779
0.0454258677540328
0.0648457352320481
0.0458437825877507
0.0429421758190881
0.0417764567916506
0.0344773901397009
0.0497716536210612
0.0601784694588799
0.0533498953870899
0.0502037862170765
0.0282336459238511
0.063503101988194
0.054326600236476
0.042307768722059
0.0489802790412869
0.0563819811637857
0.0400670140925485
0.0496476559531914
0.0427562610559076
0.0435122685437606
0.0377130958156319
0.0234332648079113
0.0796433506335375
0.0563101342595931
0.0376711295699193
0.0722966220892204
0.0539804766943571
0.0489105054611231
0.047830955102304
0.0484035687802872
0.0458143730395496
0.0422048714476434
0.0379716149814076
0.065008445945563
0.0552040278868914
0.0462373781460201
0.0502153792414767
0.0383312449129512
0.0475365876925276
0.0513751667863157
0.0560170150060344
0.0515235148826972
0.0530836791187204
0.0390009940297891
0.0573008194355012
0.0745859315382994
0.0341730489505357
0.0651832049227539
0.0832398717026059
0.0511167980880661
0.0596259929217917
0.0476931440876613
0.0565240038047733
0.0522642369105288
0.0674915647801922
0.052348102920038
0.0498454532120493
0.0661927067450597
0.0764362805237002
0.0532360246805456
0.0522018301385572
0.0749555433410988
0.111630118699567
0.0788030271053764
0.0699477360919497
0.044995423542831
0.072904574112402
0.0966880556450833
0.0788856201948484
0.0995449064206829
0.0712292140583531
0.0801648987594735
0.0748291220705539
0.0766419852540537
0.0747982098229528
0.0818790178623874
0.0857447284697765
0.0843970976063757
0.0797486058367405
0.0833587049208165
0.0761627618018252
0.0744054437022086
0.113160311660682
0.092336504136324
0.0885617863242906
0.0906614007087067
0.076705584261892
0.10116627585678
0.114079175143764
0.117807950935695
0.127990561221037
0.106485545777244
0.144484695076264
0.102973237931721
0.112364661353673
0.105194446037764
0.11182737331218
0.108663423997926
0.114594823159107
0.104891886726514
0.115845104179178
0.111497932355148
0.127194356706496
0.123603603735401
0.127496830175803
0.118669308241859
0.13466588447598
0.128232393183142
0.129231865716944
0.11787468675437
0.142374008401442
0.165134962039584
0.172547666690281
0.156542541113964
0.146268473244555
0.144404932539135
0.143868599881801
0.154327382683932
0.14979999413989
0.154659200585316
0.151622928430429
0.174204419050078
0.174721439903808
0.171834443253919
0.184403044972587
0.156818326699605
0.175583217295939
0.179640238571215
0.175576668914259
0.192795813513187
0.190068659171382
0.166666912472954
0.185595313564978
0.203324119232457
0.188215385362402
0.205180833255262
0.190861513071916
0.189212311497879
0.200879675177418
0.210627973061781
0.20405125568394
0.211471326342659
0.224128409420915
0.215605824884822
0.220629622548965
0.227199187828393
0.224749602985947
0.230175909034924
0.228664342431125
0.226395955326956
0.244631201656202
0.23944281670705
0.242499497830877
0.227532675117446
0.262418020471345
0.265742348642394
0.250409795535613
0.275809159127066
0.271394376147162
0.259397535221808
0.258545053640236
0.267246330218821
0.266333575081957
0.271629923080931
0.278634924518222
0.279161706185666
0.280288301754642
0.279050841425413
0.283079462067451
0.296319469886161
0.295377364338896
0.297640566733868
0.303083244213756
0.304166016663295
0.322895267007781
0.321684581786323
0.331369111749807
0.328040550637346
0.332031096332492
0.347511004628626
0.343708480406397
0.338030818874862
0.328809262265123
0.339906411836019
0.350060575361263
0.359391738891872
0.359272064867491
0.357758311271344
0.366195317646326
0.361898395168184
0.361067935444401
0.36287876493074
0.376973934785385
0.371803949108945
0.388373862017503
0.398554843438572
0.391293987010173
0.395104726383485
0.401776805085652
0.401042093554366
0.414978388322783
0.406483157037478
0.409646474709301
0.416163929049565
0.417036855478842
0.427348911329702
0.43945454877738
0.423294875186848
0.436268924524258
0.442714965451371
0.447568294587164
0.458196768713617
0.472654794320423
0.456623165673156
0.450320466741335
0.466391114775682
0.493329627994211
0.472795130191138
0.475702938895638
0.484120751970442
0.49071659820784
0.498323805101895
0.503941832530558
0.485198125375251
0.485399403655531
0.517746381807239
0.522239528434692
0.523873149560978
0.535230602129148
0.528107402944497
0.550812250317766
0.550798242673177
0.528214759883458
0.517917406899552
0.53406186108135
0.565149044809691
0.568842970024689
0.561552384025649
0.56914629513376
0.572173119208021
0.581436223327466
0.547307252347147
0.558925350128472
0.59467970750558
0.588772359436225
0.594635690372254
0.615150636629264
0.594622481107489
0.59584444336912
0.609857675875906
0.602116795097591
0.609322064755106
0.641887290188952
0.623919314409558
0.628241310765962
0.634289640744484
0.629391486892055
0.642990754787313
0.66557676361512
0.657992753595161
0.656261264926066
0.672609535714938
0.698521771171197
0.683252007469724
0.683896612184524
0.666193490712815
0.656227710504552
0.66423604083637
0.681745311332651
0.683431329038974
0.685787065313905
0.671267498498265
0.676653422522013
0.716945223497878
0.733919209120097
0.725708874479865
0.699701913679252
0.704171710269478
0.709461761296868
0.725237350998828
0.745782233425402
0.72336332868721
0.71839478782817
0.722315949494295
0.755345538382587
0.772485951741267
0.79036917576495
0.784122940756425
0.789805015919703
0.765575724712089
0.767680059496811
0.776932321297553
0.774437879396541
0.800788647188514
0.800611300967329
0.799495600850199
0.809379372425884
0.814067258494271
0.858132538305373
0.844367953949708
0.830787731767305
0.81861481100799
0.844355069726814
0.84886254158622
0.80597434237107
0.799749288223739
0.848106542208374
0.843968241443956
0.843964598833053
0.860776313186377
0.85505308164257
0.845718715044171
0.843574027305804
0.847738946723043
0.869611986654238
0.835352325849701
0.817706516158001
0.858546718029605
0.890601661830888
0.873021054442517
0.910183087559321
0.902790062925057
0.877266516161897
0.909159465514459
0.912578644311445
0.924990552510108
0.919230362241156
0.907771501268409
0.909927732468834
0.898116934520278
0.92687174515187
0.921412526041467
0.9505238308121
0.942808263095958
0.917300397907313
0.948429395952728
0.999347852711836
0.93079249534735
0.952073418601627
0.9627512066142
0.952652719308791
0.933620310965024
0.922835857086915
0.981484426649614
0.966862544981965
0.937589459291418
0.967572946292117
0.985268300800946
0.998005910763122
0.984231619803407
0.987240861796826
0.99867773707211
1.01151589077881
0.946498249063125
0.943364022879656
0.974009178506371
0.979015632564068
0.996970562443176
1.04951441696795
1.0619435945296
1.00404463640174
0.979022324915716
1.03704174439864
1.02512136205013
1.03787099675637
1.04245916197034
1.01798131294408
1.03289507628512
1.04446992965811
1.03971988862655
1.039936319818
1.07184177910448
1.05806393428959
1.0166802477498
1.04518061935432
1.02623423686011
1.00387613208217
1.068031612338
1.10906816462497
1.06481281590647
1.03725069215641
1.03819013376327
1.05917742607296
1.05308551910261
1.02369975287468
1.02712810966598
1.09189444579006
1.06103544944182
1.04857408565131
1.02425437234164
1.06172321761928
1.08388829216863
1.06501180872225
1.12420682626362
1.1197284920921
1.06041057644169
1.11741485781829
1.06525176031066
1.06469606970667
1.09468692083806
1.09836679648023
1.15841226080768
1.11783276256426
1.09991980141029
1.15384475417267
1.13591194657445
1.11711598413043
1.13543936331192
1.15604805158981
1.05855339350183
1.07038547501921
1.0886471464934
1.16647138710781
1.13808128213115
1.1118875520078
1.11367419060348
1.08004071235534
1.09131613740147
1.09989110205504
1.14271899561084
1.14178152444738
1.10538688961455
1.11486984571752
1.10139760464816
1.12471575331905
1.12273464267435
1.15210229757895
1.14223082782906
1.13683283671193
1.14003958534763
1.13468493496204
1.11496672278569
1.13206740048111
1.09657686253417
1.10699855065518
1.10594169423184
1.10679380125664
1.11222574205815
1.11288047587579
1.09633574384951
1.11566512206159
1.09887180377388
1.09234504057148
1.13446993884573
1.14074624761298
1.11076907073026
1.13264564123638
1.12126713306277
1.12325584595385
1.10165782956872
1.10122827842106
1.13062141579214
1.10897933803599
1.09315396173941
1.13849833843722
1.10722029456584
1.10539233302966
1.07515618260548
1.13094535465068
1.14542150660057
1.09036606159162
1.10764429832351
1.1402691808472
1.13726974020739
1.12139907433904
1.0719513269467
1.09562750315487
1.11952139998505
1.13181481950856
1.11365662699136
1.14500882669049
1.12726975284601
1.10334463725943
1.08358393828943
1.08482275098046
1.10164374699083
1.11476622085125
1.08914176971521
1.0929341609537
1.07166059396617
1.09686485842958
1.12014519270874
1.15270123278976
1.10252184432673
1.0576889401303
1.08905887360519
1.10405074290194
1.09001098302976
1.09212612454173
1.06141849553356
1.0923329906883
1.08612164001048
1.07748458808733
1.0828763902521
1.08771158047243
1.08511438970579
1.08684586256592
1.07182950221366
1.0913708655483
1.08068061546175
1.06284552285956
1.08735625424709
1.09683363010212
1.08053376327825
1.0887440789046
1.05561624912918
1.03404025597723
1.04687322963138
1.07889965798775
1.04865643199318
1.06237042046687
1.05553849506133
1.05285930245311
1.06369487419239
1.04476718112157
1.03863102969895
1.0778006667241
1.03950464301341
1.01272617436903
1.00666009336716
1.03385222545811
0.998185629565186
1.01924598376168
1.0284190609078
1.03828355290676
1.03182807968225
1.01681434295983
1.01370847616147
0.991553339156552
1.00074454840702
1.00562781782347
0.984809797079851
1.02623949268825
1.0255838045633
1.01324947517155
0.988027365317803
0.998277946285491
0.9886027708902
0.979669303781103
1.0092721608296
1.02433589747254
0.971154154728684
0.983870518609975
0.983408501730399
0.975443241365769
0.987289184907922
0.998519886953972
0.965030435327594
0.978212020811132
0.97822623761896
0.979619965425948
0.945652703935013
0.94760744498831
0.945912297541742
0.959866157229449
0.93870001423468
0.928155793047583
0.946666730782181
0.951805204737227
0.95190808657757
0.928548975915036
0.934001239110342
0.931936847122496
0.919559464818965
0.92163547461529
0.891399254709385
0.923252703710729
0.916073576692442
0.908736555694065
0.898663154767732
0.886882730878055
0.890004126181619
0.896603877705055
0.872064226330156
0.885463808630103
0.900349178734899
0.902942238009434
0.886549607621204
0.905951415045817
0.869363347478
0.871426139236148
0.890690354311849
0.86363033641642
0.8359117685443
0.875953970436141
0.873525278580994
0.849301541509549
0.845445599559392
0.844335071393462
0.819227802659134
0.84590826453129
0.833826437258494
0.83306333095182
0.814522385345098
0.799842330507698
0.810374651428618
0.826445210755276
0.79192220425285
0.805154955141074
0.811231039019191
0.794452884258094
0.802548832640264
0.805038691486616
0.794260566607365
0.787690840808141
0.787088772642787
0.798930083942175
0.771724333556938
0.77678441298645
0.771272820420304
0.775593140355356
0.769715151303503
0.762293633891179
0.754718340319572
0.758326691936841
0.736502549744298
0.746344721462978
0.734749637296803
0.728937733095471
0.720753779195937
0.723432738876657
0.733069535969072
0.719474003698756
0.710881045685924
0.729662178976121
0.711027501060322
0.712589899151792
0.700799797983701
0.709016824254693
0.699701285426044
0.687445402896283
0.692190272705232
0.697901630090715
0.675061264663321
0.681253606963037
0.67823304888865
0.665147711265822
0.675780230829878
0.685850195189489
0.666512500794233
0.664921568846655
0.656981585788618
0.654659626525678
0.662528260345445
0.659569791373397
0.638929657823412
0.635516955060714
0.628581355965399
0.635222486963965
0.621275328933896
0.63136124627044
0.62985005114511
0.628876706416375
0.615247265932912
0.606744369715997
0.607665466690175
0.610183386164801
0.590194840866146
0.607269924384471
0.601108583941901
0.589201538242114
0.595875739796375
0.592089875414307
0.582324750985796
0.586285230381175
0.579661317348728
0.584543042502218
0.579312150139054
0.575412454554498
0.564595852664809
0.564721417396912
0.564792222178898
0.564777199759683
0.558022205108947
0.544676857747464
0.549784070174154
0.557501219399381
0.540118292871176
0.543273539702981
0.546138194068641
0.550766599269417
0.53132737618151
0.526445878787463
0.529229747098192
0.524639402979412
0.523374027186631
0.524331593861198
0.503841939811059
0.511427269367384
0.507080466937034
0.505285125268528
0.505164295160772
0.505888198415331
0.492087848080523
0.49702491850366
0.488422687511727
0.47944770311068
0.486937212435078
0.491271368689596
0.486070970616124
0.486267107270905
0.474768818486304
0.472532239075956
0.48001898168087
0.474430514442458
0.468083035613515
0.471388812984088
0.462554840559764
0.467053291315892
0.455990625203914
0.458404495545603
0.455368439858633
0.446178335222752
0.441894011281497
0.453397379170383
0.449703315655349
0.443757396065212
0.446518508144564
0.439872756229882
0.433948143713611
0.441127335150291
0.431745709112481
0.426823464764203
0.423576759053945
0.424701152363176
0.418180378546208
0.425353874324193
0.423422107186177
0.417284947427147
0.408749318710321
0.419691062495116
0.413255396942775
0.406615809690673
0.400015887995692
0.39815983658997
0.394286195005354
0.401269750489085
0.392540691903215
0.392724826732879
0.391068139888648
0.391499249464187
0.384096557012363
0.382304371841341
0.380909383008504
0.380545915149852
0.378549605098237
0.377724865075533
0.373474572642709
0.376115764146631
0.367320161307191
0.370360883469223
0.362682479059091
0.369274234485515
0.366478383608189
0.358291012324329
0.357889555937508
0.362265457919022
0.355192272407941
0.351387515202261
0.349404201705715
0.350537075787469
0.347454796777775
0.349348940834844
0.345361954963486
0.345739450783107
0.341341650705988
0.343193716157031
0.33789322010838
0.32992675913387
0.332196359214979
0.338648193280775
0.332506347740265
0.337140989105978
0.331457541478978
0.330124286747408
0.326313938341684
0.336184428239166
0.326198269118168
0.327155258414005
0.324973972027099
0.322674962597099
0.321614211849635
0.319811745768302
0.316574507232309
0.315807285635498
0.3189964675803
0.322031874524456
0.312577390642805
0.317992651650384
0.314527296693493
0.316085293033988
0.311571178029369
0.310486209630384
0.310838241525168
0.314693838832459
0.312156155666806
0.315256608483827
0.316370317252615
0.315158696921375
0.312086131520967
0.315962823634268
0.318560383778607
0.322451352442175
0.317333923017532
0.321631532146051
0.31800904994591
0.316780205790711
0.320121623351015
0.323495448076903
0.317042665619321
0.32182596240299
0.323079415127875
0.323772502154573
0.324441696069301
0.328736702585233
0.325886886408436
0.328383516082668
0.325811241748159
0.329115380371926
0.334472651102476
0.332921254021916
0.323551375420737
0.336396908863948
0.342462910337711
0.345186533777744
0.336578331273318
0.340465982136015
0.346727705693187
0.348777749247176
0.343351878144636
0.346127701134019
0.342510123382244
0.348675301591355
0.351095511383085
0.35419352275191
0.356681313514129
0.36158296639405
0.357296025602391
0.365073517819848
0.369179689481568
0.372076091224464
0.369874104967385
0.374777394381965
0.376064444733082
0.380148778217164
0.384502692938615
0.394798550782989
0.392507144307823
0.395430924107982
0.395994141336418
0.400781489602683
0.399931547650968
0.405118446140221
0.410600871667145
0.406792688987161
0.404373603608897
0.418188006950895
0.413654028483712
0.419505779950034
0.421021000121346
0.427906728760451
0.424368982129678
0.423412772003276
0.416467160057132
0.428616100070327
0.434044370825887
0.424685284809206
0.421317140375175
0.433823772147547
0.428713561085456
0.425917286052681
0.417790784152129
0.427488049319923
0.424626592077229
0.419759101337533
0.41330091281085
0.414377056833709
0.417674990118212
0.417048553785862
0.40929469232828
0.412806442142887
0.408535227415785
0.418533795092834
0.413159224795112
0.411320111542503
0.413372716696305
0.414263267694818
0.404920398939641
0.411943238600713
0.412364405898777
0.409236693066982
0.404669200702733
0.410725252630821
0.407588447413571
0.412102319534808
0.413743586073317
0.411898713980463
0.405226124161285
0.409847045486907
0.409614193811596
0.407404825853614
0.399325893559707
0.407926776426443
0.408539223516277
0.406768771283605
0.399557804399014
0.40689697668011
0.404740032602011
0.409646619366306
0.409768648481363
0.409963893017239
0.404408694863234
0.402628025920898
0.39934613889306
0.401707493651652
0.397172306649161
0.405316588909251
0.39962110560519
0.401627245208941
0.395433533437142
0.393726500187151
0.391307839422092
0.388499322345397
0.387825296199089
0.384798588150568
0.377155680470461
0.377458279921102
0.374841108592354
0.373656011522992
0.369752542999898
0.377078282722127
0.364713155889373
0.365851163115997
0.366858618608763
0.359160696751109
0.358061640066933
0.355434956865559
0.351252449435125
0.356926405904648
0.343699520235369
0.341732955807692
0.339517379995665
0.34655246131863
0.338216230007031
0.334887537677509
0.33095827940152
0.331851941248856
0.333892788672705
0.32776589506221
0.323058122177691
0.320893503162542
0.314496733080518
0.316670545988596
0.309010104646368
0.306857273635591
0.305146770540282
0.309766950584502
0.30084666259535
0.304026548315489
0.294335480701229
0.297970053326907
0.295620606307344
0.293316680714644
0.288782059324999
0.289825065880915
0.288434322831697
0.285674427733274
0.281915773748058
0.284311656919289
0.281547946913116
0.280932614275074
0.280859041676596
0.277797494649234
0.272802452479985
0.27584275679549
0.272954419843906
0.271569394378674
0.266728485459103
0.271433788188992
0.266502798420911
0.265661549066413
0.262118197752362
0.264520164005545
0.257846629780502
0.264017876301415
0.264283197736788
0.260168480476088
0.259048981891337
0.259072937496366
0.256320780538363
0.256294610142164
0.251878006794855
0.257527213304008
0.250756125074453
0.248276963214747
0.241942566270717
0.247581717532815
0.241763411657446
0.244105348996274
0.243671840144623
0.243370103872596
0.237811149265828
0.238618542357253
0.237877261696667
0.237076110122006
0.23449042357387
0.239292013382151
0.235070403466001
0.234174781509987
0.231449315643905
0.235192335167592
0.232506235610191
0.234165267535489
0.229810969147352
0.2294896277394
0.228431218004297
0.230433980671715
0.22566812662119
0.224932034092542
0.226715897456944
0.222579554350186
0.221027498909103
0.22094325024473
0.220374852936009
0.227354993132518
0.22236256403865
0.218572866035916
0.218629590933058
0.218290186554875
0.216905731641241
0.217994604777848
0.2157969148508
0.219355560036615
0.214796974453518
0.213619882301318
0.208668732958018
0.211660802211386
0.214381600581457
0.213548244305343
0.210793398831279
0.209104255678292
0.205732054531748
0.20722855716497
0.20646517306829
0.211580559618031
0.209689203186292
0.207651749639774
0.203849933591839
0.208297054623085
0.209639814825677
0.205842066508269
0.201308456381157
0.205319659782434
0.203141744307634
0.200366359668141
0.199384435944122
0.199290033011865
0.199494210946406
0.201092585066085
0.200807689473534
0.200936341335057
0.196595073491509
0.198897490668097
0.196503483673271
0.198339346266997
0.194763674403538
0.197524971446406
0.196148328117649
0.198135373589875
0.196793700496194
0.192781642418783
0.194131604994509
0.195300437691859
0.194727300166703
0.199167174008185
0.194208029871991
0.197300313395553
0.191394728646746
0.1910102654872
0.186550798725822
0.190252055105288
0.188669754718848
0.190636372669999
0.191894472434217
0.193584570752925
0.191507389029227
0.189296723108822
0.188719535616219
0.191401980709515
0.19045947520344
0.188514777345277
0.183221480580217
0.187583393762721
0.185661576621041
0.182841355719212
0.185214607967697
0.187305252807023
0.183744234393433
0.182517725636261
0.183283760011786
0.183633242442019
0.179749472875206
0.182496149251973
0.178338336157235
0.182842447059953
0.180946368069174
0.180012853233097
0.177290606605265
0.180276837061235
0.177994962436085
0.176764829277541
0.17670152743105
0.178066945266364
0.171300751691176
0.175324870870746
0.173064639932019
0.171533171167031
0.172815909855005
0.17493708610689
0.172408547904456
0.174170816368452
0.167679476710465
0.168782893987522
0.167073098659157
0.167427145924309
0.165393986875906
0.165878257378965
0.164876464951183
0.16766805331093
0.166495980773563
0.165902877580805
0.166015443989522
0.166896647221991
0.165906564729128
0.165262706378608
0.159900941693695
0.162894614049816
0.161046498259846
0.161311463511772
0.158421041356718
0.163463834486786
0.161198728972557
0.160009152163307
0.158870176074797
0.161188595480669
0.155986089647734
0.157133492450082
0.153802508797153
0.155447312838355
0.156619508558231
0.154630907386167
0.151989559180817
0.153686817659825
0.150803646087869
0.154333623788194
0.15097650133177
0.149376832038779
0.150191980398526
0.149207765325903
0.144117762149947
0.14944061214621
0.145395660016349
0.145404952503974
0.14356802812237
0.143862421544468
0.142642140101502
0.142145742775513
0.141224931403974
0.144235917824029
0.140732309323989
0.141427752820466
0.138371999947034
0.139744948191385
0.137671854133411
0.13693522892717
0.139185947423279
0.138483007713148
0.135497460337987
0.13449291988346
0.133927178129758
0.135285160039816
0.131815159848596
0.135418821517766
0.12929665252843
0.130301151027915
0.131297863892688
0.127333918498001
0.124587977886333
0.129542658761536
0.129015743871617
0.126412306599161
0.12481860398801
0.123547651060471
0.124545508318036
0.127888086255602
0.125106416712565
0.122807517550805
0.121288303753958
0.123505242931445
0.119697213536001
0.122728397277262
0.122671735860292
0.122412462009999
0.120059334541543
0.119943064707873
0.118631992851937
0.119084898146393
0.119195292644212
0.118063467848946
0.11659446056416
0.120019001320776
0.114574880973188
0.11748352358538
0.117462765061774
0.118918883522079
0.116080638920631
0.114671965224687
0.112054609113702
0.113909119036779
0.112412631489354
0.114488317157218
0.11443673227823
0.114112941633518
0.111327848165287
0.111953025696416
0.111472358801651
0.114468261983164
0.11043137517853
0.10880075731475
0.107336423973488
0.111774200883177
0.110221133129244
0.109584862308084
0.107944533446359
0.106173698450527
0.107321729581578
0.109540163397936
0.106271663621109
0.108550242830671
0.101689040531514
0.102747084710731
0.103804594369752
0.107140588608061
0.107767661657721
0.108570214348336
0.1060235085933
0.10540211842198
0.103751495130587
0.105425256267411
0.103077903043382
0.105880069677745
0.102045109343051
0.106465279318567
0.105076944105691
0.102590420562562
0.0979827882962537
0.101993164148638
0.101031539719876
0.102443350829322
0.102885033107605
0.102136802315991
0.0982155277740249
0.101131673665997
0.102549302212834
0.100410093938431
0.101462167509574
0.0994393933743083
0.0984467271443718
0.101582211780815
0.0974922089184116
0.101218340780064
0.0996802603606552
0.101433459489873
0.0994650601905507
0.0998661026888615
0.0985664533852551
0.0995079939842669
0.0989518453718826
0.0996886157913589
0.0974187720260981
0.0969764723534663
0.0957979973504005
0.101436505636869
0.0978268099828256
0.0972904625792178
0.0981602414128996
0.0966013605917243
0.0967321978864008
0.0964935407306736
0.0953156725676742
0.0977781934533657
0.0925416685708233
0.0944201315313573
0.095729617297377
0.0943789243877436
0.0912003644733725
0.0934829094743687
0.092492882226955
0.0925420351320287
0.0922402295990152
0.093416049854417
0.0912013151316749
0.0917769719867739
0.0907363019212108
0.0948653633627071
0.0906918681621529
0.0917398835899809
0.0915916324773733
0.0908461768940235
0.0891602184010468
0.0890799623832643
0.0889582805337391
0.0914568081434391
0.0881329596572301
0.0896701317925416
0.0904514724697526
0.0915650666056716
0.0878632707924155
0.0875579236190354
0.0864964622161699
0.0874607932540265
0.0881748994244529
0.0903514390978786
0.0877314832315187
0.0886069709713719
0.0876646420671305
0.0890769646417922
0.0886334332777367
0.0908734403690424
0.0869055847565678
0.0885063168667243
0.084735629863994
0.0853369646076333
0.0855175357757789
0.0865369687714924
0.0868564155497197
0.0875422732276188
0.0838799340120843
0.0860503506238381
0.0829626017365996
0.0859673778178092
0.0849688312561006
0.0837938789382074
0.0843879609915572
0.0873378661007604
0.0842212090048573
0.0851985441956362
0.0816223216390401
0.0825749231860675
0.0823033206175554
0.0849664601776171
0.0798103326484797
0.0804162294880733
0.0794160057377064
0.0814785538605609
0.0787861151731954
0.0800495622050404
0.0786668345623533
0.0804453126164369
0.0795694249347554
0.0803178920011986
0.0755013067337911
0.0797149149379962
0.0780068555023927
0.0783858642479563
0.077261944664215
0.0767713754758886
0.0744471833942
0.076138057978298
0.0754155465249101
0.0749775801327529
0.0735693089400059
0.0757938090358046
0.076229916851192
0.0740333662824283
0.0712988416424077
0.0764210188975118
0.0716604487709982
0.0720287369198399
0.0734818100298867
0.0738705768873393
0.0704456537856998
0.0732164729678319
0.0708767004535906
0.0741164532635189
0.0698166700749734
0.0711214471117853
0.0703058166964167
0.07066326981679
0.0693815832276601
0.0716359862615597
0.0688404646997362
0.0704051771824237
0.0708577718150787
0.072137624827658
0.0674161726081865
0.0702375862332938
0.0680578242941689
0.0688630106603556
0.0678433396792205
0.0694778346189941
0.0677987848968715
0.0680563021757044
0.065995882671901
0.0682457963913467
0.0672077263073209
0.0684711346172897
0.0666010938660496
0.0691570396558532
0.063407612401314
0.0676473753278665
0.0655442268280744
0.0652844123579584
0.064705766761744
0.0657995348905693
0.0624081766660532
0.0641648105469552
0.0637410683272945
0.0655071655128964
0.06208230416266
0.0649250872952913
0.0632772374420433
0.0651164579276896
0.0615306575540018
0.0646290725535334
0.0645689957244976
0.0623528652339867
0.0598326899625171
0.0637038995620539
0.0615796075876785
0.0604706286471295
0.0593311385010935
0.0601609613850478
0.0595693599239735
0.0637025799616478
0.0578154291738257
0.0595664267828693
0.0596425925066758
0.0609522485524194
0.060059673972978
0.0625382294688913
0.0599526964720445
0.0608221150694455
0.0593553951229629
0.0612625957056392
0.059145908528234
0.0611261489050113
0.0579364257114205
0.0604947616301575
0.0584951298770656
0.0630526084228112
0.059684039010273
0.0625167100324715
0.0572857262991623
0.0599668593139558
0.0581181416094518
0.061388312866455
0.0571543096080848
0.0611228029466861
0.0566435398370597
0.0614027771630213
0.0557307246205986
0.055481631263712
0.0493298477702787
0.0582926382980825
0.0591715094098149
0.0678992899702334
0.0565696268420756
0.054828226436959
0.0519219696859764
0.0637908215714909
0.058446303532326
0.060761549159608
0.0552747024898833
0.055753410352863
0.0539673618978886
0.0583562813194286
0.0496597553179575
0.0602753281263275
0.0497214555824996
0.059653797775691
0.0532226556539173
0.0595944941266748
0.0587831983007402
0.0641756968094725
0.0518040538706676
0.0591027421981984
0.0524228871372381
0.0632834670726915
0.057296080775294
0.059921856497447
0.0528422747204394
0.0574184981357657
0.0521249818007702
0.0625870377506996
0.0520477250537144
0.056741734240189
0.0518328176294377
0.0554405624278545
0.0467293867652895
0.0525431636142498
0.0480925386315456
0.0554657813835172
0.0565941827431537
0.0595278000832902
0.0583212898850781
0.0512193977022291
0.0545082905950988
0.0504496185556594
0.0699279008034988
0.0491762971741581
0.0561097552870434
0.043225018983552
0.0735936028520917
0.0441508624930809
0.0701439297963663
0.0362655402963953
0.0809194089313123
0.0440422798833405
0.0687698303576584
0.0389712016702014
0.0723385270941449
0.0420056153271164
0.0647317225323592
0.0513054905319539
0.0609011711857653
0.0506917146614111
0.0565390552269472
0.0559472361825124
0.0572926068440749
0.0579488513507732
0.0548668561001536
0.0550483435478409
0.0561889956879288
0.0520008319513982
0.0553670837896432
0.0517121143623629
0.0564249009043483
0.0528975025235992
0.0583571144187425
0.052440155543164
0.0527456814386571
0.050910347643775
0.0546492755480471
0.0545883508541934
0.055413974985912
0.0528065605385664
0.0555208870734002
0.0525197765038021
0.0564325792589597
0.0522176054669395
0.0529027559693741
0.0526900353046614
0.05409357611829
0.0539617372066965
0.0544024979494201
0.0520236171544739
0.0547281996210694
0.0525383631413924
0.0553412201917061
0.0544532685512867
0.0544239662633851
0.055989333443275
0.0561300738499973
0.0539289411180325
0.0543949619019121
0.0522534515731024
0.0542491814871229
0.0533667865254343
0.0549631250551783
0.0535126210476546
0.0549480040553962
0.0543744386184828
0.0556964998507666
0.0555310143246904
0.0556969467782103
0.05388237767584
0.0566643123403526
0.054163599365515
0.055736094010188
0.0538306212678824
0.0558207668614319
0.0533361303811432
0.0563973876738676
0.0584986529290999
0.057583947328906
0.0563458225119595
0.0566210191857891
0.0538806496561412
0.0578842525391166
0.0558932793651143
0.0558035166663655
0.0548105052174205
0.056812169084232
0.0549848339112422
0.0566657756788212
0.0573831446669437
0.0554732837482851
0.0568080893604847
0.0563515656082195
0.0559266477888019
0.0568799806036916
0.055243649901011
0.0572714988262371
0.0586697506977787
0.0571513551557435
0.0567132279701219
0.056993907220586
0.0559679526880775
0.0557823903340175
0.0578152172880834
0.0577017127242486
0.0551258296637253
0.0561830184558135
0.0587146179642992
0.0568986025755433
0.056934922039541
0.058344671651853
0.0556126218257079
0.058501514114426
0.0580334350915355
0.0563473438726074
0.0581866636056615
0.0575443572056784
0.0577606343171878
0.0585132116607961
0.0572475319945941
0.0613334536837442
0.0605097472893183
0.058167780902343
0.0587101304855202
0.0587428376672487
0.0569502638374667
0.0585576474961686
0.0586581919224093
0.0600023713448936
0.0609040893234975
0.0615854328620974
0.0615002759667555
0.0601286554924055
0.059310004320774
0.06117062730958
0.0603404776966804
0.0608489275012169
0.0619276628390231
0.0619809759973822
0.06105882455185
0.0587034387177183
0.06078061152639
0.061597489631453
0.0624085766940628
0.0630331751583312
0.0636266988572639
0.0622027463765997
0.0603530194395325
0.0620876150781842
0.063705794877917
0.0617145390115385
0.0609065173849311
0.0606320645108895
0.0606493422017296
0.0619960200992419
0.0632457535643239
0.0611013779911975
0.0602682312246427
0.0612687763092948
0.0615783354008884
0.0609510628581299
0.0615858592808581
0.0617726836388349
0.0597083722338148
0.0614211880863945
0.0656931272050368
0.0659517726159678
0.0649645252224492
0.0623523271139151
0.0614940235249791
0.0643521451642277
0.06322107060255
0.0631385976216959
0.0632074992339609
0.0634869887854041
0.0636297174023936
0.0652168794040076
0.0647156703804162
0.0636295071187545
0.0640604048446581
0.0658034489937026
0.0654565327637823
0.0650562524968619
0.063405700790451
0.0633212349350057
0.0644834408782574
0.0647050937019419
0.0653395948604322
0.0663886420141033
0.0661017348277974
0.0645689066515162
0.0643400101446628
0.064593501680713
0.0674389649317865
0.0658209847666953
0.0657546282476004
0.0664735299240307
0.0653836332102984
0.0653321495223513
0.0656811772017018
0.0648216403080216
0.0662811115740416
0.0629811772929778
0.0648960709821292
0.0649329097449218
0.0628951827333567
0.0628609641448331
0.0642482116749357
0.063891337164135
0.063927318846756
0.0647206219179448
0.0640838759756896
0.0643122500722812
0.0645825229808071
0.0614984950363947
0.0615899757189267
0.0613796715939667
0.0637463142975653
0.0644431295532229
0.0633234470066255
0.0636240583269644
0.0638545788406573
0.061784922670321
0.0612928073579855
0.0622612516035139
0.061590867968115
0.0628128593004826
0.0637840679189595
0.0628148865284926
0.0637668914295317
0.0616931065913818
0.0631480075334305
0.064454378658239
0.062855507996041
0.0633340495107694
0.0632742179752333
0.062833139812227
0.0610350236124989
0.0613978761597213
0.0616795649704586
0.0605843794654384
0.0614975973817586
0.0617614831446983
0.0610802881992773
0.0597674095183474
0.0625100416842379
0.0606602835741919
0.0610920959860544
0.0609904655045744
0.0623519593200631
0.0599696019674624
0.0615824883978292
0.0625064379085149
0.0622846946925163
0.0611527851996072
0.059826970980082
0.0619557691539743
0.0617775970588604
0.0609160756553185
0.061981951231807
0.059703286185148
0.0598818390866073
0.0604049750452564
0.060099138316751
0.0598906329632381
0.0601156461595299
0.0581668771459342
0.0587993482747988
0.0607413414598204
0.0619040534396703
0.0611411166034546
0.0605612583454992
0.0590100889955785
0.0578945588176546
0.0603185429788268
0.0593921808896978
0.0606898422044742
0.057805831487044
0.0581237265556243
0.0603381708808969
0.0582712391969097
0.0592867446850711
0.0589876218409291
0.0608471240431409
0.0609850471648911
0.0608427405815676
0.0586379685198857
0.0604299327481465
0.0590629138271422
0.0606914692624185
0.0597732756085547
0.0559485497337638
0.0574674846459241
0.0605099765962277
0.060171005863534
0.0576526924545473
0.0562282093710841
0.0578190996231221
0.0559960539147506
0.0578811965658063
0.0590308909898194
0.0584125384335306
0.0568176178762044
0.0571286888924161
0.0572972850050848
0.0574917167770427
0.0563000805595596
0.0561614083987721
0.0562869828107515
0.0548578056126007
0.0575374597263122
0.0577717407072475
0.0551980989835758
0.0561482761817369
0.0555702469599231
0.0566846722115517
0.0553485960728366
0.0563893429034047
0.0552968338538369
0.0555678499028951
0.0547890423019275
0.0546278329611096
0.0542384294066084
0.0548912757340793
0.0539833273713258
0.0531589278438272
0.0530017631550475
0.0503917309554249
0.0547210607398427
0.0531100770241132
0.0529722109871662
0.0523672792757313
0.0532757758107159
0.0524131160074974
0.0526755477129888
0.0558814464160824
0.0535782809283748
0.0526040885778826
0.0488683406564766
0.0500482604017882
0.0496976819118936
0.0516996345731686
0.0511659897262828
0.0498404915491764
0.0490431512204989
0.0511178466110797
0.0485858551524923
0.0482266686653071
0.0472623070749732
0.0517693792341745
0.0493442121069884
0.048538487542018
0.047072027621646
0.0494691592012202
0.0486443452785813
0.048760886662317
0.0459904275164274
0.0486955973822502
0.0465400474561998
0.0500744606403325
0.0454229973585904
0.054085584856087
0.0548567522550184
0.0503327627294599
0.0457100328319944
0.046635560003274
0.0471010002479377
0.0498304910399409
0.0476068987208823
0.0478357431908264
0.0474182858363639
0.0473544735795051
0.0457364268516786
0.0470986055079773
0.0472295591585313
0.0448805370371474
0.0464512599231796
0.0486845553982979
0.0469651496022641
0.048382902916563
0.0473976955652108
0.0470275522964855
0.0469388204775293
0.0473030499201041
0.0449922719240481
0.0480181686074999
0.0458121068793467
0.046953850184725
0.0479497716373554
0.0479168445947662
0.0492155623765872
0.0472018252617805
0.0452072488076259
0.0461574157986991
0.0464533784291891
0.04577158460529
0.0446258540897722
0.0452803879026735
0.0461310471393828
0.0443739084638961
0.0439605487376853
0.045724835426125
0.044634604210773
0.0437026164618981
0.04431655655223
0.0436955750281855
0.0433816559274033
0.0430639260303853
0.0439518212782358
0.0436392891428022
0.044895619972759
0.0426779674666853
0.0468776038630551
0.0406724097765635
0.0470934498184584
0.047653620261539
0.0479557054244263
0.0451996548697261
0.044365557751789
0.0409754458903645
0.0425289296385359
0.0449796112461572
0.0424951651629162
0.0417050172082964
0.0429748669621359
0.0414979469639148
0.0424220567605286
0.0443319105153151
0.0446982750225814
0.042563424590839
0.0429396851869779
0.0441446418337659
0.0428418433581959
0.0451209694254907
0.0429006111300257
0.0419965826642384
0.0510264713854285
0.0450172085235257
0.0448024106556315
0.0424368200780173
0.0409581835858664
0.0549218806432041
0.0460298450506898
0.0481301342818378
0.0405141755208607
0.0446724968081353
0.0403439747796386
0.0481926908483448
0.0379146092929922
0.0442175598383918
0.0390902849032603
0.0459856756554617
0.0428238449300737
0.0464055321154864
0.0407334982198492
0.0454348285915646
0.0393708983425718
0.0400030935321917
0.0392309534877784
0.0436103625877233
0.0424149817637213
0.0443198179935592
0.0396954610532717
0.0440260019950435
0.0382442200349031
0.0450706619295945
0.0412582108897269
0.0453299127445238
0.0391303413200508
0.04424109422705
0.0374518513637159
0.0483475936985073
0.0439300238386166
0.0442607731686333
0.0401157233165653
0.0429752854904223
0.0426629465970965
0.0447827218197033
0.0420816741800985
0.0423196773744913
0.0413514315173155
0.0418833245219278
0.0431931233152105
0.0422845118729281
0.041713167813448
0.0407258760047162
0.0413080323500861
0.0423433051193286
0.0440224311162668
0.0411100515091927
0.0426425788045667
0.0419602516332664
0.0391757626590977
0.051930846065881
0.0450351118567532
0.0524250480443932
0.0427642923808797
0.046825592467549
0.0391739891316856
0.0462263527945207
0.0402246948469719
0.0445749596367689
0.0399769102672004
0.0444629239869845
0.0396703518164024
0.044730470615894
0.0408022986428012
0.0447593757252283
0.0392393688935884
0.0433941110637551
0.0372589541977812
0.0440732749265786
0.039023266932112
0.0438668912633516
0.0407245625587106
0.0446106352201002
0.0408636324848369
0.0474655712843827
0.0417914658915087
0.0348691424593964
0.0619225222652285
0.0469935089695611
0.054020449361685
0.0389969485714797
0.0454052794476003
0.0394760843871018
0.041585572936909
0.0404958906888339
0.0467544989265207
0.0424390503418564
0.0436678706739499
0.0407206705262377
0.0467752163586197
0.0428921461318508
0.0378179501807546
0.0510969721147814
0.0570552981961695
0.0492408639966092
0.0465563092419868
0.0383965403249543
0.0534012034466732
0.0527434713368875
0.0505250015720696
0.0469712533909503
0.0439230523111196
0.0462127926525221
0.0439844006274305
0.0457770461304501
0.0438088107432457
0.0509442478617722
0.044236523375058
0.0467663775570605
0.0410857655660696
0.048106296554071
0.0454254015917815
0.0445958655496792
0.0488661230968654
0.0502798111013611
0.0482792783190139
0.0505905782246487
0.0466985371601834
0.0474605175434284
0.0440342980629498
0.0471696103983577
0.043702994071402
0.0525861193284301
0.04801736508459
0.0499735792927153
0.0530845995545483
0.051093181346967
0.0476779649241884
0.0490630987951213
0.0479808501997986
0.0568143067882872
0.0371350357572186
0.0619466259493032
0.0485725832950442
0.0719044629392475
0.0484041502516067
0.0578783400795942
0.0460349809354017
0.0531911844578883
0.0432086554081189
0.0500153349254336
0.0563594531894797
0.0531714403787069
0.0540081760614629
0.042943313608309
0.0546004113049208
0.0505188749956897
0.0562653380422074
0.048063428951841
0.0531401566399721
0.0451458343292425
0.0653683515318794
0.0462905964772065
0.054556361158808
0.0627277641047898
0.0626542332748447
0.0733268116303793
0.0502252571538396
0.0570472651370865
0.0557267244004759
0.0598548998716356
0.057802910772483
0.0514034930691876
0.0591832121833549
0.0443161457532389
0.0620505692229063
0.0719851236954362
0.0587978102469986
0.0606717345195991
0.0510441537127695
0.0590545615163509
0.0687156334127028
0.0616624451888452
0.0574353908545414
0.0613693782935286
0.0590912899655384
0.0528772473968154
0.0887466058246009
0.0604909503147577
0.0781726213480857
0.0587724283221446
0.0795115453516333
0.0652062285359839
0.0745612906195407
0.0599660404299463
0.0777779924053787
0.0711374374568709
0.0738079716121698
0.0538372807813249
0.0842626341991891
0.0727775944897069
0.0779461079549759
0.0703553222183513
0.0695376306198064
0.0643653561968665
0.085813530750974
0.0954385962332601
0.0973420419118241
0.0735678197685411
0.0799709387245294
0.0859007893403162
0.0839587289843256
0.0798049826044543
0.0798865779433681
0.0803282127976322
0.0798354609864355
0.0863992223963161
0.0903681661622373
0.0833469083009233
0.0946344946111386
0.0796794285741797
0.0942990069002227
0.0892963274340953
0.132370550499157
0.0993268772487657
0.102907076214453
0.095948414034698
0.104136121852666
0.103661678113361
0.0961825303965744
0.103932946135828
0.0984336860690803
0.105467937934304
0.103102316128663
0.10133094970191
0.119306202848916
0.102588328665262
0.135419453326576
0.11148685932386
0.12666478350302
0.0961173840310291
0.130484535751083
0.178261119668093
0.142142800104323
0.139515468627567
0.114101718323044
0.158627965355198
0.150193162376665
0.156442863959737
0.136765409022422
0.150166230094625
0.14386678224796
0.156081629059112
0.157865252411269
0.160515708908439
0.16836235881902
0.170710464476983
0.158765411730888
0.181648665225465
0.206420912501783
0.233363669574795
0.188041933770934
0.197938455377495
0.196057334523523
0.213090696766907
0.202931158145144
0.222765579295852
0.197218529520033
0.24613589996713
0.231899949245389
0.25226564192691
0.218969112530226
0.253486262734596
0.241111638564082
0.246053610777757
0.277696263470804
0.263745034551064
0.276515955520586
0.255213670203859
0.278041037263217
0.265734013924517
0.281574328010144
0.295757837624144
0.298325505617327
0.294400089025642
0.296487818876239
0.303673048609687
0.300420780545275
0.313552021239344
0.302159124042449
0.314487037070676
0.310483276490741
0.351590735167763
0.43074552754674
0.334468633727316
0.330587272813616
0.303197265955701
0.325810401606851
0.330932885716662
0.338792694740253
0.361569981099794
0.336862567293239
0.339190418891354
0.321106806850102
0.336618365440997
0.324476705435196
0.338239690629822
0.326752503755977
0.325416008974005
0.340051210699712
0.317897852041159
0.382615806095454
0.362453108840546
0.349420824954509
0.3172380230269
0.329855537779575
0.317716935111531
0.331195965256806
0.303057954438162
0.333508438490245
0.314597195333657
0.324063214207275
0.307579829415274
0.305630794540121
0.32580921989816
0.319351903632473
0.313195100216138
0.299429051786984
0.301838430005052
0.297241852579665
0.275411731320204
0.321720948830587
0.306215186871336
0.293998483477825
0.278652318323027
0.273266137363071
0.276127403751498
0.27321897340752
0.265392309847928
0.270638071772625
0.26288170746581
0.264969213077704
0.265089146910525
0.261604318728783
0.262186697959024
0.258267403567127
0.259155671149207
0.252378645545125
0.258585768143577
0.25120503428769
0.249772458929071
0.247737952451729
0.253567040003106
0.247375669372204
0.246311349352155
0.245967011785618
0.24267902200474
0.243814351594116
0.244147412577113
0.238392943362025
0.244073597516615
0.238568368508292
0.237085976479717
0.236241801153705
0.236548613912116
0.233093340526036
0.235130282349599
0.231416887214633
0.234450901364919
0.226041677372945
0.237346033834538
0.22158198110842
0.233805317461539
0.219720716097579
0.22179826208928
0.26248622317191
0.234137468944144
0.23319114813351
0.208172254934188
0.229333001590509
0.20376193463698
0.220548786914902
0.235987178661675
0.22807889288248
0.214077214899576
0.208700402641168
0.204071186711488
0.217028671756073
0.204608686865684
0.213169507312701
0.198291586831139
0.195903548293245
0.233432711840211
0.206296169934387
0.278836674555907
0.227036430274458
0.21986948195875
0.173075937380279
0.224897768753831
0.195349136691021
0.202200485158925
0.1824984327604
0.19136569178917
0.197770903763906
0.190020655897237
0.194262983056021
0.180154319605234
0.177090092192042
0.189671589521906
0.198453703942398
0.178309644225615
0.200361764864955
0.188152295729373
0.183107779372235
0.185039572533797
0.225674060668443
0.192265129997933
0.173555633516071
0.175458801899968
0.159863623565128
0.182507818095993
0.177888169679995
0.17555986488443
0.178137274223288
0.161523001477647
0.166979640188789
0.157413946696093
0.186518440785804
0.151450990035937
0.180558960809605
0.159425556116706
0.163570972290214
0.155528501240451
0.159198366639518
0.19544220647722
0.180579927242756
0.166210043515815
0.143513620929014
0.184651389429154
0.163843561888747
0.171618733375342
0.161475198541474
0.149218544181796
0.161154203875766
0.163409985014474
0.149601693871824
0.160029754697757
0.149683639997654
0.172987887895562
0.161923870407689
0.191523318755229
0.179567860077548
0.155573329989816
0.152404664457057
0.14677866055356
0.159538678027842
0.149569168634977
0.143606934947093
0.179459052625087
0.144004764608863
0.169566086432211
0.161588700395099
0.173564504192373
0.161409425144414
0.165066368509072
0.162385131969769
0.169165691003311
0.17721117383318
0.198015963940393
0.171685925260121
0.188108825790244
0.176132133318165
0.19306132389827
0.176899624912823
0.194038076550452
0.181511070092995
0.197248475792489
0.198397967146954
0.207596569634654
0.202640145845675
0.216077814519807
0.199643230588
0.248443952783045
0.220304151351716
0.236951890324412
0.225400518552709
0.256838548489703
0.267326665085197
0.251957611569307
0.258134174764885
0.249405372406394
0.263731417225114
0.269998624218302
0.257107424180489
0.289756839979072
0.280213857904152
0.294265197340953
0.278256758680439
0.293569576881252
0.284729767142067
0.298184410088943
0.307930680038087
0.300242491363485
0.35784868600203
0.316621529640379
0.334165884944266
0.299118872775393
0.309896277560696
0.30895077010483
0.315286366685876
0.318965487332468
0.306735789813357
0.324809597791823
0.32969564488794
0.321214341682421
0.317792967609375
0.323066259348806
0.321708286379323
0.320000021821549
0.327825361446007
0.331720152023372
0.327864982981283
0.340825052608794
0.320924019264981
0.349634254496131
0.369614073521825
0.357242501302497
0.348552728134875
0.341969201510601
0.355692630279378
0.344140122709324
0.354188520175975
0.36586482951193
0.360437758673251
0.361629085205651
0.361053219042554
0.367215895256742
0.357649632653262
0.378773021896288
0.370639864767763
0.373311191526445
0.370835087294712
0.355200055423279
0.407197504231092
0.386869733481481
0.399052629631409
0.376093610413199
0.386784227927133
0.373160530407004
0.3904824570003
0.374586699410315
0.389304422229897
0.382405564646141
0.383277200448201
0.38405782933638
0.381634098921833
0.381018454668234
0.378527576781618
0.383456017606814
0.392166635411904
0.379087378099011
0.371147691716381
0.374233146577933
0.372458128939569
0.369629284920682
0.384220158282578
0.374694899305941
0.379183749486655
0.364161498836961
0.372424570632843
0.388213107345821
0.378883231541523
0.366723011764103
0.369495722871219
0.367344204525081
0.373263808746721
0.359580585890782
0.380169427107307
0.378116971651795
0.390495220991506
0.374091746897241
0.384069552778395
0.378560016198332
0.389361564188887
0.387002663284937
0.392105186241721
0.387945000920296
0.397458005575985
0.393477114377807
0.398070516772729
0.402909589775025
0.40108707472364
0.409997095893787
0.40795407649141
0.397677235485613
0.406910207370279
0.395101924892279
0.405904828002971
0.397658641664762
0.402973836877491
0.391775343283976
0.399842268659979
0.378601039612428
0.398421051769915
0.392226773007066
0.387336460933682
0.385448280768315
0.383576609178597
0.375705688699621
0.372429317550574
0.371326116452853
0.371058186125051
0.376188025544002
0.368009312585997
0.366026228654479
0.362765689054623
0.362847159251966
0.358473694707021
0.361882106136818
0.359608701266105
0.355397216523548
0.355831117737617
0.358442538896814
0.3570006496951
0.352655168464731
0.358403480122723
0.352866377308373
0.355418414541856
0.362099770921093
0.360213353893503
0.359385641805294
0.351907761636594
0.360064855384613
0.351027266788711
0.355325778692617
0.351511938193225
0.353067256529203
0.349960115729189
0.350144689639981
0.346603842394142
0.349419297419873
0.347326082638885
0.346229606772715
0.348583534989569
0.350012433682249
0.347641185860744
0.346198105645173
0.338630260145996
0.342793369583959
0.34219364644481
0.338918157932684
0.34356835122026
0.338080830050726
0.338230851646486
0.340139317297981
0.337948961722147
0.337929293451705
0.34049624615157
0.336793148800997
0.336898077527444
0.333674701898255
0.336551631980473
0.334784698616863
0.334164911221437
0.332360678284394
0.332782329765122
0.331747660031779
0.328875458156038
0.329967896130115
0.328985782756764
0.323410706475509
0.323158801820667
0.324200604604752
0.318650911413668
0.315696638337064
0.31059049188694
0.308842161435434
0.303367706831867
0.302894482886365
0.302555958947009
0.300273008450249
0.29877351713841
0.297818927521702
0.296724699449839
0.296636786180068
0.29437943199474
0.288957134433253
0.289532537679234
0.290272599611281
0.290627710225307
0.28659010427289
0.289723974397074
0.288671562145502
0.289429533536104
0.286328085797225
0.291042625885607
0.29063888344602
0.291228449835955
0.29078095353202
0.29205439168493
0.289592696518219
0.293714558973573
0.292809348506885
0.296067190919104
0.296011295865753
0.296674315314921
0.299307545198349
0.297581662746824
0.299909657716994
0.303044778368844
0.300642637446856
0.30391282456953
0.307557557018503
0.305058772860976
0.305665471377587
0.307414461894779
0.304506444212813
0.307444590076114
0.305941949812633
0.306528854619686
0.307542070039659
0.30684049901975
0.305066664703385
0.307631009076962
0.303228279630674
0.30298642840039
0.305174850007344
0.301395818847636
0.302191315310321
0.300325875577437
0.298091817210338
0.30033124181597
0.2984318453325
0.296271244060573
0.296953144961581
0.29622354838131
0.292818684285394
0.29605021477332
0.293619297855808
0.292377529166306
0.291503541219098
0.287965988096093
0.291170098010797
0.290317624912982
0.286300342246264
0.28727650768184
0.284775546626699
0.282512876639987
0.282862572652789
0.281362447106612
0.280786805387731
0.281999178888818
0.276678783998055
0.275508191466443
0.276853300022453
0.274614808541763
0.271990290330069
0.271739385684387
0.271236932230718
0.268466860119811
0.268346964091555
0.267132542113652
0.263702316443497
0.262387212356343
0.26092730598144
0.261928147606401
0.258452195362751
0.254777519455553
0.254233810345002
0.255955900008005
0.255513907552576
0.252343884193327
0.253850811733543
0.253835751207657
0.250781640272946
0.253293321244604
0.251217240768315
0.253011406663271
0.252790052249034
0.251627311272241
0.250959342276813
0.24856737140493
0.24701815083095
0.242312252850995
0.241859408805204
0.239816940229017
0.235293949989473
0.233021441505757
0.230521834852774
0.225639739987068
0.225174252256713
0.223170669079858
0.219577242775118
0.219623247631093
0.217922343832771
0.218823426249117
0.220989925919463
0.223389412572173
0.226607602746067
0.23204905882673
0.238699992081951
0.242090074609539
0.250895780585253
0.255685743141358
0.267382675886481
0.276991671659602
0.287469194547383
0.297113440105973
0.309396678582798
0.321841469122512
0.333810080952726
0.345621665974082
0.359358641381982
0.374654224932176
0.387849078919694
0.398153702171508
0.411707635543429
0.428585777094212
0.443037803314829
0.456384583380498
0.468361994387589
0.481865295242206
0.494396269471174
0.509624733479829
0.519360954158288
0.532097366892744
0.541762721499498
0.55102912783441
0.559085021333011
0.566090537578077
0.575233103866553
0.576358329633206
0.577029783135757
0.577611104209111
0.578412213601264
0.578385148543889
0.581113768877873
0.580289786215455
0.574226635082151
0.573559124282727
0.568888453949767
0.570212237675793
0.565686977548065
0.563052526684801
0.56179222967103
0.559322784757411
0.562689498437692
0.560350669451339
0.560462559283513
0.561163321270394
0.565449435422063
0.569110230892906
0.570118473985141
0.575651053497224
0.583778510084935
0.589721909884587
0.584027460641425
0.596802911930376
0.606836734002288
0.614391168935623
0.619923503786807
0.625712161470017
0.636145839901413
0.645847913139857
0.652080218110737
0.661040356684572
0.664304614529686
0.665570142096719
0.674333548157363
0.677833605091724
0.676985862855087
0.676767444286585
0.677990053820262
0.678920857749036
0.678287825279118
0.675706090437009
0.675520289226872
0.675335416402942
0.673704137187699
0.680129784529519
0.675611473965946
0.685807259270907
0.689113707033971
0.696679509782084
0.709314275874829
0.707622576579051
0.720282378846516
0.72191921385949
0.730271291462317
0.747341496795698
0.753597544363341
0.761580446025758
0.761886620322671
0.769285273054035
0.790515315232149
0.797295308520124
0.807248549202276
0.817232651738048
0.837037973298019
0.842496647611096
0.863174414727244
0.887896732782108
0.89195434712317
0.913961270992442
0.927938393007492
0.958914547007052
0.964704518839605
0.977586990794518
0.994281055071145
1.02863940277423
1.01975567599444
1.04343823127106
1.05297041761854
1.05383323975051
1.08079273576797
1.06517074642336
1.06701310278057
1.06542748162453
1.0571958454964
1.07174927454673
1.0575675905363
1.07831827580041
1.05272684458732
1.04240973638108
1.04392583712255
1.04054447161889
1.00561872719841
1.04248263907236
1.04446063273876
1.04220983578093
1.04945801527038
1.04739138869218
1.04570494712869
1.05435091992661
1.06118135965726
1.066734914407
1.07287868649255
1.08796138159314
1.0830385302403
1.11237793525866
1.12903801199843
1.14710963656461
1.12791798700453
1.14178669702983
1.14575064062151
1.18113825338412
1.18872545882329
1.18171347380974
1.19130560291284
1.21484080767896
1.2282209205276
1.21228622275964
1.23176191397044
1.25788005110891
1.22965227061631
1.27179191878177
1.24838788894269
1.2464212700219
1.25248839763196
1.28795820954294
1.2571423373544
1.26010916421695
1.28984936256277
1.30345811441101
1.28988602693845
1.29554467171904
1.28175144808222
1.31218882110602
1.26715238357052
1.32968859092468
1.28872641013252
1.28556784259353
1.26621681542771
1.26946666210327
1.25532090710337
1.23817119218768
1.20855938788876
1.19004652094072
1.15940190421161
1.14617377637598
1.09978901510862
1.11761925090177
1.06853777173101
1.04057103127961
1.01844278586252
0.990073511132008
0.932127665368857
0.926875387508419
0.909876501610066
0.903386977841577
0.876432622033699
0.860944151494706
0.851519267542083
0.853520920765166
0.837137516922406
0.825013559613345
0.821637224402032
0.81498471293412
0.798667163327534
0.782806229090663
0.769092698483785
0.764403191686984
0.747799636044489
0.73649301700067
0.711620882484867
0.711352841822975
0.686224301021946
0.66817045684122
0.655728122047953
0.634794573552239
0.596474808462756
0.588694397927945
0.568457028416129
0.538876016844376
0.52054415097334
0.502120952864786
0.476495629321327
0.456292788668603
0.435487051844452
0.418782254108841
0.397597824945457
0.383891814301534
0.365697718320511
0.350486961802759
0.339900357927572
0.326427874553335
0.31496450141532
0.306067058992704
0.298408430769208
0.287869393195152
0.277582016203347
0.273296480587266
0.266335635129511
0.26161703505563
0.257532250147017
0.253733023087503
0.248965390154634
0.253028601930521
0.25153375002003
0.24652979326584
0.24449713624974
0.246355270698645
0.24555228086686
0.246090009050873
0.248002786008615
0.251892437633619
0.252898862278326
0.249371603912622
0.253830373398784
0.262400220077129
0.261085132320616
0.260544722765477
0.260514407274358
0.264417927201579
0.262985183229284
0.267385614107997
0.265789816887378
0.263023563173552
0.260770129970685
0.270536984863133
0.263969945185403
0.266408697448263
0.265584951032133
0.266410992924325
0.266302715929696
0.269212627683033
0.271222753503117
0.269030565556877
0.268183275765377
0.273652908647639
0.276948330392217
0.272202732526019
0.279263901866455
0.280136150876004
0.277294934562677
0.27843656753809
0.275789190531138
0.279851685791117
0.277180748092666
0.282488212558111
0.280687916138474
0.285070735421405
0.283862525116975
0.278509021381748
0.279894761634288
0.284303208076415
0.280795962856002
0.278257419544671
0.276059376895893
0.282485757665289
0.281184840408299
0.286149421474733
0.277931677828712
0.284674202338817
0.282332968766189
0.289712247713222
0.289159956843548
0.296322820783386
0.298519285479399
0.30237708110916
0.306775014381911
0.318068355510418
0.324323606292188
0.32995693776268
0.329534795032686
0.344216290352307
0.334698929804153
0.348389143524425
0.349800153661325
0.35066809186659
0.338946356706611
0.345090682651861
0.334114602156027
0.329441665278297
0.326326491008681
0.324982708220955
0.321806763065681
0.321755359982005
0.309250511614156
0.30908421905632
0.307885547945864
0.309003454690969
0.302433941256861
0.307523041281512
0.307485086820512
0.318611321441486
0.311765768817585
0.313533204452755
0.318100104483057
0.313237861459876
0.305908929185938
0.31407434359723
0.304806649561663
0.304786332107078
0.311403838846958
0.306827888175222
0.301801230824659
0.309052704589886
0.303167804498735
0.314949604217068
0.298318828961435
0.309866884690296
0.296964740898429
0.300543591685414
0.301198079539754
0.304857048492145
0.296782145732961
0.306793243666281
0.297756487395877
0.304464695271283
0.30063678617594
0.300570759558514
0.289187562779205
0.294507518684385
0.288344252338622
0.292768850417793
0.298836190171897
0.297034971261098
0.293054618451034
0.289983160533973
0.297270387920077
0.288860161698575
0.284934718363787
0.291101563383487
0.283362901026335
0.283076003135173
0.286901875401484
0.284570090389357
0.281911834453829
0.292485805002388
0.281001951862495
0.28657392799807
0.278614645591181
0.276863237229579
0.275445243846711
0.286607090805893
0.280193030944124
0.281645608617598
0.28158261257219
0.279826807054646
0.267891494397961
0.284749527128096
0.281978907986612
0.291630663251452
0.275815804130831
0.281536098852293
0.277942852101047
0.288382429552529
0.283356703592431
0.291261740804573
0.280523142497933
0.296191089506723
0.30420098949735
0.301779962239771
0.289757902853356
0.300446611694611
0.30329895319067
0.307457801594736
0.301043396220033
0.315220363714212
0.313872901931182
0.310877938436993
0.31422621025585
0.332927635152924
0.306375049389537
0.332662703203016
0.336841910753387
0.33311265244466
0.333689519756236
0.344960186291553
0.338952014268955
0.373036425092103
0.36006813145691
0.364885219095446
0.387759815473633
0.414136256970245
0.402984218422786
0.42196668818393
0.426115205982013
0.410561107223559
0.40764101577242
0.437838542780372
0.431846286999642
0.448288654260629
0.433157261788764
0.455345776334359
0.455996626488717
0.457103299347588
0.439533359777605
0.465922470393357
0.444583637354827
0.454793883027968
0.433423790570727
0.432827326111384
0.435295706875784
0.435456156548824
0.436890644936185
0.449706390616738
0.433729945758929
0.464568806903188
0.435273453771541
0.459864108452559
0.43307335817955
0.471404799298062
0.440848522392459
0.457065888596807
0.416758603756017
0.446506879587566
0.457130704889511
0.457469644959155
0.441701279906622
0.454177276476286
0.409361787300769
0.43518306994992
0.431035137878816
0.445419307592219
0.416365424523606
0.442466536359794
0.42490411857168
0.428685619262224
0.414839299848997
0.433896638831579
0.420218366295781
0.438714744890487
0.40739703307296
0.422064845298254
0.381416186640899
0.430342418235989
0.430946728184356
0.440710138925599
0.398603777099862
0.439686432381844
0.409879443851945
0.434496521874274
0.402347762683237
0.471365586465607
0.416401199133261
0.451545426501676
0.446162601470032
0.435488024543896
0.445604737361605
0.444688209373113
0.418282466150392
0.47444392746375
0.439454487864657
0.477472851295879
0.440226971078776
0.471274993445656
0.452631709620535
0.465584642491637
0.4634548345526
0.466775929560091
0.456156200584908
0.471971054064774
0.49433450849941
0.46565759752184
0.471829281661195
0.516918701385488
0.449837207192377
0.468781072186013
0.485233364265286
0.513511060847476
0.487754532079088
0.511584050657113
0.524019497950076
0.53586262812231
0.541793477877379
0.526703691942984
0.479136740440272
0.57493229764675
0.509636545666265
0.645887058030675
0.506554677836878
0.561562765246618
0.540748649468358
0.576784659647026
0.545259490266738
0.57164778760434
0.582657561954013
0.495325151252494
0.542690981645188
0.601424877086076
0.490697552890582
0.598691978597952
0.448215953627782
0.583423620827182
0.53348318947971
0.746523506548117
0.469223028803383
0.556852307770695
0.584943527988572
0.50885994396076
0.514050392218164
0.640290860227052
0.547981630989056
0.548889271982179
0.428180290106718
0.58002344447256
0.449799629216025
0.654366588250753
0.48967854290187
0.557932932231247
0.442933376004325
0.511960506570668
0.515666189794174
0.533740792313496
0.592467236080788
0.615188131576041
0.493571420618918
0.73739526998345
0.447128230460944
0.681462536658333
0.605637442982229
0.404452999965402
0.589223582140937
0.550022955533723
0.573021747645504
0.668249996570417
0.406838048132608
0.621648743890162
0.797471775359505
0.73084247171522
0.475142459213647
0.532969346668165
0.50515541515801
1.89168424819062
0.560023222804711
0.371004103340593
0.626436589327414
0.826427168894455
