3596
4000.36533379555
650.420452594757
1
2
2
0.0654975880577125
0.0606035440744006
0.0639541370945408
0.064859537417529
0.0557136603450947
0.0638578988161593
0.0601043115223673
0.0569786601040872
0.0649063554698833
0.0624117729645957
0.0559844900671812
0.063889549534743
0.0560091863252295
0.060804200600791
0.0703647889083887
0.0564223339376028
0.0625070030691793
0.0576052593744143
0.0589902221176402
0.0581230684001067
0.0578518510430468
0.0605681910375325
0.0597575524807527
0.0701682349628351
0.062194642058513
0.0576694032452008
0.0550210515095416
0.0585897758802548
0.0538092695021071
0.0683284219692261
0.0599769592518548
0.0570942905946088
0.0600676234811706
0.0676232503991594
0.0573093793808054
0.0671245035093682
0.0590308924865019
0.0618895028162597
0.065728526858328
0.0670246580342039
0.0661031181836359
0.0627079942721728
0.0646653064337862
0.0572914344962289
0.0660632233184255
0.0642320322140659
0.0569204897318552
0.057782231481428
0.060440819076786
0.064952283869002
0.0660309080866501
0.0552588518757221
0.0633050962785549
0.0690898833748326
0.0544071512708903
0.0754536783880158
0.069806282329428
0.0600302603017853
0.057514180921604
0.0568605390915062
0.0673877977738322
0.0737833060444745
0.0534983377859261
0.0648715352735287
0.0519893632979266
0.0560239934703838
0.0539386817410007
0.0657216459761254
0.0535481511852339
0.0623849880804073
0.0524344702072863
0.0619464941955516
0.0660181606910486
0.056871343098123
0.0627945226963315
0.0615665472127959
0.0548555033048227
0.05874896700573
0.0473833496975108
0.064549268820467
0.0660836793039862
0.0584249597650915
0.0615108801998908
0.0493722446892702
0.0533730590064792
0.0801405883583752
0.0541998810128027
0.0573861629805345
0.060299535940847
0.067370130801478
0.0562637594126079
0.0575990913758994
0.0542787109821926
0.0582003258681718
0.0535678407506601
0.0574937172406937
0.047254957158234
0.0541495401563101
0.053486944968664
0.0495158583988827
0.0639486338323907
0.0401019675438265
0.0923719599956658
0.0392925192553876
0.0846034392931939
0.0747967559796303
0.0316238252668451
0.0866898743233393
0.060402210720254
0.0694264334344104
0.0515487483338627
0.0664538111528985
0.0502906272035312
0.0700037378013135
0.0398712961842411
0.071244414888504
0.0779800750462532
0.061857792775224
0.059878569153974
0.0600661543786756
0.0358865339321936
0.0620817708253886
0.0874754550580404
0.0552465683672107
0.0672207859561187
0.0560262038435321
0.0474040758475484
0.0705605786611366
0.0717702116968916
0.0585924683165019
0.0585388068003198
0.0473108297450481
0.0518389428873859
0.0396522189605487
0.0855719088927904
0.0493538250767188
0.0550585405445257
0.0393731203614603
0.052429138297636
0.0954391984386511
0.0694505622708427
0.0612590797771008
0.0450029463795183
0.0440512840411387
0.0827733346152627
0.0651575047232503
0.0465015681759507
0.0583915287809859
0.0610811391786604
0.051241583278302
0.0542908383101154
0.0423901756897522
0.0564937302758533
0.0659360018701623
0.00853771325937723
0.0411103438461603
0.117468806189411
0.0354415969124632
0.11221623494695
0.0493458207994724
0.0708196462979112
0.0523244232330957
0.0548427943253267
0.0493582131327478
0.0636780253291782
0.049485755075885
0.0474909757656994
0.0812966514319744
0.0542215062548865
0.0501401534155421
0.0705026668899081
0.0646384708044893
0.0290112960057791
0.101495578617165
0.0587850290888229
0.0352696358172717
0.0749269982802249
0.0680325933232008
0.0481438255042794
0.0440672365751681
0.0845580597787583
0.045578297440115
0.0567552071049855
0.0436849035112885
0.0489948817522689
0.0658715945348654
0.0605792038377473
0.0496261860056618
0.0615539536430882
0.0388241893208709
0.0552482740908537
0.0736721581741999
0.0794743367786189
0.0516785218926858
0.0643675063301856
0.0142864105796424
0.0762497394683097
0.0852434677146092
0.0602049097448367
0.060168244017331
0.0559566568592864
0.054012890005541
0.0458022942914985
0.055676427193304
0.0533235232793832
0.0178636214756264
0.0847744322897724
0.0607755921021521
0.0564247601284139
0.0496651611422058
0.0528084716974107
0.0325909016317172
0.0930048859856036
0.0843124360143859
0.0498520750571709
0.0605881029040173
0.0432896360762542
0.057540577094459
0.0647022883574243
0.0590857513820295
0.0556205895391109
0.0572454391698678
0.0539260202191889
0.0487745536011585
0.0519594261508934
0.0540481878948123
0.0523415213299872
0.0509422791213315
0.0508518320935559
0.049282365267462
0.0592432233319671
0.0594717990097295
0.0544708313240636
0.0621332985461823
0.0458993780870084
0.0520643678003087
0.0805705251567678
0.0543821274597656
0.0568493279043667
0.0539293879004846
0.0639741341267426
0.053164062172357
0.0618280529960998
0.0537242253574039
0.0583908739831243
0.0331352718021959
0.0928834923508589
0.0571831239610347
0.0612856239070901
0.0423891033973903
0.0750051260408643
0.0680746191584242
0.054147545446019
0.0569561861293997
0.0592492728745242
0.0488482418644302
0.0438892774569761
0.0869615561460373
0.0655647613864527
0.0498482528962923
0.068665712790268
0.0705493587799818
0.0508708006315515
0.059764214103778
0.0228110046593188
0.120356591212732
0.0645808268394059
0.0311258865423953
0.117255506867184
0.0656971277923299
0.0592622382340028
0.0599818006069946
0.00789161491306154
0.122137885956323
0.0997491661688021
0.0605861855188856
0.0557503152622744
0.0831829777457924
0.0564943362819324
0.0629107873944496
0.0640415415519376
0.0592824555876635
0.0788443057095325
0.0592565189135484
0.114813977635886
0.0442704080192547
0.0773793385266332
0.0936882715821105
0.0657018490478534
0.0624418189744646
0.0643081457331339
0.0594014760104229
0.0733573890715923
0.0824908025535639
0.0688686642486629
0.0753398261656502
0.0529623761249165
0.0889148748882329
0.0715098266131629
0.0693514651175115
0.0669358486213187
0.0807293150815437
0.0655173500066166
0.0824171488087846
0.0638764701741917
0.0802610816036444
0.0667216979341724
0.0551180204278138
0.11326909029938
0.0835147361388497
0.0637004698744549
0.100037043904252
0.0761814058751318
0.0762865903853983
0.069503214549065
0.0770635945095335
0.0713936963176537
0.0737274368727041
0.0616471597088204
0.0930106661197339
0.0807425635260281
0.0774408664775202
0.0759735789384049
0.0708758681591896
0.0758054494894992
0.0835190912525618
0.0795623220247557
0.0799660294433607
0.0780505904671829
0.0677857965433761
0.0829552246978756
0.112147348864375
0.0580149769968918
0.0990225145349484
0.111755706848614
0.081038799030238
0.0902512674567232
0.0787744029693666
0.0900307558708181
0.0870040893127237
0.098437434772654
0.0882101906251631
0.0815868939843164
0.0999255124955477
0.0997422036166998
0.0874199821361994
0.0877537253511783
0.112577207902167
0.154404910536654
0.109083740669217
0.10058226618078
0.0746048252732364
0.108395768322766
0.130929717880788
0.112416881225073
0.138646277429158
0.102119324117485
0.12312574590728
0.105802720617894
0.118983213499693
0.11125161676632
0.121261694618934
0.1147383332737
0.122991881276092
0.115352448361314
0.130991288266807
0.115107657792381
0.112127588562329
0.15113188051038
0.136437115627631
0.125223262833351
0.14359084956938
0.118474542187283
0.150939947523099
0.142736895585545
0.15561520081298
0.163703208860078
0.145003641850643
0.188766324332835
0.142093648279594
0.156945768328268
0.139492272357082
0.154847810709901
0.157688678450636
0.160578243923333
0.152398960851647
0.161576187354198
0.161001811970145
0.16944667416717
0.169249171301231
0.175654108964218
0.163526568092481
0.184299352966457
0.17913837814502
0.186471069344971
0.171866260277259
0.199056248163176
0.228155053874676
0.230576731793243
0.212798084641993
0.200643769957237
0.2069126623984
0.200022415262766
0.213435007821946
0.203965709534147
0.219609058252287
0.211061440305463
0.246855579664999
0.236476133409425
0.232130564929022
0.237503571314778
0.212824730552082
0.239754891549847
0.239898976348714
0.229770722087917
0.262776907428401
0.25177818584715
0.235318571755639
0.261426780302878
0.270428407724162
0.249928401772421
0.289286476630657
0.263128507172652
0.26915280636094
0.262262173041525
0.285477044418377
0.273829649973849
0.282521444800096
0.298528072304281
0.304050256987208
0.289534668046324
0.303580420623465
0.301147739636018
0.31578501512067
0.310499777895106
0.317067625831147
0.322005076338115
0.311777734797038
0.319620564091218
0.32089406884107
0.342775715173574
0.359146298178851
0.338268705724461
0.379241335232365
0.337837943331156
0.351398649361166
0.353416989646436
0.361397888304559
0.356724142918181
0.376840031149472
0.364093260433374
0.387070509902843
0.382990823834835
0.391144468793699
0.386782079622008
0.401036092230705
0.390681501544449
0.399511139012946
0.408242094055286
0.417003215175551
0.410939622526991
0.41678965964521
0.437298757484183
0.454967669387948
0.437738687006887
0.462199764952434
0.436723300155304
0.460106848351333
0.450234158299289
0.458209272378566
0.447968130040334
0.473946772591963
0.466277312208044
0.483990915269998
0.472258678798294
0.496668686641909
0.476143879957471
0.491121229174948
0.481470483468992
0.498158464455218
0.479692118956623
0.504956957287119
0.523066072956109
0.538668465835652
0.528780593805745
0.534166005013407
0.534193628647968
0.555155021378609
0.54923586263604
0.556478967044687
0.527596343485721
0.560773335215488
0.551961108958159
0.577985340345442
0.565334486076029
0.564699410148466
0.563532072663354
0.61406745394957
0.582140773271805
0.610212422159242
0.586656483772188
0.592026438139967
0.614185512275511
0.629779779346877
0.589491516715693
0.638644344288217
0.642819881527142
0.649678247664031
0.640733202524933
0.64516057032629
0.648468912204754
0.660469952133139
0.666289229679416
0.708815229331723
0.66487556245093
0.681836766606661
0.682533499069231
0.712511901399765
0.678643607102207
0.718955357594364
0.682367336894424
0.706002192334614
0.707852935520995
0.734101807931629
0.702279345482265
0.725526651426331
0.718561853557443
0.733358663115719
0.741382104322898
0.742982355522825
0.747251428588723
0.753347060857288
0.737860499939067
0.779709310975156
0.750288871176057
0.812982754426525
0.774072281866179
0.764266750279882
0.778718886080526
0.821405100005144
0.794290305943619
0.821314563276433
0.788005390884559
0.89543077899808
0.832137422068432
0.818687562177588
0.880961071702086
0.898100889547545
0.852974604611749
0.826752053616605
0.8182392908102
0.901071451363902
0.830201895473645
0.889245636581079
0.881761239894707
0.892596012950866
0.875890130483279
0.896586559540324
0.870963586483838
0.895830015578999
0.89937241054523
0.935203245540866
0.854478611216092
0.911718256007186
0.876072720780603
0.934087047367551
0.856422349464716
0.923316767878632
0.91260763221968
0.964623241226543
0.959580683247728
0.98779112833543
0.967124214033751
1.01510202670395
0.954192930967246
1.01109668832969
0.97260040205026
0.98916150452853
0.972226507159235
1.02851639424184
0.989406537058656
1.02856973752775
1.01811513544695
1.13505854548117
1.00628419463115
1.03153773118478
1.08379382569284
1.03928986753537
1.00624976889285
1.071988117782
1.00589721027773
1.06848733490781
1.026654008249
1.1109144092511
1.08350713617375
1.11986788340697
1.064601432417
1.11713776194956
1.09864327641002
1.08184529224382
1.05529504319738
1.04476881340169
1.05281630882411
1.09748063190628
1.11416731053596
1.18918333760126
1.13907670789204
1.17642952091637
1.09041694101294
1.13867340490468
1.16083326777444
1.23305572445067
1.13180560488556
1.19256675855442
1.12287691064357
1.13601906374099
1.12448118678135
1.20822175529687
1.15684977803127
1.13700165162231
1.19355353257549
1.28815121535837
1.21073893154401
1.18668845150255
1.1813922007868
1.33298957522103
1.21463850397491
1.22557248935898
1.18928752850029
1.20444566059706
1.21966238352617
1.29129512160812
1.28938011491577
1.32235872160628
1.30823560073739
1.31305544449926
1.19093308593417
1.34172262612624
1.25239215213528
1.20077263522736
1.23979553732506
1.3729037433144
1.21178242912954
1.42527541144243
1.29422644441149
1.31023506986968
1.29994797222222
1.33795727791308
1.2787870328686
1.28736871491158
1.20146496359372
1.29493454044611
1.29008783491639
1.32969902727077
1.29256936101405
1.48006913287412
1.29920397590033
1.48465109779052
1.35259811491523
1.31935260851753
1.34048599705738
1.37177850053097
1.25799357341864
1.36522749668661
1.3556640602957
1.35842980168024
1.35726633489588
1.50002429147361
1.43141752393953
1.44594543889354
1.29680633650307
1.41851488752738
1.30907397074912
1.3346992731739
1.32462266826339
1.24627857194711
1.32404456936344
1.55078340068982
1.43575035742211
1.51479133123672
1.33690424623609
1.38891386835169
1.45228118362319
1.42662296872752
1.35113074472624
1.53772709395625
1.52665857735101
1.5252299812372
1.43368370704657
1.51204593546247
1.56818280182301
1.61144367049607
1.35877735303252
1.50205051794868
1.4901535704188
1.49820940402327
1.36498290839555
1.39262580525124
1.38961048680075
1.54123008961171
1.40262047981494
1.4518181581693
1.43852680274464
1.49156973385021
1.46124241385102
1.40510702006888
1.37935168373561
1.44416208384883
1.38177175330377
1.48971030321129
1.48785256307997
1.43359884402643
1.50597447070323
1.53355903970727
1.39855109790289
1.4547014205577
1.49525673390838
1.49700564923415
1.40623248531261
1.46046228894218
1.45199386626743
1.52081812085735
1.5603389656522
1.47866772126821
1.39568448421368
1.4915115992801
1.38515271134173
1.5870292433355
1.47482673297433
1.51669716868922
1.50993907961906
1.48157385617665
1.46118157546567
1.52243966551555
1.4852902075754
1.60413167031183
1.42883940789226
1.47547069504473
1.42218946952344
1.49908422021645
1.4609297064187
1.42064199484292
1.47944172325511
1.4748547565315
1.44988415273285
1.54480022509364
1.51904471709623
1.59033262095551
1.46653822234206
1.57892139324279
1.44147854708365
1.4275922520725
1.56331992316168
1.45854437733497
1.44036714647734
1.52766620607393
1.40875033767811
1.53207752142632
1.50922838937432
1.50336730858287
1.47818337920575
1.5448302953596
1.52828216705271
1.69291849587081
1.44681760606334
1.47500165703634
1.50521206314819
1.4832830056642
1.51327878628511
1.45210876467425
1.4543569497569
1.57113526254796
1.45481970072417
1.51280084207653
1.46855366477371
1.58568920571461
1.44364951859413
1.42386355603506
1.42229934357481
1.48450781852539
1.51347325852659
1.48500181405429
1.50065593282648
1.57143552530477
1.50916608393781
1.5293103964056
1.41485731182911
1.49622557623606
1.56142641975739
1.54589963386458
1.44923251801126
1.5289833076984
1.48845621556541
1.48561208006143
1.43227435775498
1.4233649658885
1.4282336812786
1.46354085231238
1.4251433425178
1.48174672516994
1.61759516882166
1.51522973772036
1.40308048978361
1.51838457177513
1.4445003076824
1.43401111478944
1.41537278320086
1.52165701930201
1.44172938979908
1.39266885278147
1.44826127399449
1.52441240881955
1.3799893256465
1.50701169576911
1.55920210200074
1.45973569532333
1.45033477911169
1.46148946132616
1.32433978218064
1.41777404536744
1.43947539199507
1.44253654325465
1.39404641078474
1.40502352012281
1.42723675399824
1.42135044061332
1.32067288985594
1.43020069051057
1.44484315667236
1.44196573134642
1.4321221372197
1.36535989446359
1.34375916913858
1.39384766432632
1.35744654040897
1.35859813548025
1.33738182437483
1.37671257982203
1.36666299400618
1.41889193562185
1.3076066073397
1.33874530309632
1.38560181903351
1.44260141135172
1.41458154916996
1.41779247387475
1.42389711744727
1.44474808542228
1.27939130730471
1.3102552900535
1.37798904267953
1.35188488043203
1.3024817602761
1.42994286004145
1.28366235655995
1.31960924845348
1.34260773573936
1.36681681658002
1.27766411991161
1.35174687195145
1.30788596404724
1.33705190156473
1.2755338771409
1.26853597633496
1.31460769594159
1.31025693881377
1.26892360647295
1.26509425623046
1.24936003776383
1.24490728284491
1.22129947012151
1.29029544255895
1.2312917868303
1.24906394382827
1.2702946146729
1.24498885828422
1.22499145577224
1.2410568110708
1.20886481473569
1.22958480548015
1.19218663066546
1.18214854393916
1.22407706707271
1.21724703345895
1.15838697672946
1.24586917951355
1.16562948014617
1.207246310107
1.17839086304996
1.13220005712906
1.11911509589728
1.17614152498175
1.16601983574453
1.18956690134573
1.15616506761159
1.12454101723897
1.10900081638973
1.14232396028414
1.14042015138466
1.13674980159306
1.12745457982742
1.12485838815939
1.10981446320383
1.09762233447184
1.08370425665812
1.10405157538492
1.08429738291174
1.06807936905291
1.0525720518266
1.06486751161766
1.04803069696718
1.06891920931869
1.05118019746179
1.07781971903664
1.05869867142168
1.07157843718673
1.01515376137091
1.02759967331013
1.02267707019658
1.0338836267541
1.01451593153898
1.01158582494725
1.00901145452782
1.00468435016198
0.958727333215315
0.972465861779855
1.00320622119804
0.972997555847392
0.968829669239549
0.984841882698131
0.955766931636985
0.951906973369748
0.926103366405191
0.954612334858534
0.93585625756538
0.93781853107969
0.926759641303023
0.919887360596274
0.944107223138134
0.932383831445615
0.882985666231324
0.896707941136966
0.901553128857896
0.882389817086729
0.867193684960605
0.868174348319384
0.876375641331906
0.883856420658663
0.871813235542027
0.878565948218998
0.871550746747381
0.869543060156093
0.874649350283096
0.867167963794271
0.832474539840716
0.824806262534528
0.83233667279392
0.838119739075154
0.837122135208924
0.818614375629547
0.804920046642991
0.811289588286529
0.802525879336468
0.809612217160618
0.80146702820925
0.799196695234194
0.796882215321157
0.786638853838413
0.770601604306191
0.769442352014029
0.761328952882322
0.766495986907619
0.761937149820311
0.768544266663258
0.741000084802711
0.743147086153243
0.731142797645463
0.756809446224972
0.7356805911492
0.719107800421717
0.725834216487674
0.724386161126524
0.712473344693475
0.704218611185202
0.713365893825395
0.701220497270668
0.691737011711365
0.716716421051646
0.69430561905614
0.696118033501319
0.700338809481646
0.688184560559507
0.664790582930272
0.676741141993009
0.678090057369972
0.671256137238228
0.669223351551799
0.673365790144054
0.652573627305827
0.651229985204235
0.651204932452055
0.652089688522441
0.64717315598445
0.633814560710845
0.629000882262683
0.642228422677528
0.644787802855897
0.637519497100619
0.622409414035876
0.616239061033715
0.617511164371492
0.617602529899182
0.607331859549628
0.611086096504257
0.608695778731291
0.608804481488492
0.597754917027215
0.591952733571956
0.587809946547223
0.593546607775297
0.590140723667552
0.581285563522734
0.577696998108327
0.58097835990997
0.581251707946631
0.575378879981229
0.568304656628362
0.564995830278353
0.563939412108711
0.569649139029905
0.55400018868742
0.558080972227236
0.558040513997934
0.550091836537475
0.542254006446908
0.539707722793485
0.536115819366042
0.537992409477529
0.535315569806328
0.52992218976671
0.525978456831255
0.526345260679554
0.52715842615315
0.525463029993363
0.528141880281084
0.519479049320812
0.507376801388914
0.519037994869089
0.514705445353143
0.512323548307341
0.503733330891765
0.503329708028343
0.504986118065673
0.501599167413722
0.490869366829411
0.499865430696627
0.501096996170087
0.496774211336935
0.489338939529758
0.492491396480308
0.489062301610488
0.483177691782425
0.480779177476156
0.486889072696818
0.483889298907509
0.483666307942515
0.480392878250254
0.475168537454794
0.476918659025675
0.476686558027441
0.474434299771968
0.471879075261696
0.469470751162207
0.473717099107953
0.474842959220633
0.464296186336845
0.465450576707832
0.472021902347304
0.471524663866658
0.473293476653564
0.467721313729306
0.470324609385874
0.476154513616226
0.472881660397943
0.473171756475005
0.470452286730924
0.466514169976798
0.473840377636356
0.467957134195503
0.471292059116688
0.468368027630985
0.468419646839349
0.471903446481145
0.472938316868556
0.477384044840946
0.471410690509884
0.474271287667271
0.487787316732045
0.480438405656291
0.48204731127284
0.486503152770054
0.499004003602965
0.499088320648512
0.49038294025485
0.485331261371745
0.492541213236542
0.487083742798764
0.491864174135909
0.498796267129809
0.497178725500427
0.495624229573906
0.499824377835829
0.502062990044
0.506362772409066
0.50656036501433
0.507830996231446
0.514044705468307
0.519156635959253
0.509631515566064
0.513809717373368
0.519051149301153
0.524318178753783
0.531630486035866
0.53458939724689
0.532618095324251
0.541663522249119
0.54576006395101
0.55077173209131
0.557680861100018
0.559931063333619
0.561514200404381
0.566738732176543
0.566509634510797
0.570717007611336
0.57519033076441
0.58948132836489
0.585743372617276
0.595412369365482
0.591739755709838
0.593266236380022
0.595993527413657
0.602147653355091
0.612569911709984
0.609549005282279
0.609644426572914
0.615053315702447
0.612839876448181
0.61770703509374
0.618118817568005
0.621674845170888
0.61640742350569
0.629969820230784
0.618325706018004
0.61433632243613
0.624127176251884
0.624433727329332
0.633518012277149
0.623082920401214
0.611572739394923
0.613518242367556
0.610386098029355
0.620083353083378
0.603635398584839
0.605383290281322
0.609107244766252
0.602407037504345
0.599615805225387
0.602048862421547
0.601344571874888
0.604637757579503
0.594740542442941
0.593588151606198
0.598644132390803
0.598124848422748
0.598879120492798
0.591311044818536
0.58671744080811
0.596939272422535
0.589809473562432
0.588937938131558
0.592165894108408
0.595409870770086
0.589376636055441
0.583403833494778
0.585322598401641
0.587715987170992
0.584210046673588
0.597643755719277
0.595702138365747
0.590801772342951
0.595938992134681
0.595299764274896
0.590626647130047
0.591527633352745
0.583035720066765
0.581042218342987
0.580433333222453
0.581240831577397
0.576515093179659
0.579784942002737
0.579295271151535
0.586470145934823
0.584860952213325
0.565357378952528
0.560264389972548
0.568623735072179
0.575218409609466
0.568686435244058
0.560401325461186
0.562102355162788
0.555050225053529
0.545683797325999
0.552193656867372
0.551618636771469
0.541645791335267
0.542820369861762
0.540255339563206
0.536371438433925
0.539722428613669
0.533685250462666
0.521804703170763
0.525187089202625
0.519914555740445
0.520439584648973
0.513778297641608
0.499851871298209
0.496206577545654
0.499481180397388
0.499082369493051
0.49242723538975
0.478837956178357
0.484405384710054
0.482449321028872
0.478084178100296
0.47453462164023
0.471931707756056
0.466524597747713
0.469548689034907
0.473009278985944
0.463821755800369
0.468547568944017
0.463890384324094
0.455032238303864
0.454698954638095
0.446243602216228
0.448224273427387
0.448552126855339
0.441369671390084
0.43241083640837
0.42755764230543
0.431083636028059
0.432347122557449
0.426891492521574
0.426252787898328
0.424300382425974
0.42627819933899
0.418799767449338
0.413482751313511
0.413937369660291
0.417057541853275
0.412893997053926
0.412704473883643
0.415061271692439
0.408904203634328
0.409433842186399
0.401261334727419
0.398342155939022
0.402305244812098
0.39858354300637
0.401668140443285
0.395243918003883
0.394620116466247
0.395054182531297
0.393621267720642
0.388555300563206
0.382115235010543
0.379822810568458
0.381209635195398
0.383586267551087
0.380333198933664
0.376750876986431
0.372402291005169
0.373607358943537
0.375589568772371
0.37129449384949
0.373142932573487
0.371917285708153
0.365873103302848
0.367882780172824
0.369355124014903
0.362732797214151
0.360976443707998
0.359807048003267
0.362819582638534
0.36114667509922
0.354609467136001
0.35602948850272
0.354690414687471
0.353373320147624
0.355460075478351
0.35178781456347
0.350314508077936
0.351547868254637
0.348729880328596
0.344976070967081
0.345041801447002
0.346106931532558
0.341986271770763
0.342865179018201
0.346644529097092
0.345364643846157
0.342380939027765
0.338239152300248
0.344817991466402
0.343471211423233
0.338103045011462
0.335752321054332
0.338884946809147
0.336809981666802
0.331211981179721
0.334954751132179
0.330956475826525
0.328133595726979
0.3357069707272
0.328272924765259
0.324787261224149
0.327827169858906
0.327392856092869
0.325807498267597
0.324787738940748
0.329094842681417
0.326559167767306
0.320283478136904
0.322452793881861
0.325330710982804
0.326827983974309
0.324219632157537
0.319042038337399
0.3227909291345
0.32049138624429
0.316001332676772
0.314805138727909
0.313841748431115
0.31710735955124
0.313192105137249
0.310788951303059
0.31281064891964
0.313889678061717
0.311089545416008
0.30843695879081
0.309081756131553
0.309109411993912
0.309671697314626
0.311844021389742
0.310005687034846
0.306237211807829
0.308518971422733
0.309627895974916
0.307098656433375
0.306820485154385
0.309296322406469
0.307567700905363
0.302230444798748
0.304159925497079
0.304879832356699
0.299951492628614
0.303372450168878
0.304408752510533
0.300486687651684
0.303344993608318
0.308817210056486
0.304552315438587
0.29878699268011
0.298531241731875
0.300656789831282
0.302751927609951
0.294737924892367
0.295246684225421
0.298902420543058
0.299986363830642
0.300367640502417
0.295388167924135
0.293717522288288
0.292989663496803
0.294478247967427
0.294177696932012
0.292026187413784
0.293259057573595
0.289865349534393
0.287517325221113
0.28848829409594
0.289222984944261
0.290381111908708
0.288092746374399
0.286775098640998
0.291807194350231
0.286142738217587
0.281645617617221
0.282188607542453
0.281057146421587
0.28206020043617
0.281546562820145
0.277191110492272
0.278213147715549
0.282903032348085
0.276963951957454
0.277805793373831
0.280330378649069
0.276317838497851
0.273639067050741
0.273672328552676
0.27551639433222
0.275422141235877
0.268106213126398
0.269834770828332
0.271219801862349
0.265287541843375
0.269849213519344
0.273711302769016
0.270524208529319
0.269145564301356
0.263173869825589
0.26109030133757
0.266137014646565
0.263284687784114
0.264190677417971
0.264412318159503
0.260081552086197
0.260992925162787
0.262343475471669
0.260914683876043
0.257579121265095
0.255904812399045
0.255837651586376
0.259138136259923
0.262837660900476
0.257263245648989
0.252168797466634
0.252768935723375
0.251923495294634
0.252439523669519
0.251663735543454
0.250692330699474
0.250042245173416
0.250710689183117
0.248457050678119
0.246757936843844
0.246844129760799
0.245733923972872
0.239479262717004
0.239370329908503
0.243991064178115
0.243840162178313
0.241427262891801
0.238059835198769
0.237540736143301
0.239103880409403
0.233913717634137
0.233721645892765
0.235616525472883
0.231109890127719
0.230652035389607
0.233213482330495
0.230025918697374
0.226578078792623
0.226676163440096
0.226512474779535
0.224946263894884
0.226113477763543
0.223219915893718
0.226543090998304
0.225114016633495
0.219345481549047
0.219328673875342
0.220593258743059
0.218741445946044
0.216635368749079
0.218072397940392
0.214008244047171
0.212928797620662
0.214717686399322
0.21482230835199
0.213758758180391
0.213524140673286
0.215187498835352
0.213051397973204
0.215027399224706
0.213597258134361
0.210270266442993
0.211302006687588
0.20901024172166
0.206517936333596
0.205431713051867
0.206342033834177
0.206967804420431
0.206563182634934
0.206452308283454
0.203832440571525
0.20431163217276
0.203498841203765
0.202331229511684
0.201807678140164
0.202215042544505
0.199515533232777
0.198609025469053
0.199226391463078
0.198846047390526
0.198149850149665
0.197763259555464
0.197586541831208
0.197138473439473
0.195506124726551
0.196049481475926
0.197961374317738
0.197040593647373
0.193733850484468
0.19281551199963
0.194406132968611
0.192366389471468
0.188047040409612
0.188962506620057
0.192477788522004
0.191542104613584
0.18723474518807
0.18835093856027
0.187140066113745
0.188677342574837
0.187812833191304
0.187505732384475
0.191332150501382
0.190223719699539
0.185758030998707
0.185539382455415
0.18658884187703
0.184050158716662
0.1853295965548
0.187044073764477
0.186054995641304
0.184722654763525
0.185564787057883
0.183086624630398
0.182121577510504
0.182364377342598
0.179265135238889
0.180790125406217
0.183503255563151
0.18293484401512
0.177430351910263
0.182718629014906
0.183688809889544
0.178545440127793
0.180570882688858
0.177294425032076
0.176556945093636
0.178247454926992
0.176591079655832
0.180165738183976
0.177786385217624
0.17586061545159
0.177436989096694
0.176681578128892
0.175292412203503
0.175457391820016
0.1746632572557
0.177244002124557
0.178074596309552
0.174392320996613
0.173889141890556
0.176957703169997
0.17502513865137
0.17253411951697
0.172492749370519
0.174064770893003
0.172837154425928
0.172647805023879
0.170086368112131
0.170302190595955
0.168475599226526
0.167288281467436
0.169449186295063
0.167976341441352
0.164137964969491
0.167792496561365
0.165518657934937
0.165278724546838
0.166429182694873
0.165548769785208
0.164450188263738
0.165326617772475
0.166189589525963
0.166468643588204
0.163282977540557
0.163433699340527
0.164198529381287
0.163591552474668
0.163765807428204
0.16151766142904
0.161905408193866
0.165642243518283
0.161169841756885
0.161412977744887
0.164669980617671
0.162175590344094
0.157680642256949
0.158765351128615
0.161506847799075
0.160128715148508
0.160116415615638
0.161746265197921
0.157820871717697
0.157328646889121
0.158764620855492
0.158394075359249
0.15855087692161
0.161995408414802
0.161308550638049
0.158884055465835
0.157526009379627
0.15752609488076
0.157624541163818
0.155920873620051
0.153921307662425
0.155133101302121
0.154829523558678
0.155671056674152
0.154399885087764
0.156027751979417
0.154285817243444
0.15232575153413
0.15108379951453
0.151673607139767
0.153339022951473
0.153508674449054
0.151644413732348
0.151208279780419
0.149143375542623
0.148578910471607
0.148341512357893
0.148448652748904
0.147004105322821
0.145654652300789
0.144739987580654
0.148658603651862
0.146327739446714
0.148035284044916
0.147578592263094
0.147098324639624
0.144008297543797
0.142825662097051
0.143458212348171
0.142710587935965
0.144963252264964
0.141255026719996
0.138903179604728
0.139062886468576
0.139604691610134
0.141229297856997
0.136344888436285
0.13804370882633
0.139778993536816
0.136853047367749
0.135927111820728
0.138858354419615
0.136754994142641
0.137717795320686
0.135909179257615
0.136645743620205
0.132183712587403
0.133442738122622
0.136880278641542
0.137798120594093
0.134857117561943
0.131730318571007
0.131992278240584
0.133794764678739
0.131066643025777
0.130787834238579
0.1291298647584
0.128665100881837
0.130034427586845
0.12911121375338
0.126621132281545
0.129012430972642
0.128327983394353
0.126885640973974
0.125792443693075
0.12604799522396
0.129618843626305
0.128005525938263
0.125688044179939
0.126704366101023
0.124459934691084
0.125247018357211
0.122613053346567
0.123520368456571
0.122945823981095
0.125492981840859
0.122479259701143
0.122736775733432
0.120585121561606
0.121024231777947
0.119065296126582
0.118392342703729
0.119135410851612
0.119861396195619
0.117569522794712
0.118657767939066
0.119813515573819
0.119527163426845
0.11703051287545
0.119097396548915
0.118385165289564
0.115990427016532
0.114014609851689
0.116474154227537
0.114385827188097
0.113871554369098
0.115378195654983
0.116148382599556
0.114667234570336
0.115234614501297
0.112162950878339
0.114077820838406
0.112847427637586
0.113849893637717
0.113227169543276
0.112855583756487
0.114525942100339
0.112797302169474
0.110258223052628
0.113271171402114
0.112618198014582
0.113349567119148
0.108972492022906
0.109736860053933
0.111653907483525
0.111427191659003
0.111541713451953
0.115488507863368
0.109798550017141
0.110131715484393
0.108575617424288
0.11108663312317
0.11110111562095
0.113050522980703
0.109049828414196
0.111720655655664
0.104444031785674
0.105139449974648
0.102672389420116
0.107330097479465
0.10969883683879
0.118087729886897
0.110531336639402
0.103849007734185
0.104508147726525
0.117402453430079
0.108400756431136
0.10853300961448
0.108849124584543
0.10683775359378
0.1060294950111
0.107963446303143
0.101681933718285
0.108697918223223
0.101993575806717
0.112967143763583
0.104651726939224
0.105190338075445
0.107525656476212
0.112193552623695
0.102938603033484
0.107913019078277
0.103058251059045
0.106921377138164
0.104399641411379
0.107986027699605
0.100487324290375
0.106264536761292
0.100936725469947
0.108215447525988
0.100431178369996
0.105100691600328
0.101506160355428
0.10605065715352
0.0933430604428653
0.0984213234803389
0.0931956216808648
0.104232170298726
0.101800268820478
0.108591899659191
0.103896364294939
0.101328315561283
0.097901126128651
0.100071246944636
0.10862814255113
0.103628948925887
0.100810804484425
0.0939013044384073
0.107904178885728
0.103808295015814
0.10927662225049
0.0897713074863502
0.115057325089222
0.0999180526542062
0.108011877703841
0.0916766827712439
0.116884795711148
0.0940370587324801
0.106199618034474
0.0999148529703194
0.105080343004973
0.0952933281160862
0.105760699063351
0.098969294543596
0.104972920962425
0.101142021938181
0.102641869803502
0.098055619484463
0.10259976021187
0.0976297109294547
0.100374094698386
0.0997509276567914
0.0999143627203472
0.09645596639332
0.0997175284217714
0.0971646042107364
0.0976404231630511
0.0967410491427372
0.0995940551851259
0.0967708823067989
0.0979794073170471
0.0966186835863007
0.100034612971336
0.0979757165803903
0.100361942343014
0.097455793440961
0.0972326302007783
0.0954706762597687
0.0991736802824663
0.097885873113133
0.0973200551732764
0.0955615922153167
0.100173266393975
0.0980171795047135
0.0978607852636781
0.099851653316635
0.098258652774427
0.0979110497369064
0.102942007919516
0.0968997384724641
0.0980464431961379
0.0986197657656933
0.0984983259997853
0.0977384251345594
0.0986390289724548
0.0958742363122934
0.0986376893703695
0.0987786335711716
0.099347719243744
0.0995090984234554
0.102213371956731
0.099206068105106
0.101114433528138
0.0989905081922145
0.101146565682316
0.0996817292578041
0.100693764365717
0.0980398390140487
0.101462256281369
0.101426059959506
0.100939974916298
0.0995756040182251
0.100461884656189
0.0991548428940019
0.101091825406782
0.0997207303641581
0.0993087236102159
0.100014089149705
0.0999747731284168
0.096300870886558
0.101450924291823
0.100281751190284
0.0984349106823743
0.101262636368954
0.100857346477293
0.0993115343744308
0.101467191419005
0.100826400653555
0.101248813005547
0.101081931738379
0.102881061963018
0.101222166218953
0.100441580683912
0.0989857972247152
0.101072894825119
0.10130072336064
0.102528784280349
0.100059922333231
0.100312934676135
0.101729885602083
0.101945349955522
0.100867643901153
0.101976174692459
0.101236793124557
0.102671631359979
0.102376513044278
0.100529044068415
0.10132160028648
0.103712083102531
0.1023186138335
0.104290567536997
0.103484964407661
0.105581038134885
0.104163551266751
0.103836432000242
0.104188399803702
0.104899412666786
0.102369195218796
0.104721751815093
0.104436190921564
0.105056314566706
0.10677796878182
0.107580247042734
0.105204566568136
0.106110697017715
0.106123864340822
0.107571674423651
0.106902901759273
0.106812149998259
0.106518877788383
0.107804697921861
0.107225052815115
0.10829346570621
0.105806346013025
0.106965220676443
0.107476548482738
0.108455252202276
0.109462678315242
0.108899143749866
0.106970324835943
0.107536597846316
0.108860810590447
0.108753180516747
0.107808720784377
0.106595583424368
0.107519380707348
0.110631069863533
0.109371033601616
0.10764475800791
0.1076179618979
0.110555008186856
0.109089343049186
0.10837119492822
0.109433659489595
0.110491696312563
0.108956160476707
0.110474808046545
0.111751513313289
0.111421024933931
0.112448822211301
0.111821223379958
0.110300733095392
0.112985775129284
0.111856411070534
0.112527334679714
0.113107286451932
0.11195589222624
0.113254389618654
0.114741739533306
0.114309707865987
0.114570948954435
0.112916141317855
0.113694841392084
0.114149018893479
0.115389921257209
0.112904089260305
0.112230983233687
0.113864088547716
0.113951832716802
0.115319778823171
0.115368474186201
0.112086541530676
0.114598299232916
0.116221978013891
0.114967876832183
0.115798849092069
0.117154979891258
0.114984904124083
0.114633793603229
0.114175537480953
0.115162456438964
0.11415433106196
0.113343856540767
0.113797767306083
0.11274910118988
0.112002206176255
0.113118349830129
0.11381535522688
0.112472637272517
0.111642662109499
0.112325077888997
0.111250905301256
0.113179110639465
0.114139416588398
0.114052027522918
0.112244784526716
0.110889129607457
0.110780863359271
0.109226729485795
0.109760459346632
0.11310331496826
0.112522493129643
0.111643050790844
0.112040309252621
0.110872910889376
0.108760018537695
0.109449101828609
0.109879782010922
0.110953317441761
0.111417741992426
0.111519866054995
0.110906895061644
0.111274443042736
0.111852797271667
0.111019766578252
0.111385412608343
0.110617899571359
0.109480788804528
0.108679940357801
0.107837790113756
0.10783775271742
0.107080693047088
0.10950091001036
0.110194943574535
0.109412205264788
0.108325996589187
0.108343438790952
0.108217691083104
0.10713748215133
0.106419255869029
0.108376673887939
0.107511082895856
0.108085528587638
0.108542255397362
0.109727198379216
0.108211311060339
0.108720751636157
0.107455322684089
0.108045074165787
0.106935668807698
0.10608597835603
0.107142139682499
0.106982311823147
0.106544941489994
0.10656038789823
0.105376742059969
0.106943244300416
0.105761057082337
0.105379762957131
0.105427334702112
0.106221416002589
0.106484874422858
0.105908864712276
0.106716382499464
0.106031321481114
0.103363340128934
0.105177648785262
0.105421310676022
0.10600592544704
0.102392973689894
0.102116892492134
0.104198779554569
0.10443117974236
0.104951477923441
0.105084903475584
0.105354613814014
0.106677136165512
0.105721408970629
0.10270818873692
0.105332300321934
0.103034427960116
0.102373076716323
0.103409826982583
0.101960518624933
0.103164495797474
0.103928837373312
0.103904275889148
0.103853882587363
0.10257031476784
0.101866022561968
0.102073800806566
0.102313555073443
0.100709526523212
0.102038283032234
0.100177952842717
0.10070243467631
0.101114142147153
0.100613570449706
0.102161716935543
0.100158076031646
0.100288147560038
0.0991392897187046
0.10122372951067
0.0988349576511299
0.0978816507406032
0.0989907670239412
0.0966338059772624
0.0970025530585979
0.096920638778498
0.0971652331921064
0.0977284544100648
0.0982507542164711
0.0973292258455991
0.0975014679798409
0.0962428583273256
0.0937148932827605
0.0966769929203888
0.0966190994215261
0.0940345555121474
0.0929383967498132
0.0942581151344898
0.0918965370655453
0.0917489825917638
0.0914285740426526
0.0912178399159701
0.0898537611670641
0.0900593733159388
0.0932441277947323
0.0923062926085869
0.0890237374705033
0.0882175104157116
0.0878939215019097
0.0879533228759463
0.0899445146349547
0.0888246112641482
0.0873715259303679
0.088681091643353
0.0888896129746703
0.0865494617590785
0.0879181194513308
0.0867372239921871
0.086423113755038
0.0874000203502234
0.0861937054959101
0.0838411680870498
0.0858304699650789
0.0851368078948055
0.0838869427813881
0.0828940079803025
0.0847042414414608
0.0829334838877313
0.0843074789677208
0.0802960880801751
0.0879716083971928
0.08855470320436
0.085518460136547
0.081458902511595
0.0840640822551993
0.0828111471370791
0.084480603790138
0.0820554273343462
0.0845060597211267
0.0834575627888596
0.0827076257982795
0.0810768968004996
0.081975548631534
0.0807455638781603
0.0810134027576367
0.0830939676933336
0.0838557467744334
0.0830225708382779
0.0841804009647398
0.0824967980599841
0.0803906364602039
0.0806506410504479
0.0809210091677807
0.0799816437003315
0.0795964775006375
0.0798839850358972
0.0822098418247549
0.0830832789422001
0.0825856465580958
0.0819702515741505
0.0807571455456935
0.0813531243018343
0.0804038607272862
0.0803454139129578
0.0787326848486868
0.0777405929679705
0.0799961454672573
0.0786193797162958
0.0773164972971062
0.0790024835096173
0.0791693206433226
0.0787809749149333
0.0764311501429171
0.0781619232858135
0.0774849566703915
0.0777542888715239
0.077693239491284
0.0773373561866415
0.0766415141693501
0.0800173832619185
0.0774628337179719
0.0810316494432172
0.0735249198363284
0.0781467676761026
0.0807700870639717
0.0818377567823727
0.0757425528963516
0.0774857230795595
0.0760272338867687
0.0760085242246965
0.0763196127201921
0.0760153537768606
0.0759317592469414
0.0769675299584913
0.0758357609077782
0.0764955199180151
0.075995451721531
0.0776974088175421
0.0748960622084408
0.0775330918001099
0.0757639599003481
0.0762453558448513
0.0769847806013578
0.0751609250687987
0.0738222849270742
0.083598636243213
0.0796192169218548
0.0780048428586933
0.0738041424580094
0.075877974527544
0.0880427114748687
0.0822611459308964
0.0778388093696661
0.0733100679372366
0.0759168485353594
0.0721376024998891
0.0788890494351356
0.072498154548256
0.0767296529623699
0.0735276503668518
0.0771490632430648
0.0755656137936192
0.0766286818357266
0.0744538880659227
0.0766615767032052
0.0726047683452562
0.0738009516776515
0.0722853674647986
0.0734133734691115
0.0734584694116177
0.0746915577764577
0.0729328091747252
0.0755371458699315
0.0724948336004279
0.0765533920447457
0.0751231799161599
0.0782925016035269
0.0743923539456523
0.0762432754759132
0.0693105499309045
0.0807717940430161
0.0771660729656272
0.0786019084077867
0.0739697080670196
0.0767758893802339
0.0730041528313697
0.0758453319008946
0.0735846466246432
0.0742707899315706
0.073752855635621
0.074942105986451
0.0726085524909663
0.0743873806033742
0.0746542854104339
0.0726437175570579
0.0745541726122658
0.0758107544368131
0.0761339388048204
0.0732313479393515
0.0756630900350639
0.0735374861334964
0.0725534767207676
0.0846338287499153
0.0794195152660104
0.0826446694383774
0.0771671595783141
0.0800866700317997
0.0715800895857516
0.0778599991934019
0.0740075113581882
0.0774732684189081
0.0734040271176664
0.0773537982676901
0.0726187860032017
0.0790151335435485
0.0725235151262898
0.077285484090446
0.0708446255333814
0.0758829886139694
0.0726397123524517
0.0795087065601711
0.0748295922136275
0.0788621561022999
0.0706769422653007
0.0776714270769739
0.0744258830461862
0.0835914545557657
0.0747335842076709
0.0688750353169201
0.0888028041767634
0.0875382410251144
0.0864507988658082
0.0724698904947004
0.0787073123919049
0.0740256643080604
0.0770771508959267
0.0754187768219571
0.0806184520889662
0.0772544248863305
0.0768962871066951
0.0762526259660157
0.0817056581937027
0.07471421392491
0.0739024400660723
0.0862249823992844
0.0910153490824857
0.0833975647723387
0.0821910472025917
0.0739193798297933
0.0863740583073795
0.08725437849586
0.0850094499305746
0.0783752674407696
0.0796637964048388
0.0809324780418132
0.0792707305698788
0.07876010661713
0.0795653141624535
0.0855344915960719
0.0799618457037971
0.0828939308361689
0.0779614318969029
0.0824098940810644
0.0803552827951704
0.0830669874450712
0.0845043362130749
0.0865541631776001
0.0845158531416282
0.0830259799412796
0.0821665579771483
0.0833340636623055
0.0821261789691361
0.0848212959027833
0.0816788114596406
0.0889386801007893
0.0846743875694309
0.0872288871165147
0.091045696223707
0.0895580487709937
0.0852026699470435
0.0867082290561257
0.0897574871496004
0.0949304560574411
0.0772085409478494
0.0966527903934014
0.0846513925492264
0.109047138520485
0.0879546016138291
0.0962155828923334
0.0825204872638174
0.0927118002701824
0.081232469526271
0.0898400384879366
0.0942576929705213
0.0952329622005108
0.0898096677371444
0.0844266531162572
0.0908177555195425
0.0917827153909893
0.097242925645346
0.0900930384983873
0.0921878368465794
0.0876224873388221
0.104214411068936
0.0881206840489964
0.0933071628392628
0.0998918885613949
0.105247267100211
0.113843823813553
0.0938702423060733
0.100688575476985
0.100890724899131
0.102324675201304
0.09837812421729
0.0962342191056222
0.100913705815663
0.0898021727363547
0.103959281597734
0.114128949499701
0.10422041176428
0.102892330349183
0.0964561780298381
0.10281951545357
0.11416889622762
0.111100242718799
0.103163696870481
0.108765468883793
0.103961058676149
0.100340890773273
0.12562975885224
0.111239405948534
0.121577556250461
0.109070881849978
0.127619671024006
0.110777857709329
0.123586103894636
0.110341140117896
0.126637878873389
0.122548740624905
0.122540072376696
0.105815185005353
0.134658290374686
0.124906725906337
0.132040269868436
0.122095821266779
0.123363396251589
0.114922010235661
0.137359200812677
0.15489268194309
0.154110420521238
0.130778369096974
0.139437987199165
0.143466503695877
0.143058906284542
0.13553540989013
0.138120399600148
0.141569022341721
0.140816277655251
0.145604667229698
0.150952869438854
0.143263596881726
0.153058921683395
0.14406726386627
0.15394006675195
0.150903273469537
0.197734448780586
0.16538554901678
0.173328330103391
0.158000739135531
0.174075622946482
0.169413469428689
0.165181709436503
0.168598374874375
0.169821300810768
0.177120970647525
0.174689074258647
0.17342116185504
0.187711106644836
0.177100814510857
0.207200053385748
0.187103914593321
0.201982241834335
0.169728590411272
0.206286571189228
0.235176051815325
0.228854851034239
0.212732850147202
0.193533611935253
0.230609029980883
0.238986404766389
0.238166535834601
0.219649864548139
0.22808927056829
0.22896122353017
0.235530555977251
0.239503577490858
0.250781217978762
0.253656194781814
0.252593857850372
0.249781008774461
0.261157358868892
0.292984006764691
0.324986405177245
0.28505514559245
0.291925809802292
0.297066870310003
0.306600918897676
0.299710949539234
0.321051761196296
0.30108449741798
0.335432412829523
0.326657218472056
0.355136438374014
0.322137336441997
0.35879146428134
0.347988209148957
0.365271552108823
0.380489815932021
0.384075490421289
0.388329459360595
0.369720140144243
0.395893750713714
0.380951601510468
0.40179451612889
0.411845690064247
0.420088069954774
0.4164982407476
0.415284202250754
0.42680647165181
0.43020996818996
0.440291700918986
0.432698722722364
0.44462500138901
0.436406879951067
0.459399660296172
0.55100767188669
0.482374787579975
0.470251924415353
0.446246321372043
0.469757910971608
0.472279012664737
0.482102064294639
0.50537746513467
0.483813194765263
0.472577070579341
0.470801511127564
0.485328102802983
0.472519535482789
0.484045180641384
0.475289696432711
0.477632398981597
0.478283783314718
0.470335044429356
0.512378789026622
0.503174462616813
0.495560416770939
0.465258505459569
0.478116012648852
0.462482319661312
0.469531732101324
0.453542969739213
0.478627710308341
0.465217638102037
0.476292777959894
0.446775520109646
0.446722284831335
0.467171076484959
0.464814804179924
0.448448570762394
0.442922171283515
0.435027964503723
0.435556592893814
0.415750886207542
0.441866566137644
0.441544351447888
0.427147486315368
0.400035329991275
0.411683602881065
0.399324582639484
0.398509995971861
0.384968650357678
0.394900988174112
0.382915375172542
0.384804561041898
0.380062184309161
0.38898528071337
0.374575344437282
0.371034233580641
0.372269532808357
0.366665846232435
0.363043127839306
0.361449761197576
0.362658390830223
0.362962709492927
0.356753401134399
0.35524652143683
0.352819895909118
0.351385070506703
0.348738832536004
0.342180535143382
0.338965864066489
0.338649596198762
0.342316804028034
0.342352173784738
0.337220158966092
0.335507186335313
0.333171264501077
0.326990284792771
0.330469268857104
0.321178349219957
0.324214912703029
0.316991390370743
0.325661746604418
0.31488939906057
0.325129272191109
0.304952602296835
0.30419134068964
0.332960022621162
0.33088937058289
0.320149920124253
0.293981120948865
0.315473832422749
0.289492919573855
0.302883149984552
0.310182471077372
0.31423598752878
0.298459896227225
0.292626338446652
0.28264674240829
0.29692307582409
0.283551025112219
0.289531264654259
0.272275047874833
0.271243447142711
0.294650629594119
0.295691061114479
0.342812908037737
0.303045457412354
0.303053834644737
0.2513532685374
0.296925854417839
0.27350259645091
0.278735991362772
0.251761267600245
0.262178711807782
0.269693431526575
0.261610262581592
0.261742248406053
0.247044469088386
0.244499450067376
0.251477779076603
0.262805797616063
0.247304982948729
0.264588705919517
0.251016801878781
0.246747676061539
0.247237898541846
0.295079327510619
0.253379561340356
0.243092409294446
0.241238600044079
0.226071737025537
0.248130273328025
0.239816265785624
0.242267477836225
0.240965610437324
0.228919374978241
0.234524537528837
0.224634420408358
0.252917465937859
0.21926504009588
0.252334511521988
0.22860551802566
0.235359099169595
0.216425623244399
0.231716237332123
0.254347257205755
0.257044799284264
0.237148744794159
0.214879705919563
0.247762384317573
0.23713191063539
0.244350189560178
0.230687252550775
0.220901575290199
0.233838432761835
0.233858887877973
0.221612462179397
0.229265860169136
0.228461997011284
0.243329385863766
0.233172200471714
0.267896907721568
0.259421669101261
0.238843331879579
0.23061318703328
0.224155107811134
0.240061927567219
0.228344658992935
0.224698815306382
0.246226021434254
0.234037572898256
0.256279270977775
0.241522493151763
0.258875755888754
0.245164449485655
0.249159448510445
0.249917489459803
0.254985725082757
0.273518110060248
0.292611003606204
0.265055564321318
0.275320898001109
0.274059184012572
0.287820532392725
0.273646968109396
0.295854277953026
0.282622505126975
0.296961322045675
0.296611778421125
0.314301502717385
0.310347689651858
0.324265909008837
0.313056640189018
0.356606631812064
0.337912894938651
0.360536299988417
0.335397323475267
0.385064236918947
0.390819470552877
0.383546958233078
0.391707528709464
0.385531128831924
0.402155653999655
0.41016252524106
0.399965701623782
0.42694185020618
0.423684249346943
0.442453889538797
0.423921314089801
0.441383139380141
0.438198131217012
0.456612797467729
0.464572697478638
0.463261678457814
0.510094776907615
0.491005500937548
0.497897454253777
0.468444857110095
0.484052479340744
0.473050420597031
0.482896981699547
0.484932855100869
0.474248420476557
0.490854427399304
0.494815701168057
0.491745874547314
0.489811669026321
0.488541542869446
0.490992084030093
0.489631283619992
0.496272632950104
0.506807254658596
0.498791605715161
0.511927433050369
0.499279706541799
0.513626663941846
0.543520686483474
0.543327105638619
0.52651046526648
0.527439284699096
0.538472109795108
0.528178592601716
0.535228123886415
0.546847608799337
0.555742922345552
0.556206268671036
0.548941064885807
0.556975735441912
0.550695786602428
0.567912357394264
0.563490919578104
0.573157810073022
0.570587801740434
0.555403510942443
0.581067832259625
0.588054195652221
0.596540161684376
0.569672727568131
0.59139365818499
0.57488508509689
0.583816243408381
0.57550808530228
0.585224811049136
0.581178322197954
0.586689577904122
0.58529920769098
0.578527478928788
0.579716363879393
0.57323828390628
0.581631922754431
0.581014903097315
0.579381882729622
0.570922333257625
0.567290235849758
0.562941034312876
0.565824102001346
0.583150891829184
0.568157687454438
0.568505308214346
0.554973895072525
0.562594044180525
0.573086067754319
0.569628792653654
0.557997309466184
0.557535559853528
0.559489448690576
0.559796073657942
0.55236903960898
0.566704069330822
0.562160141841803
0.587828518114203
0.57075640729412
0.579068059991474
0.575792798931392
0.587812091162541
0.585792569132454
0.598931681676922
0.597468737250042
0.613276557521804
0.61380281328945
0.613040705107948
0.615124368605439
0.617064399233963
0.622527359178856
0.633661496129441
0.619953882030811
0.629346463654575
0.624676524199129
0.624594664136908
0.619846637436843
0.6263652007109
0.62290345284802
0.627411468173264
0.604300036102996
0.623523199154548
0.622300462796916
0.622163890661293
0.620193349718307
0.617153500743462
0.605645357470538
0.601379604837526
0.600043984260094
0.593964197440399
0.59837903139329
0.59261130315275
0.586498029475643
0.589847913627344
0.585786905090338
0.589118869798827
0.588638075311581
0.587111897123799
0.579698707674282
0.580200672282131
0.577307499521297
0.58142847475476
0.571245420760203
0.574944694151995
0.571129590577453
0.573846563395639
0.577928786555358
0.581669279356061
0.582800456715087
0.577638368901545
0.585179775277683
0.574524756107259
0.576551420844212
0.573010075967537
0.573976547917771
0.569526586416426
0.569467194060024
0.5695984166846
0.563980978069402
0.561756262747981
0.563933089847756
0.556756765954976
0.56082753172224
0.561892445344656
0.554434193065484
0.553497507218802
0.552979311944625
0.549866626841634
0.547402682022426
0.552977784163349
0.543462116146941
0.551617222582985
0.543705572311406
0.544035731999154
0.539315019827804
0.541707228163689
0.540018098837734
0.537796190628967
0.536208831505755
0.53648663561019
0.535871185704866
0.534180689042736
0.529524468167107
0.532640235360839
0.52863869302886
0.532630781419539
0.524851819499309
0.522270304744084
0.522586143929549
0.517697443067478
0.511914758576273
0.511320542448726
0.506617395410787
0.501288473282943
0.495555191979189
0.494875282439029
0.491144861064022
0.494231850738474
0.486627042662708
0.483036951476176
0.478742968664334
0.474304894360536
0.473421516246678
0.472427989430083
0.471619050678424
0.46900000614983
0.465032391683844
0.467776781626018
0.462864440448071
0.467270780128751
0.464396445521915
0.463594181422155
0.463277028577293
0.466289204743001
0.460704772895997
0.463894249386415
0.458246311455452
0.46699971414326
0.46451324435197
0.466790311696029
0.46680231549959
0.469805148872852
0.473350999439555
0.474754133103819
0.47323893909123
0.472843599655791
0.480091670425611
0.480273277646576
0.478571770828082
0.484558303449205
0.485937126411892
0.48191115239214
0.482138016037021
0.488200165944777
0.487245879610097
0.485523011056529
0.485413627457734
0.488474760410801
0.487912911679492
0.487969766463676
0.486245089346531
0.489273534070619
0.484252915305535
0.485247786017497
0.48425176116721
0.482599922849214
0.483975216264504
0.480630853208293
0.476129306667082
0.479452637994446
0.479011703918522
0.478442966796353
0.47521047608784
0.474940980283972
0.470463580081244
0.468340657795292
0.466557200801232
0.465571337286769
0.465818501898602
0.466681038916938
0.463209549284027
0.463222473879236
0.461512243289686
0.459507064854413
0.456272783531118
0.455356663220296
0.452896830387707
0.449481523081152
0.451786343208159
0.447907345369235
0.44619167415844
0.443676862583811
0.442062051574853
0.437420061214623
0.432597698285886
0.428684347369678
0.430126030007682
0.426373423705866
0.422544054835244
0.422097349463683
0.418842453419036
0.41906052686716
0.415595416601611
0.416602621684294
0.41234656560072
0.409484548784238
0.407893770017228
0.40743547870419
0.408203414593043
0.40728853550062
0.408841751084317
0.406852430088259
0.407624753284237
0.407854931558514
0.40706377321627
0.407335625993714
0.406102693287851
0.40132724652418
0.398822294717101
0.395149696635038
0.392588953356657
0.387849346823789
0.384573374367024
0.381663635017949
0.374583401012003
0.369320521975341
0.364426998583304
0.358865694614576
0.35459953616218
0.346663599966353
0.343631222161814
0.345306700099049
0.340920406865006
0.342694030882798
0.342565415682237
0.343414836015644
0.34660852888098
0.352125828760273
0.356925969565588
0.365374182292771
0.373158416703554
0.381472550943453
0.395802112476175
0.404847608152857
0.419816046186602
0.431806352723721
0.44893008299632
0.463608798482945
0.482952308387376
0.497097686460709
0.517935590328772
0.53467541799653
0.557433106962089
0.578807570159531
0.60123522154944
0.624536068746093
0.650446863465164
0.672478828120338
0.695859846201802
0.721311172097827
0.741187435058616
0.771236806931406
0.79049343506064
0.811114901922053
0.826837359942549
0.851263794715071
0.87492413074452
0.883862678592629
0.899466831437287
0.913551410895953
0.908025065472889
0.909221655731798
0.910757873567647
0.919196341781758
0.916964439683348
0.925803302174529
0.913334067549805
0.907991430488503
0.910629277813354
0.898808978493387
0.892564134413356
0.882751840903616
0.870326531062052
0.868044492725435
0.872539169408756
0.859354774007091
0.859046678519071
0.857356609422492
0.859923379725112
0.864871742011242
0.860919078453889
0.86450045245717
0.870951558874919
0.874677339825566
0.880774721149709
0.889597825824026
0.891252919810644
0.905814190789838
0.918664354394435
0.931931473136851
0.937787282342371
0.950038047013233
0.954551066459337
0.975456868569109
0.981423488517226
0.992221272709498
0.992170809469776
1.00594360161495
0.996144138102735
1.0097534169807
0.997193453402895
1.01615443521725
1.0067138075197
0.994650526375596
1.00948210691763
1.01524558891348
1.01202285259198
1.01188301265009
1.02609056533364
1.03376998013677
1.04378340082192
1.04412487955923
1.0463830231207
1.05821010447765
1.05578544181126
1.06178112828379
1.06295335489262
1.0824774952868
1.08340498359927
1.09327273146594
1.10658157213741
1.10652459284383
1.12095059371034
1.12745910125599
1.14514562841374
1.16559637496423
1.18252283275179
1.2026726851383
1.21504209391365
1.23474629763623
1.26218960443112
1.31141317522504
1.32515155125078
1.34555888840227
1.43054979618348
1.43263817572409
1.44445561647857
1.50526979751342
1.51749898545778
1.55235959722746
1.53129559737329
1.54192606054091
1.54923900821006
1.62424407376717
1.61125903912603
1.61588529326691
1.57093031512506
1.57893266502665
1.59686352267791
1.58025812768384
1.60550473705949
1.57922361098549
1.54752230174907
1.55964592871022
1.55903707210383
1.6064721404291
1.51019153848836
1.5947642499165
1.53839020065932
1.59288828313961
1.59012159345383
1.62813702255085
1.59968828622873
1.68713360975645
1.63514808581837
1.68967523510793
1.7067414929004
1.77238315535725
1.69620082092655
1.75119454194334
1.74742294141344
1.76086009340756
1.79659471438729
1.82149044726919
1.7999514583155
1.76099385281993
1.83494686886873
1.94783936581271
1.91463837771657
1.94815952475825
1.85701690436887
2.0128277587219
1.93550280883955
2.11500646760218
2.03738262144674
2.10575226150033
2.02470763549704
2.10546433842051
1.94044529229247
2.16974703466528
2.03743286866757
2.0704203659075
1.87258866198642
2.28750334688979
2.2810253753632
2.33451348459337
2.11169359677008
2.17832949284295
2.31188644213828
2.67079435923475
2.19171846767344
2.48984524256603
4.21374572456232
2.31077158091771
2.16018389364932
2.46354691913973
2.54270185646373
2.53430377141828
2.39241577216995
2.74311688697961
2.11570081969453
2.35673512908764
2.0958249906883
2.44426417823523
2.02536749006901
2.14305159866304
2.00244830752136
1.98118848775192
1.96895736454064
1.99029636205143
2.08905188319908
2.08081616754134
1.8959423575873
1.96592364162748
1.79331679128918
2.00314910882666
1.92300920572625
1.91410736006345
1.83742997911806
1.86685295819497
1.73948021476422
1.8260241156611
1.69499740276513
1.77328434949347
1.64950817641258
1.66211359474403
1.53484737351228
1.55793309106935
1.49741689113815
1.53907473094425
1.38647098297469
1.33545489783597
1.30424122368248
1.23288345525093
1.16789202056691
1.13101477377359
1.0525297449208
1.03047509772554
0.959744309301955
0.905592631975942
0.883237138404232
0.835347643599632
0.803566905943451
0.776807012401063
0.748884230288548
0.726817766323195
0.703982985807237
0.678616205649315
0.659911566428342
0.641214818405639
0.624980655220433
0.618944535994936
0.605721503474999
0.589754126050198
0.586635596119146
0.577807911404992
0.570378702737287
0.572437571579929
0.564924538354614
0.55637270080563
0.548841282792904
0.551517909050146
0.549268668010951
0.549804669378389
0.548634766458761
0.558080579313427
0.553452236397285
0.564298854007068
0.565433426024494
0.579407112764075
0.57460586894979
0.58060471633663
0.588545844170081
0.5800107570302
0.588872691583618
0.59829387451521
0.592401498943116
0.597414957496346
0.604618195819381
0.607103535297169
0.603751690453708
0.608220960460815
0.605831422632806
0.614083106666875
0.603184451550443
0.606343942335609
0.606840840399721
0.616113431491345
0.614169559676131
0.618561470620735
0.622581374923684
0.619706400199571
0.624987646119861
0.617361949484658
0.610153753831012
0.624028721916037
0.617273072303413
0.619572492861708
0.60616992462391
0.62801459331964
0.618700861495754
0.610249665098881
0.60316772361093
0.604693745932752
0.594005525200219
0.599342150063824
0.591773544554974
0.588919179862087
0.58779488632724
0.584997590539937
0.584587194892542
0.597731328381817
0.590263906039945
0.601383158446274
0.598485544292885
0.611094224536566
0.601124065315713
0.617600477161146
0.623544313188616
0.629812237338388
0.642893285368407
0.652183134193204
0.664270263150631
0.667515364109767
0.677581025476543
0.683993719214122
0.675650658502587
0.684431135137462
0.665589746065911
0.66789246870758
0.66827330821794
0.649828524349325
0.643808684448237
0.650379104575185
0.630412431686303
0.621719167790334
0.610806474745173
0.612306483367002
0.59919144066197
0.612852426734531
0.616506672338648
0.607513509496238
0.609290560261607
0.630370745662886
0.620395576525998
0.624269349297887
0.618962839809108
0.627961300279948
0.617712831164105
0.622422405610084
0.607067436038345
0.615854445401086
0.606696616379312
0.612499558163915
0.612486490371864
0.61683609258166
0.618054606493032
0.631550039414588
0.627004480222471
0.628833668904534
0.625619388890711
0.617276447196412
0.631610248907283
0.62660574047212
0.619644186756841
0.629301793848042
0.636245579050763
0.634720736616149
0.622998085797331
0.63141226843936
0.610979824471147
0.629944878117892
0.603590814005923
0.617548297492782
0.619288251496989
0.59539076183727
0.613196848327967
0.622125252768942
0.612214380111797
0.617513509944889
0.611560862413341
0.61552667860895
0.600156462388403
0.608725817033279
0.586750315163663
0.612619558069562
0.600007854224065
0.602116463321918
0.602629057322619
0.578069483010376
0.590139107694841
0.592707032261014
0.574020427046735
0.583914187193494
0.578114487179569
0.568968880409189
0.579018756316934
0.569748404136813
0.572798134337108
0.576534576862443
0.583021314668666
0.57363228554559
0.570156921565263
0.592585819057223
0.573000392918244
0.593138655281237
0.589606615437532
0.593860904969053
0.595740121248451
0.610946543902924
0.591334336601323
0.608372138324434
0.609403305915369
0.601086030776039
0.6066323354859
0.607916755980336
0.603837442601045
0.642583611553729
0.607524274922307
0.646455989702235
0.626291172778308
0.668156940603079
0.642300675738063
0.662648717457209
0.658006324566579
0.680227608316745
0.65325998309664
0.681609711010559
0.671496507800467
0.715903119129394
0.700708527575865
0.741228440674053
0.708243381902214
0.769843511538411
0.728114830200983
0.800706988440232
0.764814939582367
0.825270685294652
0.790439818041257
0.865513873913403
0.834860941330984
0.87137974435918
0.857221986575377
0.891396599055446
0.814618934906237
0.888886369175764
0.821149396195737
0.894344249354063
0.852331072608825
0.87580052834926
0.884023101807357
0.904038139534451
0.831926506298366
0.922869950911907
0.89766364956304
0.859140376574935
0.877287384629856
0.951240171783173
0.833155744816455
0.934839104824361
0.926788622923253
0.929182334663001
0.863819100055233
0.939993332009583
0.90803898022149
0.942486992463895
0.929317636030746
0.937651316758281
0.863239473479255
0.915785862906846
0.844524250034614
0.912434640079523
0.904546431745282
0.902582696355029
0.888858465177246
0.943377276965636
0.847886086457444
0.936283150295121
0.832137147089529
0.906073222896975
0.874292483063195
0.826177740710195
0.866867614781745
0.848174025138447
0.795486739068471
0.84613890135633
0.90324663504729
0.859430381756036
0.790969987890684
0.900105190238654
0.841192903601904
0.899132455871274
0.789673496382172
0.88432477623308
0.835186001724216
0.938701352972638
0.850621412277647
0.989092158666622
0.969365865449866
0.935055735598972
0.879424101484925
1.04530135495691
0.867515950597447
0.953363785646457
0.776711737787232
1.02307873126611
0.92201376441108
1.067611160192
0.878894794632927
0.990831184812513
0.909512950361457
0.997439199203515
0.886604732335833
1.04483099631916
0.948437537787005
1.07552402305734
0.932648507080105
0.981292948942161
0.935308743859404
1.2256917736021
1.01104051606479
1.11043491993462
1.00544884182337
1.24555532903462
0.94109451700154
1.11820526101644
0.910595639127512
1.16388919720072
1.02108516995729
1.26538148639974
1.05240383978268
1.18751369957032
0.95566820609264
1.40902085964527
1.11473203842556
1.37462745970156
0.953949660070528
1.32761326337283
0.990216809369044
1.09053956267508
0.98953640605764
1.0747218978986
1.13474287822072
1.99723018546699
1.27659049816261
1.1187515556067
0.979633286958682
1.27560169879202
0.952078496019981
0.970802459702297
1.07726544144396
5
0.864991050036446
1.04410083630226
0.933660716147089
3.41387686140027
1.1228214313372
1.24672907446656
0.876100636023823
1.57513904347278
0.935002383297854
5
0.790428241691037
1.19868038059969
0.922394018332486
1.3466634793041
1.41144424670515
1.41060026982105
0.720542424139939
1.47116914000084
1.41935385878076
1.87238380033383
1.24482128326461
5
0.69678347417855
1.12075168960168
1.47593767772137
5
1.56628916648922
1.36640443563389
0.772263161509098
5
0.801702140691779
5
2.15961274952758
5
1.39584643415789
5
