3596
4000.36533379555
650.420452594757
1
2
2
0.0675086323958409
0.0706456981107096
0.0636777619440014
0.0716521508672187
0.0611655281507243
0.0729691075196353
0.0605395501411912
0.0632492488530649
0.0667610379653265
0.0706040450606189
0.0637876286936816
0.0649640059802555
0.0550712514967885
0.0626585032796324
0.0691094494241888
0.0653940004480155
0.0643074579880832
0.0636976824883735
0.0654463228935
0.0616186602174857
0.0593330015549665
0.0606078259246718
0.0593296610151765
0.0651141170970321
0.0660547040453748
0.0740840595047921
0.0601854917839842
0.0658411489793281
0.0624156078106252
0.0733847076314088
0.0696815288507763
0.0668643220117322
0.0603182543823295
0.072425429011194
0.0585335424917576
0.0696414615261232
0.062836659428435
0.0672961530784754
0.0583120981133169
0.0656616744963105
0.067884920620826
0.0633932040846454
0.0687826761274914
0.0662051797358196
0.0602001887834745
0.0678262927762626
0.0616967036091439
0.0630101872515562
0.0591243860854975
0.0688775842830121
0.0647396681349144
0.0644279367195656
0.0700968557822378
0.0754433417787379
0.0588685577144209
0.0788068948215104
0.0670730861651703
0.0650831112695933
0.0594075566083498
0.0670900632803948
0.0743332301492309
0.0834135606101092
0.0539805479336744
0.0648142819825353
0.058003561076473
0.0671872712829755
0.0469479936500095
0.0735367812694379
0.0507315461730174
0.0693643320893824
0.0533232290882681
0.0813067447959939
0.0721378434440151
0.0667577862304874
0.0624111253952366
0.0682322029329292
0.0596136760645814
0.0636103414584567
0.0510158162923589
0.0683290687424389
0.0689995143514537
0.0650618282189315
0.0606888378488854
0.0631153285392891
0.0647385668233719
0.0832177961566808
0.0511803714209719
0.0680046616045787
0.0699935154549697
0.0715650848045677
0.0601895039258991
0.0636399576812572
0.0568569277443338
0.0645442401656514
0.0580718472310415
0.0647189533650034
0.0524754315812443
0.0654995644615055
0.0533516383435948
0.066266522246265
0.0659804053625125
0.0548898259500838
0.100693033503844
0.040337753161076
0.0966415641351627
0.074328762927946
0.0401657199991429
0.0956213409646599
0.0649434155106084
0.0780870090706889
0.0582420022398456
0.0721858661381833
0.0503175639755309
0.079540383514688
0.0421702828829944
0.0824321878107424
0.0791743434385195
0.0676916389514696
0.0582264899550704
0.0704088831530802
0.0400114690578049
0.0806730686475753
0.0850245462780079
0.0590556219305013
0.0687968645112313
0.057039769524184
0.051114629580869
0.0880850010900231
0.073236414168918
0.066374932222678
0.0604470391211503
0.0576851384804796
0.0492566427190629
0.0439170536345454
0.0872387697480526
0.0545857509255657
0.0615876262718058
0.0457487340159231
0.0599442652930046
0.106619412938659
0.0644332492849318
0.0639283019928496
0.0501761137785967
0.0617925783853108
0.0836145131506483
0.0718574108639533
0.0500786078524231
0.0711616031437426
0.0632343819598089
0.0592736330918667
0.0515009698551839
0.0475877992676902
0.061879084835333
0.0720200889940651
0.0157420423642094
0.0815222150564605
0.0995139075625483
0.0516440058898935
0.116624889339129
0.0519273514913873
0.0811994014522844
0.0524327623295299
0.0615287428855151
0.0561969449434458
0.0683744977358118
0.0457812755998849
0.0561838958546329
0.0833340331918223
0.0586478470267334
0.0586961279475201
0.0744197336201137
0.0695095984555919
0.0353677581417225
0.116600312028419
0.0606186290290646
0.045295930340831
0.0809748841373602
0.0715314437382187
0.0536337968377581
0.0603444155868108
0.0933001219988728
0.0581471124392943
0.0637799547837862
0.0520162412015408
0.0585621996031037
0.0698440619789647
0.0596393298977396
0.0586479981355467
0.0631608286608816
0.0446336932704535
0.0668301651066546
0.0848983352550354
0.0857771767804121
0.0519674676098242
0.0713462737136941
0.0209513113741723
0.0902656796907023
0.0830611503732163
0.0636822126004172
0.0614777243104222
0.0605539084504357
0.0609259045748668
0.0553959817545732
0.0647746096346797
0.0607479893205564
0.03170758291307
0.0945532819394461
0.0611860633599585
0.0659942148163767
0.0573422072629124
0.0614737048958977
0.0402377659891829
0.107371667415332
0.0748675187939544
0.0646416617121453
0.0696137170211603
0.0479355855083221
0.0655822127149339
0.0734504822632621
0.067783204940122
0.0622711214148769
0.0573791659120718
0.0631570444348517
0.0595441211198261
0.0530893859785049
0.064295323274315
0.059668221276031
0.0535886571870746
0.0636836970775406
0.0633085198916184
0.070992783542966
0.0665184554546973
0.0580486958317088
0.0716685852280515
0.0456272556144309
0.0612254254296334
0.0796552868939426
0.0644965840932524
0.067760420980301
0.0578671024107981
0.0687482180893699
0.0615793113772681
0.062237786443447
0.0658604903798333
0.0652360334445123
0.0438478857145988
0.0955866826275357
0.0574934052938275
0.076005713744903
0.0480760060409884
0.083376506009194
0.0740308492659962
0.0704529498042375
0.061132879209901
0.0672375817170959
0.0619217527448414
0.0533182341085453
0.0920013030903947
0.0741843647940751
0.0599311983408117
0.072977498575222
0.0689926125434856
0.0653689309486517
0.0702887976472844
0.0384985207052564
0.138617767229141
0.0694473263698269
0.0569459015582405
0.128180077932921
0.0790963688994679
0.0736923205658081
0.0700045261017593
0.0215506911193496
0.158022332622313
0.107504838106226
0.0704747417661869
0.0657479138670599
0.092925147212608
0.0649356173078407
0.0784762539670909
0.074015204863786
0.080861451350817
0.0867981514248587
0.0752956997374967
0.124571778918145
0.0512542981369835
0.0988291034600618
0.0970201779085688
0.0806737918568389
0.0760401108498876
0.0769099615615818
0.0702760776706316
0.0917420151713454
0.0871124435120307
0.0895187663087471
0.090698573960844
0.0658938430049007
0.100517997637859
0.0878100711478721
0.085141537233897
0.0813064375356249
0.096765890179127
0.0749879997780231
0.0948825177347398
0.074905472551896
0.0950922762392875
0.0746918443858937
0.0745938898682389
0.129220908794258
0.094452309910109
0.0839409783840257
0.127295251366365
0.0909228902986652
0.096065718108285
0.0893478852930443
0.0983601950214931
0.0910271654572736
0.0904106121470811
0.0808613846632285
0.12140796549122
0.096385758752395
0.104255755338613
0.0946007379585017
0.0949971959615811
0.0949895263945815
0.104621902503115
0.0936306415920424
0.10130264956531
0.103327415206511
0.0951049357579364
0.102188613366914
0.138702774952416
0.0817109347444132
0.137920464473483
0.139627289672107
0.113423484406361
0.11205312331812
0.111081079412081
0.122556524367181
0.116737051777707
0.129168395266303
0.125168535998147
0.118025344146331
0.138747160675853
0.14396696364243
0.127053387961333
0.124060168331441
0.157337523107016
0.195350557194291
0.156380596343969
0.153149144324422
0.12004181792627
0.171540417252748
0.180222864688722
0.175233631623862
0.193480970075533
0.155116836959752
0.184290923216298
0.164246316801093
0.184311866875252
0.170123749741779
0.19295958845729
0.183704083861415
0.196998819027981
0.183847441292444
0.204714371260237
0.182128529491822
0.195742170639314
0.234411516387242
0.214947051423921
0.202008631964428
0.225470729121338
0.1983862014545
0.25353286168393
0.22607551605369
0.259177568129061
0.248510739043303
0.253294147486547
0.289294322352711
0.245387825988412
0.253635841067247
0.250070660383817
0.261527015456669
0.2653056481582
0.261584043503373
0.266408426086044
0.268158003040254
0.281804550569837
0.28478114620812
0.283981012182054
0.289810240373518
0.286276584503635
0.309479887110667
0.300407108654843
0.307287270700609
0.294795671776633
0.329581651866449
0.363982178141686
0.35406846234538
0.332375636685273
0.32668471574013
0.333423872612491
0.329146686659608
0.347116727757213
0.345261940220385
0.370362697084027
0.337815101868756
0.378223494692508
0.363579896673125
0.381300795654094
0.380711769266323
0.374215299825113
0.398164393043573
0.394906359423711
0.377985460295977
0.407198935977351
0.390211917414024
0.389866486905912
0.419662173532482
0.43379266393061
0.409692447255472
0.451506133988093
0.408115837420402
0.434839215315682
0.411372205906949
0.453369863977643
0.436337384885836
0.468565910323924
0.442554259278341
0.473795840866033
0.455910661015053
0.4748893740137
0.456943365780427
0.480211670111018
0.474800149781193
0.495580633927031
0.483001546666189
0.501692615917938
0.496747085679806
0.49861513188075
0.524106891285198
0.533192461783063
0.513444011024665
0.572482941091372
0.493636673201255
0.555019229053585
0.516464842137585
0.556875149705944
0.547748650856117
0.568851977328433
0.540109589352099
0.569439383709616
0.561434090201016
0.599481737359379
0.58421051138802
0.596220592813995
0.57732690597129
0.624853073898438
0.580344165534175
0.611055722697637
0.588081671766625
0.63817631048413
0.630758631795025
0.653890199208518
0.607518257408916
0.69385628139642
0.623966993797806
0.646839660760605
0.62978897494207
0.653474582330346
0.620357269721727
0.685091387031673
0.638352548566031
0.683708156530833
0.652559634415113
0.719323791350743
0.701795143612393
0.734240921277966
0.702992577331828
0.731264155447079
0.71895687616041
0.742282459703414
0.691639005388121
0.762708698897712
0.739009049087195
0.783312466969955
0.70128928396273
0.792768697969466
0.717938815295118
0.796491181293516
0.739131490580491
0.789306501820219
0.769801856655048
0.795609688174678
0.757632276619323
0.821446442714944
0.774678483523005
0.840828979187661
0.833032991515645
0.865189456011749
0.79612713079853
0.834642233719882
0.79844270355455
0.886541712554966
0.810316446705638
0.847386925639008
0.831614232102823
0.87051780185075
0.870604798544354
0.892436559378332
0.805837947210421
0.935581461187558
0.846944547128299
0.931970648217517
0.84220501530593
0.887708112407159
0.831467544605827
0.932091078260914
0.945478973409571
0.968752975297656
0.892036940371133
0.938475145533059
0.915428581255332
0.956484445820817
0.9819360776349
1.02021944487869
0.913149125078379
1.02564222543502
0.895414275019933
0.982478835847995
0.938490995743862
1.04617062904978
0.930739760985575
1.05161493541437
0.994046450803783
1.04431913637888
0.967365868731073
1.05806512279333
0.99924089639751
1.07534057928346
1.0455481472104
1.06050997233327
1.07814770042004
1.14486446950792
0.99779608156582
1.09213762920167
1.04669112273522
1.11009169155355
1.00513630212285
1.15058566687759
1.04543634311741
1.08611035283944
1.06322027222571
1.11781695281183
1.03725902763678
1.11019982587591
1.0447351121856
1.17724125572825
1.13001383928241
1.21002421145965
1.1280562570531
1.23872320544905
1.10447104078658
1.24182132445369
1.18398403732252
1.24756387086639
1.18603326979505
1.19874032729766
1.01769221685757
1.22596227447608
1.22153036167777
1.28390809187807
1.14340378721473
1.26726217311744
1.18080736367508
1.2758288720457
1.12261528275009
1.26536931944053
1.2348047008536
1.38038439182092
1.21916798949932
1.36784739614641
1.2914720060244
1.33804607945109
1.22074087034426
1.36592141486019
1.18453551200726
1.34553722867365
1.18198969051477
1.34554927419799
1.26217774283536
1.40109326783291
1.2565291786701
1.3938418677667
1.34161476816378
1.50520323988356
1.27929404328449
1.44762546580996
1.26850492235529
1.336933959618
1.20731349034159
1.39149920186917
1.22962837906968
1.30406792517201
1.23286955601761
1.44500422753863
1.2885557755241
1.4569948124686
1.31682953051301
1.56808724056761
1.28993283539471
1.40480501167073
1.30838680982484
1.4186708372812
1.38860239629639
1.5100628641934
1.45631882825299
1.65333884252058
1.50027385457195
1.7070776821667
1.35965388182341
1.43416970640567
1.35744577456239
1.6061229907399
1.37297649282379
1.45782460366464
1.37243769925346
1.64205225608461
1.34374659997255
1.50884675809736
1.38372855115879
1.54703444874709
1.53825551511851
1.52015066831287
1.43744118605863
1.6179546648619
1.52260251421003
1.59183065565023
1.55948049150069
1.57981769020862
1.39013772442676
1.6049837033247
1.3818004099782
1.52328961767362
1.54417620567799
1.8145375051026
1.59014876436222
1.58589697447282
1.45327815239374
1.53253808000237
1.32840954497874
1.62607643113442
1.52687875204103
1.9727966836331
1.544437904214
1.97526062545454
1.67864430329313
1.67006278792592
1.4408221775659
1.55053263248333
1.70460284288018
1.86188729308009
1.51472119255162
2.11876276628147
1.51489019188112
1.69230151300884
1.49703646677062
1.54667739026897
1.52270865564643
1.81492056049733
1.56060208990087
1.72789876757352
1.52196334204294
1.56916495086558
1.6688277960729
1.93753990303867
1.63942187703659
1.87749649235605
1.54903819902733
1.63367188965384
1.89466126340263
1.61818603048081
1.56100733845396
1.6615769993254
1.47806566020586
1.67643852283956
1.65599857776193
2.44339289681317
1.66060877328675
2.16804273532695
1.56453535414031
1.80662319927386
1.72516549903993
1.94524224235639
1.72285853457452
1.78818615549422
1.71054981645821
1.77815209521552
1.81982537229514
1.8412336870532
1.46456340046636
2.34902589128055
1.73882208532311
1.81478376641704
1.60770169584631
2.10588476688323
1.50960694747543
1.97441284757844
1.70176096660711
1.66435768597788
1.59465865388529
1.86842695772994
1.57776529699998
1.88345338583054
1.63461925549409
2.0113192475042
1.61696108365202
1.79569727352433
1.6493053121915
1.67099981230971
1.63280006794299
1.7647893352925
1.54710713301632
1.8284385225106
1.64114329132394
1.864681277469
1.76270132366898
1.76236978668483
1.59461094067344
1.71014160263059
1.65115585191979
1.63088843136949
1.59533929007991
1.77798266416788
1.50079407440551
1.81162150969438
1.72902780769456
1.78782186066214
1.63526650594069
1.64284994349611
1.65743189847297
1.74021702222485
1.69396168126535
1.67537850870564
1.65662950164587
1.78516498918633
1.65459476429638
1.73640726162037
1.64998290173003
1.79103429171831
1.94834788317308
1.833575431693
1.6012548832952
1.75689503314801
1.56303449655232
1.85029114367075
1.57034860272702
1.73070207355075
1.6828609327703
1.7980862300293
1.68044436442953
1.74395294259777
1.58772561518722
1.77297795018887
1.48953363157237
1.99777252248287
1.66876915581789
1.79933463496537
1.79292375806614
1.78766668234969
1.5150320912605
1.5770617437983
1.55604700793302
1.67838878552175
1.62292419938
1.88138297354952
1.66068425306454
1.81225229468584
1.72463545329642
1.68269807061741
1.71310484453632
1.62298625307433
1.63939277757565
1.79401506701373
1.74599023334975
1.72149733656872
1.70438655292842
1.84826430299072
1.61942819665999
1.73725233922334
1.64160592173039
1.77722432329673
1.61539682485915
1.71000673558899
1.65717924847659
1.73595837777327
1.61428105222587
1.71887676806007
1.57128240440606
1.76433850876937
1.62662703660577
1.78684164495289
1.646992041895
1.78118579492601
1.64258143867211
1.84476618134842
1.6536448612899
1.60350538848392
1.56972681236047
1.62754524559933
1.61208228962194
1.7119995519959
1.56679234678453
1.8509053887567
1.64910096411739
1.67457019274479
1.63478661566684
1.6550129113547
1.63906521138664
1.91237230122858
1.56981592499506
1.63857160514307
1.52432262257864
1.72406400148636
1.71829652972738
1.66568620335864
1.61950322682455
1.68452389621811
1.49803657075774
1.62404914047389
1.62467256348074
1.94646524799199
1.55367314805548
1.70590473383516
1.51437025664426
1.5647394969831
1.67553559865971
1.77928969086825
1.61187820111355
1.63681513259866
1.45887612820556
1.58582024807381
1.56077558193452
1.59744516584179
1.59401081748349
1.72236949328518
1.4664906328501
1.63828603328608
1.61719169704235
1.84494600291882
1.50978444902654
1.58163940659746
1.5096490160449
1.76424532040432
1.50418255080386
1.57947231306642
1.48145759093176
1.51619952680047
1.52328837263011
1.51573927684033
1.42483744111249
1.5064089164842
1.49713996480962
1.49508507961775
1.47847375333923
1.59592383556027
1.43794631699452
1.51577662577411
1.45250391162206
1.5638781318474
1.40596347159689
1.49201178286841
1.48120451066315
1.54997125613112
1.50799654752263
1.51693322861023
1.43519475722054
1.39889200167115
1.33355487665859
1.43904312247604
1.3284776074067
1.42887927832021
1.3541329715477
1.42644219169428
1.31803154483487
1.40354079321798
1.36035301231174
1.42922980052743
1.36678393866016
1.35833535405537
1.35823764063908
1.39401175020384
1.35449217655421
1.37371227779752
1.31601126651895
1.38435666544778
1.31150493541063
1.39248719114778
1.3550885356937
1.2813307729544
1.25282869628732
1.36081550695473
1.32258598493872
1.36949621970445
1.2304540999153
1.25714639378128
1.1829280183949
1.28512461286304
1.25423950743035
1.25469568963342
1.20079692559417
1.25660635113145
1.18246705731162
1.23136961889752
1.20910298912717
1.22366550039226
1.19977834562872
1.24273029702678
1.14709112707688
1.17060850795449
1.18683860611214
1.17296606195038
1.13727547291187
1.17946662403063
1.15653486125888
1.15992870016949
1.16293282633313
1.15480734095475
1.1334799071712
1.11913644780101
1.10929189421216
1.11350311441055
1.09756801256901
1.11783231905926
1.08529368896009
1.10464737719802
1.06294397150937
1.07291829143155
1.02380869166707
1.06378417371009
1.00966734365048
1.06123192716729
1.02568782661448
1.05962732609464
1.02138614819005
1.02314235589766
0.980900652532785
1.02511722050439
1.01856976759142
0.999602734318091
0.9676828208694
1.00624181519373
0.991073891127741
0.999257310745682
0.965578677809417
0.960563200633616
0.953050806675588
0.967088058961183
0.947842721492699
0.940806818010585
0.926671524505611
0.940972425976102
0.921229751726712
0.930843820095294
0.913021903137097
0.900526862338813
0.886108871625784
0.913751037424932
0.895774939678379
0.909471302615898
0.899264901028786
0.895536969066732
0.868967023159272
0.870013511646882
0.845369033715961
0.856514198703114
0.852934297881847
0.860483306558895
0.822239966967232
0.838567743381346
0.832753525091363
0.821248367266862
0.79169052656328
0.808296447360367
0.807857822381989
0.819568417709946
0.7784786871519
0.814928386621903
0.79407847535636
0.790807719128346
0.778988069657883
0.788948159547196
0.759363445959677
0.765574055716764
0.766139611644994
0.765122381106931
0.744581775102479
0.753851946404419
0.729287984217618
0.733329023382725
0.722729703188458
0.736416208029596
0.711652902970431
0.715571956129291
0.702049232224148
0.715079883715154
0.706841770522256
0.700063649111176
0.691602207640045
0.700087353939561
0.68841870539826
0.690344741778963
0.684688735023606
0.679186622832117
0.660430233262861
0.663084201598695
0.651914800973035
0.667147190238338
0.650390473478631
0.658986426823577
0.645077387985315
0.648809999583539
0.644316728484751
0.638383575895245
0.63371783770668
0.635185688317448
0.62189278921212
0.633156625894139
0.616910785717476
0.626833890181486
0.604701836364535
0.609467356035065
0.601571003650859
0.600076670981116
0.596062243271102
0.58956659103798
0.574429586153561
0.591646564953233
0.575062600484891
0.576892496149663
0.570694511576716
0.578184559984344
0.57199275491975
0.570934415420181
0.555155465831753
0.564949800957011
0.549716566124609
0.542879250241356
0.540064378669988
0.538223771878178
0.542524107929078
0.547146737158497
0.528689923322824
0.543342286071196
0.524239938447592
0.525059734481687
0.52473144913259
0.524450509485264
0.517241165710221
0.52402089092578
0.507462129664971
0.506283721953844
0.507271126541202
0.508194113147629
0.507222538039674
0.504731251378812
0.503150932483709
0.50969384619625
0.492207205130309
0.491924466958329
0.487605127616921
0.491816893027914
0.486232031343434
0.49137520723177
0.477227752283425
0.479584471092853
0.474822983991567
0.484703572671875
0.482336808118198
0.4762198691696
0.4765553164982
0.484853282924024
0.47340976608821
0.474175058401629
0.469196125745692
0.466622697211751
0.465175150557316
0.471299294382091
0.464311047226976
0.469327027795947
0.462806106257726
0.470344237881381
0.468474132763873
0.472497675870352
0.460330403011841
0.467860491496449
0.465325501683533
0.470797680814226
0.462197273625646
0.463665706406511
0.464209296147822
0.475189525462081
0.466633926789183
0.472451297528051
0.456590049377212
0.456926130371002
0.454513060288205
0.467224534922191
0.459983271249129
0.462136228720034
0.460356626374006
0.467304055197302
0.461343461248559
0.461283028540323
0.453093684228097
0.470987818753711
0.464977248318127
0.466193463286916
0.466514750116821
0.466033034601347
0.465946419739355
0.468765327427606
0.469758616910643
0.477852687185641
0.465994552679072
0.477742663160965
0.48575734449678
0.487961321146953
0.477789730721801
0.487586481786781
0.490285638056093
0.494844532597869
0.48894220630401
0.497218471042246
0.498510993406888
0.502213662343341
0.502814135421998
0.506147790839825
0.489224565374851
0.502981084862888
0.499796041177619
0.508849613933325
0.506967328862869
0.509250747641987
0.502740706715128
0.503682712654768
0.50757727161696
0.51927016439697
0.50954166003287
0.503464847287598
0.495716526518583
0.505790731158891
0.498137064385585
0.493937514502567
0.49961623508543
0.509540902137962
0.490532156956948
0.488730443560265
0.485459209048554
0.481782606681912
0.486753400913102
0.482947203278066
0.474617455488974
0.482075525579358
0.472003242299289
0.478171483761095
0.471314084307338
0.474910845175964
0.468900833243531
0.472601303950261
0.460342963474207
0.467081566739218
0.470178895914186
0.458129815466193
0.455587968067357
0.465606017307533
0.449557111778615
0.459900497602022
0.456789313291487
0.452392926284935
0.447847758914634
0.454763375015433
0.444252232763088
0.445525730442147
0.445658932655641
0.449036238374758
0.443778847067493
0.44801387759261
0.446001442379945
0.450138622358886
0.44013821275609
0.445418263942326
0.43820750075982
0.435678761998392
0.436510321624696
0.438626489058215
0.433077463053665
0.437805989541521
0.427858557407866
0.432507970497159
0.42610770390825
0.42960523091129
0.425183839667087
0.420061655283647
0.422166607912842
0.424936423922208
0.420049693947356
0.419787275180423
0.412737289701536
0.413599606736987
0.40852698379835
0.410013424426931
0.397760704278836
0.401390076688058
0.393563697150634
0.395494011410543
0.397763299728344
0.396369437378013
0.38994099821136
0.390002897915243
0.382691981057916
0.38396003088392
0.379375403535903
0.380531206572956
0.374059234609181
0.367616128106876
0.36633164332279
0.369461682274023
0.360005417515521
0.363433795964788
0.353553875667431
0.355476295959895
0.349279480841439
0.349303137555432
0.33918853455994
0.343383637919292
0.338091704076263
0.343946664687254
0.336768247112367
0.340283129304755
0.341702468775345
0.333558675940375
0.327709818989639
0.329628861140634
0.32620729242222
0.32410398209416
0.320039269340981
0.31642870814832
0.308838907190326
0.310535062649727
0.31186223334112
0.313720151676
0.306484333420127
0.308485502064091
0.309753132428122
0.307941322201571
0.297709602465434
0.304856386787991
0.297950487678903
0.30306834033949
0.304350425809665
0.2977357043566
0.292750619458917
0.295296231680272
0.292668889639945
0.290151128526991
0.283146456488303
0.283534477193836
0.283671446194726
0.281285090722904
0.27990441189232
0.283579590493374
0.281328772021901
0.276452124274879
0.271559696595631
0.276712592506198
0.273649691177266
0.27006312069789
0.2660833620858
0.265123370241838
0.257463799310145
0.26369370099688
0.258698801914346
0.261489964396663
0.262879810631465
0.260181046747519
0.259175183490504
0.257575428746472
0.25395354353059
0.255018969637989
0.252763501764078
0.252698497865276
0.249914222314657
0.251071832189695
0.248024510283263
0.246635809255785
0.243313533092442
0.245923577193095
0.2457736555223
0.241215965410318
0.243712282053571
0.243423747309005
0.234689114817641
0.239828537435016
0.235362824681367
0.238710467313551
0.233396127959749
0.235714687104958
0.233257342089686
0.233722930726791
0.236147699514196
0.233438522601809
0.229818288741946
0.232607181366946
0.227897986882117
0.228035869856182
0.224905173673677
0.229788213243364
0.227408707223411
0.227966359874582
0.227946802893749
0.224906076479188
0.221862289253665
0.225241197653799
0.222163423810661
0.225321390130309
0.226383605018471
0.221266393264403
0.21575497663123
0.223834144174863
0.221400934370418
0.217381125400837
0.215225460689594
0.217558427963244
0.215684964149059
0.218301124227908
0.212985762636259
0.211733819117009
0.213758072129884
0.210434543900099
0.209211443603128
0.212833996024906
0.209206953266666
0.212711683376384
0.208861314785632
0.208606180478858
0.206971148340883
0.206801629816963
0.201926227729785
0.202991057311993
0.202406126087629
0.206378635636997
0.204136077973482
0.206038283992011
0.202693594895766
0.202594976554227
0.199063332210441
0.202557344498648
0.199053765909929
0.199139377888543
0.20134711989186
0.202220302343587
0.197658933031197
0.19795432211349
0.193411449004809
0.197524889473664
0.196852577848505
0.196296477722114
0.195683810487351
0.198698383588333
0.196624142544353
0.198200975815527
0.193160872332282
0.192254454356252
0.194043781357213
0.196107096290354
0.190788606489028
0.19137236029518
0.19321901731942
0.190344879786
0.189532545580149
0.190780105713473
0.185778256837567
0.187649173825075
0.186166270201643
0.189914166137122
0.18668487082137
0.188621567757128
0.187092922181271
0.184247713983796
0.185525883852109
0.186157811748734
0.181230854542761
0.180688667793042
0.181620887675796
0.184775340830258
0.180251801142223
0.183230031227151
0.176516242578119
0.177262926968096
0.178114284956481
0.178337269030078
0.172050902589516
0.176427337178905
0.177113801784906
0.174528527228664
0.174312385814762
0.174919717732079
0.173134208083478
0.173289022285304
0.17048302007934
0.171140171022509
0.169011103220314
0.169673836373838
0.170814334443146
0.169336500280597
0.167514299193191
0.17229534530716
0.169184787831435
0.169485613628976
0.166994348898198
0.167417818057359
0.165429594922055
0.166599970338326
0.164281250067368
0.16309966788672
0.163468146273708
0.167480925512822
0.160089804436709
0.163015387726404
0.164326084942653
0.158318357169888
0.15659720559968
0.159055307243305
0.156967375062636
0.15974762319053
0.156629947920058
0.156646744638706
0.155365705796228
0.157144667188784
0.154772896560586
0.157564887482699
0.153077173564992
0.154323836303082
0.154887954574557
0.152858113818986
0.150404606367574
0.150189314481976
0.148496663450941
0.14984021140119
0.149314187679337
0.149075155509363
0.14773493019001
0.147255334538877
0.145176994635525
0.145347467202846
0.142595989435662
0.145165895310152
0.143941454468324
0.143976397961709
0.141188949439809
0.144052584308969
0.142801553893989
0.142009847601784
0.139769982391567
0.140191349310311
0.13617647869281
0.135912913798106
0.137908613004078
0.134146668722688
0.132880868717443
0.135881988661887
0.136050614004452
0.133970833654562
0.132604356283608
0.136931981912064
0.133395601086366
0.132365229113176
0.130172305731762
0.132511019071858
0.132982775309108
0.131576715743111
0.132512575830032
0.130014428002702
0.126907464635425
0.131099290127619
0.129967353841421
0.130874062385213
0.12704676596707
0.127921269525394
0.127216811231873
0.128581130152936
0.128204213600973
0.126763896911887
0.124253855947206
0.129175063413748
0.126750147478412
0.124103482704255
0.125381169118639
0.12730868525862
0.129392997695705
0.129119303608364
0.125564411390089
0.12504176957226
0.124379489310556
0.127064512340113
0.123629206845797
0.125265421898483
0.122837393367291
0.122744792592887
0.12188896844367
0.122833471486883
0.122080172235042
0.122349555753218
0.121292088849873
0.121616300782261
0.123908361981063
0.125967729439256
0.121906056535454
0.119330144787101
0.116177160738759
0.120440937405767
0.12059027116957
0.121235760162286
0.121077675730641
0.119068402701978
0.119273093449278
0.119456205150756
0.11804653948089
0.121278729565212
0.119732279017365
0.118188084131255
0.114325521526529
0.116060232804833
0.11569784009579
0.11705528085122
0.117228318713804
0.118178103995125
0.11669348891722
0.118885210055295
0.116596629109331
0.115074279960813
0.115538433173796
0.115291024569843
0.114850909991817
0.11688659391328
0.117069137337678
0.11216162274308
0.113037215557366
0.120106128581713
0.112869357121911
0.112290912330301
0.114289306984656
0.115138823082881
0.116237138883237
0.11527274513513
0.11470838591969
0.115917828791248
0.116078912353127
0.115156527547951
0.114131133066597
0.113878176610456
0.113209673621242
0.114867944020076
0.11439078303376
0.116866486941217
0.11431849258015
0.112959695644825
0.116199601202957
0.11595429321155
0.112318981914496
0.114152660514609
0.113608611110373
0.117120365155573
0.112768013526371
0.10940307618629
0.111762307819122
0.112911757199372
0.111734312157749
0.113610487391821
0.11102923198558
0.110951429728552
0.108256918235255
0.108738594613694
0.110412199107328
0.111632977627447
0.109123403437276
0.11193476185466
0.109443518994373
0.109961289286344
0.109782084465459
0.108982281460308
0.109047598087231
0.110393569238053
0.109391185542888
0.111265114844165
0.108653424722534
0.110392774285913
0.110895163588087
0.109314409395178
0.108610193152233
0.111174968411418
0.110199982187388
0.108164810575315
0.106585342253193
0.107391708456385
0.10691724914793
0.108686667076005
0.110191140354967
0.108305102820052
0.107820636721387
0.109506438202336
0.106146355368667
0.108750569670463
0.110524241213739
0.109218235666789
0.109950329097041
0.108785493651252
0.107221838514457
0.109225541911948
0.106492991111853
0.108011392622253
0.107361056208813
0.106490542304039
0.107407055080234
0.107385089238151
0.109595391252553
0.10929684271433
0.105914900938517
0.10879566090042
0.107461397968519
0.105328713642883
0.105987297913549
0.108050769702787
0.107744865078065
0.108283377848772
0.107510946992988
0.106705612625558
0.104266610538223
0.105305305600119
0.105181121726245
0.105632052709778
0.105991942207043
0.106911825185941
0.102742944315194
0.103001684185272
0.103649126818478
0.10365455014144
0.10375633220117
0.106058278802678
0.104551814765138
0.104585912821679
0.101524095304824
0.101053565215964
0.102014639948322
0.104008913990286
0.102965897362377
0.101930621043754
0.102625437250486
0.103876671995607
0.100746788333608
0.100107774910026
0.103068553689603
0.100818602373591
0.100516590454311
0.104130314854225
0.101814574581817
0.100251047484294
0.0999825618955139
0.100286830346346
0.101870160224672
0.102014292155102
0.0997585152603222
0.101302062290685
0.100285224952819
0.0987838075522359
0.101743181803718
0.10073751079005
0.0997739005616956
0.103424816770474
0.100782139485875
0.0994736330616699
0.0999536761807921
0.100048023424291
0.0985341247220022
0.0995970565280364
0.100166421215541
0.100187860543726
0.0988180117429859
0.100268157873398
0.0981111767310443
0.100367486659652
0.100482396891959
0.0997168133443354
0.102119671111863
0.100257859722512
0.100037340173504
0.0993610079131987
0.0988500332882146
0.0997855060380818
0.0981040669494229
0.0998968729228638
0.0972975530424687
0.0981216785247829
0.0991944070074296
0.0988548124039768
0.0979865634086105
0.0973612045617467
0.0982071938523634
0.0986090500199361
0.0986559879021729
0.0997901362088839
0.0958577813203517
0.0946762354331759
0.0981254085786807
0.098241484896687
0.0946722744612929
0.0955103559757135
0.0964100760989375
0.0981688947180917
0.0991993652793853
0.096006864235326
0.0950058694109786
0.0968294563481069
0.0977735455731558
0.0992027217434192
0.0974394192088203
0.0996801843871905
0.0989182075327845
0.0980921499186367
0.0984694830906614
0.100212665687597
0.101075940680016
0.0992100614150415
0.098263708711917
0.0981105211346958
0.0979774949797356
0.0988527954925345
0.0991279293490121
0.097984533106985
0.0996716055915029
0.101690742463855
0.0991579900714727
0.0983362229561772
0.100928088436992
0.101537664105701
0.101499759065725
0.0967034611352705
0.0961292990430539
0.095963404516169
0.0965017312683087
0.102449388519276
0.104847785622137
0.102595832370589
0.0945726273435604
0.0920292616922584
0.103347218218006
0.100227607347349
0.0964002636690675
0.100357197018423
0.0974305062578541
0.0981537776444135
0.0993250866099367
0.0950065842505469
0.0987202285400295
0.0964561182110243
0.103159108486788
0.101648001259966
0.0998557968961716
0.103973782189071
0.103760503844526
0.0978266588855521
0.100660483634673
0.103187567378693
0.102266323964061
0.101467086461387
0.101641401564283
0.0979828777477753
0.101941645444229
0.101127147606271
0.104105848492608
0.103353868125474
0.106617973693433
0.0981079551479326
0.0983826982214699
0.0960167552945426
0.0951814083760863
0.0890392127996117
0.0995439734513245
0.0989907099320538
0.107176061937618
0.105454229869978
0.102553353473024
0.0951008588420157
0.098041266987007
0.107528187582421
0.106958501014894
0.0961260748643841
0.0983596106957386
0.104120519823154
0.109300180925916
0.105397224523081
0.0952890805345624
0.110206689622589
0.108183743669001
0.104219422952852
0.0995453869836849
0.111905540888274
0.103344952151099
0.106033121396277
0.106173901805788
0.106759362799095
0.100717205044909
0.1096099231814
0.102900337978238
0.109937429538464
0.105259364725624
0.108362562289397
0.104889791506082
0.10730884074174
0.103416725787805
0.104366495426824
0.10466611077194
0.1055642566478
0.104296210853362
0.107254551690664
0.105463957100663
0.104758846907487
0.10332835178656
0.106669542032774
0.103358707771476
0.106469642391146
0.106095290869713
0.106546009757336
0.104839956166196
0.107283839388088
0.105942984363257
0.106945848102741
0.105248416511237
0.108912554297711
0.106941959695553
0.106482818482466
0.105867454685253
0.108292846374134
0.106693745647252
0.108799163549111
0.110092993962723
0.109540977011061
0.108973213309287
0.110734330969858
0.107519646419448
0.109659047546739
0.108943846404012
0.107653293849926
0.107425854276925
0.112015092821312
0.107605285924392
0.109885163373137
0.110876924629066
0.111625078588205
0.111247743858941
0.111850396459526
0.111449420636127
0.111736931388662
0.110510084473459
0.112351930654532
0.109934145591261
0.112097503304576
0.111739289151402
0.114213855790114
0.112665956414578
0.115934263648628
0.115032581674493
0.114942852828646
0.11493776479927
0.117168264940172
0.115126991241932
0.115524253513033
0.11377375559784
0.115699721500892
0.113336263686293
0.115371950968812
0.116196903542807
0.115076105461494
0.114948546780855
0.115741059496576
0.115635321319912
0.117396896890575
0.116210012216466
0.118486380745891
0.117035486945056
0.117198400470867
0.116993373108107
0.117435210965532
0.115350593759015
0.118370594856225
0.119370479040062
0.11948075611652
0.117936631454234
0.118318136154164
0.118009900549372
0.119667437706195
0.120519627995819
0.120306820505911
0.116978305412289
0.119808311155971
0.121609793927073
0.122339603096615
0.121019871338515
0.121969498522029
0.120748486022042
0.122828306043288
0.120946753869693
0.123511365284334
0.1240105147575
0.122998805275189
0.122368081033626
0.124457184339629
0.123150575777772
0.124300682204357
0.124691154213064
0.125627175865483
0.125385606056449
0.126654956584887
0.126050898938732
0.12638223061231
0.126469047585306
0.128787354133845
0.126460651143267
0.127833175282074
0.128132970176475
0.129140482617863
0.128168262919846
0.129799450452173
0.12721645874738
0.127857928007509
0.126555856597708
0.129055276959105
0.130799570971339
0.130833615515846
0.129737859307919
0.128999136809728
0.130963137579058
0.131531093957764
0.128454585366392
0.128686931945012
0.127659855779533
0.130023943914501
0.131649222465838
0.133082984217234
0.131259653657137
0.13220812189174
0.130356168830545
0.130692253286418
0.130807522314974
0.133444313989538
0.131878946292409
0.132204596512469
0.135024305523547
0.13578064519534
0.134884706299552
0.133784402123013
0.131737835943917
0.135633884716612
0.132611284379754
0.134307063191028
0.134891251289475
0.133971970178393
0.136716400580125
0.13783438516135
0.135000681504963
0.135827162243482
0.135680199017429
0.137635354633418
0.136262604615715
0.138002773116721
0.138055663504658
0.137151990612695
0.137120238211935
0.138989201394824
0.136806962834395
0.138120423561622
0.137157949015469
0.139265180077015
0.139596305903325
0.138778772719129
0.138889365124623
0.139143186267904
0.138461466887478
0.140312174025455
0.137119833226266
0.138775204121407
0.138118181980823
0.13636189944309
0.138443999171568
0.138042036674955
0.137370485862373
0.139227442866966
0.140622853092537
0.139569719376965
0.137167149829255
0.140177163379416
0.139915260774012
0.139190405845721
0.137938265337265
0.137969015748802
0.137738681144647
0.139570138711416
0.137095363184199
0.13701220259764
0.138280991189505
0.138447305553518
0.138429522174799
0.137447519788172
0.138373566456725
0.138233323103267
0.136971681189605
0.13844191527446
0.138039901577352
0.137778767108619
0.137310144522533
0.137651300545742
0.138327219936926
0.139727056314835
0.138448333181306
0.140121490660793
0.137913360597631
0.137023007360615
0.139065531847987
0.138498262277472
0.135283894300455
0.135360281686064
0.13569192201132
0.138884633285447
0.138002758800978
0.138542887489943
0.135701959476507
0.135353689771005
0.137885909623143
0.138648543611574
0.137492305984524
0.138092077958189
0.136886281983336
0.1357566925353
0.135513038537915
0.139427217042084
0.137776934991884
0.135853168651549
0.135882268675007
0.13775761862247
0.134574729475847
0.136638556000619
0.136379867485835
0.136071278293955
0.134689055956253
0.135728070157569
0.136543050285829
0.136027904685618
0.135814554984344
0.135044990049341
0.132046669453699
0.133018656520355
0.134882679172093
0.134961938065724
0.134900733547419
0.134902170514196
0.132223803414599
0.132825360197828
0.132299214255502
0.134201290667341
0.130574974623954
0.132460608003352
0.133643691126594
0.131671693826424
0.132813845841278
0.133644302201301
0.13214523566806
0.132042182481978
0.131572832803342
0.131005969410295
0.130622352500287
0.129771292559573
0.130136910794513
0.131635696072785
0.12940765616866
0.129585123977541
0.129892119217945
0.130511843689754
0.129403008408481
0.128373797738308
0.129895081847466
0.128574440248103
0.126970966743091
0.128601405372324
0.128389110802833
0.127385917793435
0.126783037934831
0.126470130561382
0.127000517788005
0.127362943663543
0.127248032926373
0.126158007341814
0.126570430902684
0.127681370837879
0.125276018888618
0.123945936802873
0.124946488779288
0.123571875483097
0.121949896089032
0.124315346672537
0.125273185676542
0.123112516409624
0.122633157917256
0.122741717210127
0.121971185927725
0.122594421189798
0.120717848028167
0.12218473647817
0.121129555566455
0.120711359493325
0.118500159420127
0.11940192225428
0.117565771165098
0.118454485290378
0.119560323190517
0.117971565002527
0.118010556285546
0.120096815243187
0.120015471966708
0.118219912307882
0.115020168450576
0.115380081361936
0.114149046809653
0.114303083200835
0.115445322434527
0.114883923647306
0.112390810851296
0.113738413817587
0.113864833732963
0.114029238059889
0.112754842268982
0.11069055622575
0.110899241485657
0.112303034622548
0.111149418778995
0.109068087616003
0.111812608713745
0.112006218679393
0.110074555498815
0.109827445405745
0.109697242807304
0.109001036019969
0.109003969352144
0.107612471923007
0.113323994107025
0.116059717025367
0.110864470477915
0.10608592518768
0.109154564884368
0.107620177755918
0.108270595688376
0.1073605348588
0.10818671858464
0.10641696064453
0.106796676767749
0.106797495875379
0.105803381768508
0.106147966903043
0.103861376533873
0.105805573595329
0.108098166550863
0.106294329946748
0.106755473520763
0.10618207135003
0.104646462333098
0.105864352300532
0.104660141264346
0.103658056446838
0.105361589077781
0.103028299773629
0.10420627464104
0.10809406715463
0.107937188713748
0.10342061369409
0.10181913016597
0.101844520706519
0.102023381574936
0.103924742585336
0.100962409208384
0.099252687024318
0.101625503901208
0.102800983209824
0.0996950855519349
0.100564219592283
0.101414381914027
0.10035761240689
0.0993463515178098
0.101081288537985
0.0999856031365696
0.100426637862931
0.0992119258679325
0.0984547199171018
0.0995991049436609
0.101744233524362
0.0992938208421258
0.10079732251634
0.09471285793252
0.102213281671836
0.103222773145643
0.103409547918033
0.0967692053821336
0.0984553894352509
0.0955233023561354
0.0964238088487125
0.0987527555816468
0.0982646270355312
0.0959605164091664
0.100477279830472
0.0977805206927249
0.0977599966012814
0.0979146170174188
0.0987967465561968
0.0951757459237331
0.0988779577096996
0.0972857393590959
0.0967243314014731
0.0978122484214913
0.0958575917260635
0.09451753644493
0.104523463325643
0.0983955092984357
0.0980419136068906
0.0933484232925641
0.0964639023124878
0.106776459739204
0.103665683005584
0.0968869518611653
0.0968113719658902
0.0951739964519063
0.0931497116520921
0.0988457987343371
0.0918958023830887
0.0966653746588965
0.0969441087620875
0.0974634180358252
0.094989489587519
0.0964473506546478
0.0943148771743998
0.0965602788153586
0.0934815522792721
0.0938812528219467
0.0939895125512444
0.0944977348195041
0.0948612789117383
0.0943294906894066
0.0944521887466821
0.0949826599690985
0.0922182226503818
0.09744056567278
0.096391242566959
0.0960189838445586
0.0927998825872308
0.0964109196140466
0.0896979751040129
0.0994504591815403
0.0978183950670458
0.0976003863840957
0.0934154310833605
0.0961498424127087
0.0936020378541159
0.096650442066139
0.0925272497668021
0.092458751846624
0.0933121095865197
0.0932300242865213
0.0922296982716156
0.0954125390567661
0.0946956705555233
0.0929611196799565
0.0940782063149816
0.0945674397398454
0.0959085674291087
0.0911762818298749
0.0944702750465001
0.0932117148650875
0.0932804787100295
0.104726296822025
0.102880575931155
0.104161433758751
0.100223541158235
0.100575865038612
0.0935350981261203
0.0967605601706894
0.094613362037867
0.097456476763536
0.0928925042284321
0.0970180834762355
0.094885242349445
0.0984977180354097
0.0944678890486335
0.0971306811430571
0.0922600410790042
0.0974522537163184
0.0912698531049176
0.097325861378595
0.0923735985821333
0.097725105431382
0.0908911591386368
0.0978678051078817
0.0957689000659583
0.104666209394904
0.0936636492469856
0.0939056975550217
0.110203246630183
0.106273044065065
0.105348323756473
0.0924603215278553
0.0971001218448527
0.092953285435573
0.0949805670718237
0.0943504428352378
0.100418325252804
0.0961986920964616
0.0952476014640709
0.0957432076081434
0.100880029626952
0.0944001865011207
0.0940976657558514
0.106680201393356
0.112686642151733
0.104761372936498
0.100650836964874
0.0953715025843461
0.106522136850982
0.10968737907722
0.106693152401913
0.09763948555446
0.10120433771539
0.101967803628483
0.100280193811814
0.0982115281172955
0.10140559013268
0.106650411804392
0.101916933664656
0.103264621565788
0.09989400946815
0.103557138402056
0.100148906885378
0.101167032411197
0.104365234920709
0.107089399884028
0.10475893071461
0.103706873449101
0.105485925293076
0.103321070893648
0.103664559904368
0.105774829257771
0.101739337415625
0.108803965658199
0.106949558514737
0.108769250949659
0.113399452766575
0.111483705646541
0.107850755846948
0.107545358482323
0.108663766615711
0.112314702987695
0.101309988475775
0.117739828607778
0.109975009045511
0.131398940499984
0.110252531212637
0.118100937228197
0.105027419853068
0.115361034446582
0.101618782935351
0.112829323040566
0.11440986873905
0.120245357568073
0.108325701083327
0.108669466725463
0.111902878660372
0.114748750476423
0.118021677434854
0.113369677412104
0.113891221633394
0.111640489388219
0.125377526426212
0.111543793046853
0.117122609162778
0.125242173955162
0.131027663782487
0.135034629717681
0.118226350241152
0.126917687432346
0.124723832327936
0.128642871672327
0.124845272209293
0.123806649126625
0.124740502695488
0.11826854060543
0.131384158270163
0.14125216116378
0.132594558678596
0.128598022736033
0.123136031785924
0.13294804176663
0.142401581250368
0.138865892619876
0.129524152287589
0.137464305520002
0.130832158543969
0.132282046941027
0.154934417809861
0.148171236900767
0.150953182537285
0.143025600405792
0.154876178381808
0.141664751821122
0.152063561866343
0.138901750345828
0.153669152107936
0.151426713839872
0.151937943594323
0.139593959684033
0.165512701864282
0.156927123805991
0.164358883110312
0.154083704967252
0.157986466144756
0.149232738149479
0.179279536839901
0.19128034329222
0.187875221862331
0.165715866714119
0.173958748646993
0.177480742189684
0.178194951161214
0.173188006421772
0.17646524214239
0.177950899988847
0.180070536230689
0.18387237042469
0.192180275203611
0.190260281416366
0.194911491750397
0.186782519352693
0.198174836667631
0.201056844931321
0.248341710677668
0.215875848891661
0.22338626910709
0.210235981005844
0.228551008436729
0.219462703165889
0.22336580368547
0.226302334744943
0.230557141243453
0.234928412991181
0.235179284830571
0.238500328901743
0.253436487844819
0.247570734238672
0.274956896082458
0.259888662256459
0.272570783996727
0.245632599004284
0.291818662558257
0.317195126895384
0.317462588869966
0.292526059497705
0.288365924274482
0.311373950943441
0.33112802962784
0.330180742920527
0.31012700428876
0.32536549556376
0.320747676155702
0.330286844251198
0.339929501980489
0.347010651827366
0.358713509419028
0.360053900325031
0.36055138942977
0.365064767747717
0.408299256712118
0.437397500444005
0.398286529620303
0.400252695586753
0.408254672954046
0.422921829984871
0.41952560145067
0.436992896829709
0.419619963506456
0.461119658680212
0.460597788281082
0.482085084967003
0.450082153479415
0.482329440139597
0.469397296860127
0.502250449171749
0.51586064107678
0.522690013592115
0.511728762546614
0.508005075944207
0.533955016490992
0.529130238144331
0.545985993959211
0.556407983714718
0.568283686303877
0.56978181689512
0.559122411894053
0.575028706555731
0.576783692106111
0.589845675882036
0.585122582630261
0.60087847671575
0.599175715014114
0.618100609036774
0.700540475734075
0.656848223705053
0.631378421731276
0.61336663905681
0.645459733883703
0.631749724416952
0.635847334363621
0.678097897217789
0.664592096890977
0.647459445434875
0.638789774145266
0.660986880840397
0.643037805945907
0.666534767773724
0.654185002893781
0.660225666399736
0.661291987843634
0.652989697520862
0.682558982519011
0.686990126701657
0.675520077785052
0.637153142758139
0.653915560308749
0.639234050138331
0.645531272197838
0.626475931771629
0.639372364320059
0.623354998787438
0.633713444677165
0.605369704049794
0.604756413019265
0.624349082666122
0.620021809004084
0.59979519670325
0.578285674564625
0.581894192234687
0.572922073551718
0.550524943075511
0.561417272060495
0.567239679742376
0.566020132116176
0.532057130715626
0.538402847234291
0.521599563924078
0.517841069988178
0.501893507750859
0.502574707097392
0.486195973600806
0.48922785821479
0.482027924268882
0.481196848603033
0.462762710087736
0.457492141517809
0.449893625068757
0.452157626750703
0.442261538406825
0.43654291562095
0.431952354315027
0.426309168423772
0.419444318850178
0.419098280862575
0.411548405894251
0.408687142698401
0.403521669497804
0.405489473302693
0.398210876299621
0.392817469428245
0.390027225302521
0.383864208787154
0.378902789745136
0.376871519786029
0.373875425176882
0.368630197920142
0.367114706984656
0.360523789256789
0.362440156817281
0.355262305225404
0.354070982241214
0.346099357630581
0.353576547887241
0.334554962473972
0.343728739100146
0.377640990424461
0.354743420684524
0.345308157527443
0.321681596988772
0.335489817924003
0.313888873182024
0.330501748536877
0.336471309032881
0.342248183512497
0.318959709112442
0.313673690837911
0.311927769787467
0.320488729199624
0.307160101288656
0.317397749457447
0.292259977919091
0.302963805050359
0.328149698348842
0.334367801185408
0.364256113529201
0.339950130809539
0.326457922181623
0.274637002445488
0.321017127844144
0.299949981178204
0.304745093963522
0.275944492454427
0.287106630752149
0.285805919962912
0.285025326587965
0.282979190524279
0.274531249575684
0.271469918666339
0.277002608253875
0.284799041554641
0.275490040976416
0.291845667490799
0.284088016306628
0.278857962857792
0.276772991250756
0.33092116249575
0.278571795498723
0.26769074412349
0.265483286211971
0.25418463617459
0.275139939343463
0.272127044311192
0.275827249155464
0.26984538139066
0.258700779220389
0.257689362173572
0.250624829117551
0.281547622427607
0.247033435009136
0.276089355656631
0.253734809099155
0.266157547754982
0.244777304426668
0.267979797492538
0.284942536532604
0.288136049971298
0.263689584795075
0.247810251054424
0.27621498789743
0.266446883441929
0.271333631790191
0.256030115111352
0.248895210438257
0.257642686026536
0.257409286975601
0.254990835386637
0.258751668267117
0.254902904235954
0.268970321630867
0.264034440483555
0.302182374602157
0.289725359692135
0.260176120916987
0.252760269260945
0.245417793561236
0.260619541588064
0.249364435275475
0.249273825485201
0.266331356891642
0.252056506913588
0.270498911457733
0.259257138519291
0.274744374796498
0.257199181111783
0.260679373357071
0.257591479211227
0.264984134168173
0.286888449657414
0.295649978743975
0.27321535787797
0.277178902494044
0.274467524433366
0.287339840496633
0.272728050535462
0.285376240581784
0.273139292805183
0.286035310083171
0.284946982859602
0.296146758818118
0.293325091697703
0.30654300911958
0.292455956385794
0.333918389550823
0.310343119339758
0.331158386316003
0.304181603939211
0.354372145659579
0.350086404504722
0.343151921975615
0.341533448639307
0.344516623579516
0.350928569276793
0.350646315681948
0.347640516855895
0.374507424301325
0.368908350898458
0.386464324025325
0.363895842109608
0.386458496269581
0.37563312809775
0.393126281196679
0.38881098666355
0.397105971025892
0.435403251003474
0.414667540608967
0.414912384643862
0.39440346701951
0.403915853071902
0.395686628793251
0.405036874883504
0.399969785700756
0.388874101227678
0.402861714488756
0.406314724650115
0.405359113282014
0.400719640051528
0.404979249262587
0.402115572658268
0.404291438558776
0.4065703551545
0.410671728398182
0.405572384019653
0.41491268774868
0.402290903419696
0.426880569290379
0.433095271265353
0.440935953242624
0.421100169223242
0.418818485083737
0.428664300642303
0.424757093791989
0.426721183272678
0.431544121904899
0.441388254448282
0.436030611493949
0.426844164040123
0.441232895623317
0.433449490420965
0.456463665430371
0.44104108409055
0.454400202706844
0.441283419449232
0.431110634128822
0.46487067139335
0.458372668846376
0.463799498104606
0.442327972261518
0.459948466990611
0.43390056326254
0.454695496656314
0.439512231684808
0.451194693338004
0.446378684610817
0.446562505703308
0.438778477875644
0.435920846695754
0.436676988448645
0.437002247239797
0.440857266098352
0.441216970479527
0.436755542477169
0.42210369364015
0.432332702075371
0.425900798624209
0.421764866658469
0.435211836953222
0.433567666373898
0.436300484999795
0.415988934996622
0.423802555370773
0.435247001844475
0.433489694563388
0.419469600941612
0.422288547709555
0.419639100677807
0.426023934535807
0.418011511254866
0.435375050696713
0.433811107117267
0.446016351211415
0.431086133878172
0.441926354443591
0.430495025482463
0.442512371731102
0.440233218540656
0.452315990061663
0.451517476383124
0.463362510531393
0.459604414038613
0.465063882479777
0.465344511452787
0.474982970824637
0.472796504345865
0.477559067167865
0.474158684947579
0.475647904093697
0.464926953985814
0.478100072357588
0.476167318076172
0.477853586182051
0.471339308214727
0.478625502380698
0.460975597623338
0.480956151123228
0.471754399033152
0.480107687888177
0.478071763287088
0.475414347034039
0.463582185708885
0.464953149906319
0.462408831541766
0.460197382113202
0.466769630783701
0.463376946071455
0.461196343329564
0.461041060759833
0.452249239783571
0.452536681410257
0.45236691999723
0.455735322198143
0.449850474145367
0.451552964575387
0.447765465739182
0.452438136648206
0.445584562086162
0.44750348322014
0.441495061487094
0.445851952258562
0.451729038007778
0.449312031307458
0.445878660662373
0.443824834667267
0.446833462434522
0.438105239512695
0.443970610243158
0.436480660635677
0.43975304791053
0.435301020371561
0.43613140950092
0.430779393734238
0.431056349450187
0.431519858844057
0.425208157395533
0.425570067352377
0.427965606323219
0.422502588047458
0.423424406093579
0.419877432860352
0.419581209460768
0.415869249711766
0.416896143004936
0.420211926925089
0.410950345217598
0.412908140970975
0.409553759680384
0.410264370859364
0.407351800764169
0.407237674701591
0.400345126278722
0.402621246131303
0.403509410404368
0.404323507302649
0.402613141390332
0.403813067080477
0.400507943706382
0.399099789302837
0.396816115480509
0.395698147866962
0.395101067234818
0.393139415177944
0.39261230240535
0.394978126361688
0.390044995041986
0.386455588562098
0.384972576235976
0.384651095273115
0.38005588451916
0.379569905005023
0.376217177210247
0.378509442592683
0.376926199449582
0.373179892833557
0.369531228718072
0.36736594017749
0.367427840100528
0.368232698594965
0.366392745356834
0.365930302211288
0.364805611244358
0.365428814434268
0.36352793596154
0.365657832574641
0.360184103358028
0.361190525076307
0.362299954820052
0.366062341220484
0.364586275173167
0.365568223047416
0.362000550242458
0.366787973122649
0.363296051450101
0.363308478625515
0.365798674678587
0.367151412241134
0.36600754229381
0.367327840428346
0.369920824876369
0.369157195569897
0.369644844743922
0.372343271583619
0.372419896012465
0.376368646947813
0.373065243966125
0.372538888816305
0.373527343498909
0.375287077949
0.374784127830487
0.374437516248474
0.373775514576794
0.37105928515984
0.373128635926533
0.372319145932022
0.373385319899711
0.374557904174927
0.368981035349758
0.371768977986891
0.372292473032538
0.369080000708182
0.368642927568296
0.367003071847801
0.367322308593839
0.368081549874056
0.368760229294347
0.367898178517358
0.366898023941385
0.36507701534252
0.365711581233353
0.365193933181607
0.364218620077016
0.365239627265584
0.359908894371897
0.362371615542947
0.361491281098279
0.361343497836448
0.35787918105918
0.355014448172044
0.354356784380459
0.353520782087438
0.352546503088098
0.352100606259002
0.348177689221407
0.34970024863738
0.347978457776688
0.34420653317629
0.341106327222359
0.340680786033344
0.335799671472377
0.335071723371461
0.334738862117179
0.333663590709062
0.33101237349992
0.331092632227913
0.329420530799532
0.331772830288316
0.329872070028157
0.331343463415754
0.331117869788479
0.329688498605869
0.326937916816148
0.330287971278573
0.33132227416075
0.331697646780638
0.332826938570561
0.329710334268599
0.330204667170841
0.330113809816964
0.329048991629719
0.328570012302457
0.327604665494456
0.325743940502393
0.324331074997602
0.323540575137273
0.318704152410517
0.315217612633421
0.312097137180365
0.3111140514138
0.308379781961488
0.306788903377927
0.3015314354817
0.298924148005737
0.296568452078359
0.29481094537916
0.292098201359543
0.291052542492551
0.292450702444938
0.29505807615159
0.294537223096355
0.293064927023729
0.295197918047038
0.300308026585082
0.302150420475202
0.306025809564381
0.311631204083558
0.318138943765946
0.323566963270637
0.332095486803242
0.340798964414116
0.350575520916055
0.35856464073736
0.368520351129613
0.381135399031308
0.393575733890403
0.405129762056284
0.422729422955974
0.437421275119358
0.455584136566182
0.473777720946324
0.49684468974157
0.518043499973376
0.538938765247096
0.55743203517057
0.578648845632744
0.600551391173346
0.621289963056648
0.638787225388421
0.653995900869515
0.675331270627569
0.688450264318424
0.705879248403228
0.714354337363294
0.728511619711746
0.731527301314353
0.733062072970375
0.738227114479666
0.735053140116707
0.728478050353084
0.729102830503426
0.72201951702463
0.706503421944079
0.704967587430759
0.694078730169375
0.680393404765058
0.675035102049308
0.664949008397267
0.657921451293238
0.646130524342976
0.635014622512289
0.630987003669822
0.63383125149584
0.631527329002357
0.631488762209344
0.630158116579367
0.629121995322883
0.633153760641771
0.638312677734983
0.641373244986321
0.647021137480788
0.65657620217987
0.66492135099219
0.672382172945243
0.680017877758211
0.683791125670346
0.688745431562694
0.698732352741512
0.704634074130443
0.709699296144649
0.712664116738048
0.723166603674149
0.724588948968619
0.725824382266406
0.734463944723362
0.737115756540974
0.730953268227891
0.739108310581651
0.746965343141444
0.743664340796781
0.745337569835436
0.74147094151776
0.751931841878481
0.75513853894126
0.76113448304328
0.765313347181654
0.767499971307353
0.771501718861624
0.780412581101773
0.781422567930202
0.781049059791009
0.780184706816197
0.787911187529697
0.783218314566891
0.77955486988389
0.791699762369285
0.798608634041849
0.805508919635899
0.811820269855302
0.816678056419197
0.833600219718083
0.854109122717997
0.864831408084053
0.885700293437848
0.906542139916954
0.928669489370136
0.956363176841944
0.987403575656315
1.0144829957416
1.04210354796743
1.07101881478119
1.09365072453306
1.11559361060228
1.12829856107023
1.14220581858226
1.14604495569267
1.15792734141774
1.16721189114139
1.13782596152034
1.13174518987483
1.1306972820923
1.12595084809472
1.10323151762351
1.10834805264322
1.0778420084854
1.07445072753456
1.07129771523602
1.06035281209889
1.04858105056585
1.07066424375253
1.05836631599428
1.08976170221898
1.08185476160387
1.09699253027386
1.09799350007776
1.13544641875537
1.12998176787027
1.13961629797331
1.18130881383789
1.19594097721777
1.19467529699225
1.24210486730098
1.21933423271616
1.23393508560772
1.2446283354863
1.26556481598048
1.28804433209119
1.30923218822133
1.2987623713023
1.34657011140605
1.35438398719647
1.3874977626398
1.38801884758471
1.4016204534718
1.42418558083658
1.42465368047165
1.45102735308361
1.48050198811138
1.4578657176884
1.50758209548871
1.49407623461943
1.56446578060233
1.60799904932599
1.62872316519693
1.608284798129
1.59262077934943
1.63244437160501
1.66370240346406
1.62394807888486
1.65091511639119
1.64730904913323
1.63827837453824
1.64193714745546
1.82845485041701
1.74333841955636
1.78619322196183
1.73342050398843
1.72862178127243
1.71045633425956
1.84444611875111
1.62786706276938
1.66561085977692
1.61896019907231
1.63140645080116
1.59410507979707
1.56307952319206
1.5215951742265
1.49115915074909
1.42132317946555
1.43453422513936
1.35308819733915
1.37107057766027
1.31559369801176
1.30010596114225
1.26545533459697
1.2593254700018
1.19427023776994
1.22083480525712
1.19031540103999
1.1815540002425
1.16552204653711
1.1559726998697
1.12044765568561
1.10652996137323
1.08026694847549
1.05150997189467
1.03443973444069
1.02561431156174
0.993102039861935
0.951624835452573
0.916285087494423
0.898511853692126
0.840361126085399
0.816987233035624
0.778224846834889
0.755153526214432
0.712608090551683
0.687537336788826
0.646872267494008
0.629970961765062
0.601534028972255
0.580720575220923
0.564227193712003
0.552299734693438
0.527212137873893
0.510630206242003
0.501093112960068
0.488207132289221
0.476110348936009
0.469828578761965
0.463108347739895
0.454598576757592
0.442814965045372
0.443956514979801
0.429796504867831
0.421428080015841
0.417752582983304
0.419956702560035
0.415342419666647
0.415669352724953
0.411407323086524
0.411081818491171
0.41655462347005
0.410939168634088
0.407146465158129
0.412447272703196
0.407770764109073
0.406853397555458
0.410626969732515
0.418236107193126
0.418132853297711
0.417576042065993
0.422105086973216
0.423983464650339
0.427111560948879
0.433029613488422
0.434902931121405
0.446415182824357
0.445660058111829
0.443325968041047
0.44780988639231
0.459732742263633
0.458029087767983
0.462881529028246
0.458854639155604
0.472184785896908
0.474685159100425
0.473676477646821
0.475297309341217
0.483945073099066
0.48362955965793
0.486048402591827
0.479932589847767
0.49052579627597
0.491149301200735
0.497743881367021
0.49954959037134
0.500505923011843
0.495669802206297
0.495377676446698
0.495598713601467
0.499724907555855
0.502155582389977
0.507582302572089
0.493427815862914
0.506297166783762
0.498845339324721
0.494383765524653
0.493753633804362
0.502684999969411
0.493541177494733
0.502329099059738
0.496493585642708
0.493798871715331
0.497652484182069
0.49764221223129
0.493110346898812
0.49764670834825
0.497963163541723
0.500280814297629
0.503763156662716
0.51047243884172
0.507473784684513
0.510945263287622
0.513295892500178
0.524736290412864
0.526152542001204
0.534869003359501
0.531296364342657
0.541179496218695
0.546880509460018
0.546308135552959
0.540169566821488
0.542920444245099
0.541825389427024
0.538416787052389
0.532722826198283
0.533880227171626
0.535818462781215
0.536950811548724
0.53837713535707
0.540267337463435
0.542870865214567
0.546597552215225
0.533251948645913
0.541925220160083
0.533819736458399
0.550803374266196
0.551493083373642
0.555998887623574
0.552717698182601
0.575710032707487
0.559889095350556
0.565575556945919
0.568288841345537
0.579825526675623
0.572466316139153
0.585338221269649
0.588354477836285
0.585078701579386
0.58282805989829
0.605676323790188
0.607012416947149
0.607136991249563
0.606574398923146
0.615739456310213
0.603725254141308
0.630349564311552
0.628043522439014
0.641875764549072
0.616313120780184
0.624725744157147
0.613556531806444
0.648047563249482
0.647060661280535
0.645668644694202
0.618304245828039
0.651265865708812
0.635126387414353
0.664141825761343
0.663190145469689
0.675824092726039
0.670606654589675
0.651753396877076
0.685370424992086
0.66328324984633
0.651663254728604
0.676818137538657
0.661389684895172
0.686913708417008
0.666494137538851
0.683215187076529
0.671805640439404
0.684327273445178
0.682480824471698
0.698686589402521
0.675160741107201
0.687831255923131
0.674123977433765
0.685994680628741
0.692189889572161
0.71881395491712
0.683904549356661
0.720626047833685
0.692467516047387
0.719168761487423
0.733696698129804
0.71297253638675
0.692739128806678
0.73331551681653
0.744587070401143
0.749947520367494
0.702890483531536
0.764772306730195
0.727785235357535
0.738917812305658
0.759582505706321
0.769800110252008
0.750811647887081
0.789080631579318
0.7491466172766
0.772880927622987
0.768601491824666
0.786846467668879
0.764995366662889
0.801174724401975
0.770523796118226
0.819028245618821
0.737025340165115
0.783380506445554
0.817998066940049
0.844302956927841
0.7866789711483
0.826232562469016
0.796169215791835
0.850192923401474
0.870648754265191
0.858635820100831
0.884577364303598
0.90354685632328
0.868251673285917
0.85057425308964
0.89179535977597
0.912315239867966
0.897142081630571
0.90800591002578
0.891810204275745
0.994763237978512
0.910295623402292
0.974954131976686
0.955824252358686
0.91700319363656
0.968792597447193
0.923445138721302
0.956017995126296
0.990726530154986
0.947316579415002
1.00391253229494
0.985149863923446
1.1289095518011
0.92618445556425
0.988580297451358
1.02080563077866
0.991853289762181
0.977059679394296
1.08055431001574
0.935459115608364
1.08491692783947
0.966339519928969
1.10290161493927
1.01419801663641
1.07603020737579
1.02949129752617
1.04946819068594
1.04527564398426
1.09557061079707
0.989033164590735
1.07383895367761
1.08229865891621
1.00513556753145
0.934435988332342
1.05268700494343
1.0885520604421
1.06910665736387
0.970199287709446
1.13127470501395
1.07451746596721
1.27245857636673
1.04112594033138
1.03916136425013
1.01523762508524
1.08929083300299
1.01462963062956
1.05086353324951
1.03836024295933
1.07586251584991
1.07366082617887
1.19522063980596
1.06456329359227
1.11578885616963
1.0553631641123
1.32308943064343
1.03405932297956
1.13131913082124
1.20851063693446
1.21394637602566
1.0679982563807
1.13746956038572
0.992390855285065
1.28497541725867
1.05172713195718
1.38549659825281
1.07910142184424
1.01747042385684
1.20260651582334
1.26458751475606
1.08938327954933
1.32911734730207
1.13246631647212
1.22964348900642
1.1824692867154
2.05711576546506
1.32734500860678
5
1.16159536181338
1.69509009532499
1.20753889296273
1.52979911872996
1.09175412035847
1.36857818884814
1.22198570144623
1.85499148531062
1.14441105480031
1.68233373562625
1.27576957446277
1.38720811822214
1.14665972722516
1.56306420892402
1.12312494291305
1.3199703654227
1.39429965890729
1.22358387961978
1.56681141961161
1.83248533162095
1.32724792309148
1.25213110143974
1.06213171104313
1.38126033697649
1.12842572966184
1.78916980442467
1.09928363531043
1.47150416418764
0.986435096879954
5
1.19526368352382
1.39283722264036
1.50862191703968
5
1.44144471623437
5
1.22802942816757
1.19253140912649
0.82199418270996
2.006776246784
1.12203039593704
5
2.03471065049258
1.33292831442047
5
1.40733037366806
1.13347767028746
1.02518220953818
5
5
1.25834118946102
5
1.1637260803312
5
1.4245450493305
1.47420455783798
1.46001993071409
5
1.48722592482457
5
1.05087361850196
5
1.68218589150386
1.25735514939022
1.39219911486147
5
1.53661212087734
0.764819232785618
0.75335660954106
5
