3596
4000.36533379555
650.420452594757
1
2
2
0.0315587789536225
0.017600158727651
0.0216613248805651
0.0203599563951549
0.0171807289380944
0.0217414157166921
0.0246199107233034
0.014003090299061
0.0251401711150373
0.0195285941227868
0.022907473383894
0.0190365126575768
0.0199351126698404
0.00998445157824842
0.0267499149185797
0.0146568982794226
0.0272012335474788
0.0185818782094201
0.0246672119565151
0.0109536539567957
0.024039259144196
0.0204213107862335
0.0181135056121925
0.0180639695394745
0.0252775893972583
0.0166222122038667
0.0261616205115852
0.0172155641841263
0.0218574828465636
0.0208416705199008
0.0200858569260183
0.0114605464992011
0.0207505910964315
0.0209571445032857
0.0233784894668256
0.0198021330348229
0.0208244164802377
0.0161027580166526
0.0207549854766303
0.0173262307790715
0.0250328241138693
0.0128304262802331
0.0270698533559353
0.0187879138972357
0.0229703876512616
0.0210745969479326
0.0220234330569797
0.0171727642523438
0.0284899839554014
0.0181796341065686
0.0220432028365824
0.0169499652479527
0.0248218566912228
0.0256789440274326
0.0205333194732664
0.0184478389648866
0.0275301082510722
0.0151274452391862
0.018391210826635
0.0137292758522113
0.0280072107882657
0.0235723486872236
0.0215778580184476
0.0204262077841029
0.0179776309839236
0.0196489531759385
0.0183338635832254
0.0197163150973923
0.0200997377904003
0.013511923301546
0.0193860461014545
0.0152717533641941
0.0262232186724537
0.0202376582248355
0.0234556154793477
0.0188514344013274
0.0210873518762567
0.0164172225361984
0.0177065121058895
0.010403572274119
0.0239707338686055
0.0156529589808162
0.0216964552977575
0.0152270350420867
0.0234889168105464
0.0214985715877144
0.018478754275805
0.0173614805878188
0.0267319900999736
0.0232663184584735
0.0275236155405008
0.0184059773499703
0.0161108785119719
0.01523511809066
0.0249268918937329
0.0132308815525858
0.0160283326342106
0.0147213388584917
0.0235057394187299
0.011821546024949
0.0342001634252893
0.00638627728444981
0.0360877854498133
0.0127231518029768
0.0273776977322636
0.0224103466166394
0.0118788606501756
0.0215134004622528
0.0129048690178152
0.0226349296906771
0.0210584189052717
0.0262506953832287
0.0162672306949104
0.0199537483654442
0.0241756228038114
0.00937412276823982
0.027975815099219
0.0199427565085374
0.0201760018528552
0.0163108959667934
0.024490613915075
0.0132622021698032
0.0250720596177759
0.0169284240418979
0.0229345361606973
0.0107928918991627
0.0255561974593986
0.0157031934098204
0.0220724824411642
0.016507307427061
0.0291779535541156
0.0136597051858871
0.0203458608109801
0.0108196395256116
0.0312588597979223
0.00816131349695018
0.0220144217946716
0.011023515876198
0.011885694213867
0.0228555971145721
0.0220063619065245
0.0126809345647101
0.0180698139921261
0.0084340487558793
0.0320930891926424
0.0176609029720032
0.0227694678699931
0.0159027213941192
0.0235514400819375
0.0107551778954791
0.0201058831143119
0.00651953014846799
0.0139936759395655
0.0178743656175912
0.0244037754783008
-0.000578564271322314
0.0367387917553301
-0.0132673619839838
0.0360113654346388
0.00968340705824767
0.0252876655138038
0.0084096281564541
0.0166728324808882
0.0125451977305371
0.0203983288808443
0.0186305897736298
0.0153201810198122
0.0207800161322613
0.0270509849988109
0.0192096082936423
0.0240649968245987
0.0196121076573617
0.0140802371292026
0.0146396483199759
0.020131631870021
0.00900605634260008
0.0245677780793436
0.0096245249023936
0.0239500003607612
0.0131018553714638
0.0335404332650394
0.0127225765227969
0.0230332587324739
0.00976650918266623
0.0242404278830412
0.0118475638047649
0.0174701644494879
0.00983334068272954
0.025950672932361
0.00944625448634612
0.024431553377896
0.017923828815235
0.0302072474344744
0.00819679896642228
0.025881999690645
0.00438951548600981
0.0235867208216417
0.0199680623402394
0.0203114908584801
0.0168484834404241
0.0211632762099716
0.0154505297197682
0.0181958280404843
0.0116545479920228
0.0271994157374842
0.00897439661648647
0.0294549884995766
0.0102184102528768
0.0228811834477298
0.0159649178434222
0.0251708856953725
0.00602877124637673
0.0273153140825754
0.0267742909862037
0.0153788217411065
0.0139274464561215
0.0143112326917475
0.0160825609387089
0.0196338630940385
0.0194819120895827
0.0240339068072966
0.0147960747294278
0.0242730090268685
0.0104738337527341
0.017316417690237
0.0189082093070474
0.0220544847059291
0.0131045837934717
0.020469966888493
0.0176466664460095
0.0224187397658565
0.0134903158944582
0.0195252803059415
0.0164754625820877
0.0153961551461694
0.013869895152637
0.0295906676046999
0.0124177179472753
0.0213839841793938
0.0122295289481646
0.026145507322039
0.0131523075444301
0.0177954768423085
0.015687654453549
0.030113897834362
0.00106420944216446
0.0274395896972017
0.010030175819305
0.0193166601975502
0.0154901232331169
0.030547002698232
0.0171665220113258
0.0189044488551293
0.0153894546055904
0.0186189238613368
0.0144494648720247
0.0204491515082426
0.0261356189665344
0.0211665680812403
0.0170218269090332
0.0177420339709431
0.0173386287336282
0.0184336897788513
0.0264869256651982
0.00728305539490237
0.02445535720442
0.0251819412414027
0.0163992009228866
0.0300188773183929
0.0126879031357025
0.0141651179433946
0.0197755414960284
0.00960035468914074
0.0283578883420057
0.0311062045913935
0.0120542174104612
0.020460010108063
0.0199873432387498
0.016714773884971
0.0164590487602448
0.0309262937697012
0.0179181925451999
0.0318072470676449
0.0129671981419778
0.035425448559529
0.00872505091804529
0.0313767546447169
0.0225831600842427
0.0164943459501227
0.0112184647669279
0.0193460355978921
0.0159481045853429
0.024903825897419
0.0290095121519601
0.0213493514825196
0.0246292860875966
0.0179800683023428
0.025242741591358
0.0223261298217001
0.0218237526927501
0.0230920321529349
0.0232495479598918
0.0153113912990537
0.0257694439409786
0.0235971599725104
0.0176092314499478
0.0231026854574572
0.016235155167252
0.0350841861757965
0.0273166758947978
0.0181522096441214
0.0330925203148156
0.0247674847875118
0.0257915218326353
0.0273617205991982
0.0262057296269139
0.0245193957108287
0.0227572631960284
0.0222207559003852
0.0302994784535681
0.0310441296409435
0.0263349189775728
0.0285430157451235
0.0201819487231626
0.0287952246320657
0.0269877030568356
0.0275127208733945
0.0254580251453548
0.0310927628858584
0.0247509693980388
0.0229706886853894
0.0320542770404552
0.0218964693810308
0.0242981735756337
0.0346695335155095
0.0236051958095309
0.0366453395354069
0.0207479695766113
0.03574779868101
0.0290699063514321
0.0363841297384827
0.0282673870097186
0.0295420603961471
0.0281768979749117
0.0384433957188068
0.0291738854751964
0.0374919235116318
0.0254056120464817
0.0500757775679903
0.0301287604482039
0.0404031451211164
0.0260068781689027
0.0346475220516154
0.04993090588879
0.0385989623620055
0.0492939464907029
0.0396562121337358
0.049516418184443
0.0429142874705652
0.0438584560431317
0.0399128323522349
0.0479768977310941
0.0521073021131978
0.0503180911643967
0.0505895071784648
0.0487593786879267
0.0506136650500737
0.044343948549693
0.0590050896523853
0.0486659889608248
0.0564603251736432
0.058397632266399
0.0499751463754145
0.0617081522691726
0.0674768572273934
0.0499461583447739
0.0702214369064738
0.0580624186882532
0.0760847520431895
0.0544864869450668
0.0701495677436079
0.0597595969126336
0.0768328930531513
0.0711957789458388
0.076583149943138
0.0663594995966312
0.0807928710669809
0.0747951820608077
0.0899968827327669
0.0750303595650818
0.0883302717964566
0.0800604748235216
0.0885542516843371
0.082107428646391
0.0959199972412446
0.0824295013319063
0.100725017426895
0.102386266945145
0.103570284695628
0.0984552759815166
0.101713214654212
0.101653428346604
0.104264139180261
0.102437775277013
0.1076256337168
0.114412641520448
0.106915014580659
0.112381494778537
0.119953152905834
0.108693270373355
0.133062528641784
0.116697262537658
0.127735745432567
0.125567433234066
0.126262155164159
0.125060375778795
0.132583268676675
0.125190590806545
0.133998136605014
0.141004280898875
0.13562401355775
0.144098993786521
0.143864896142586
0.140852234259544
0.144482932241811
0.150732187128334
0.151226231838044
0.152010733452018
0.167748815111607
0.162595221468883
0.161453561470153
0.169564380486431
0.179895703833903
0.164733910869113
0.17459022955881
0.171751131249822
0.185911344668854
0.174232045483983
0.183716492135973
0.186040765761617
0.201089866415259
0.190939610678436
0.201549439161595
0.206750728795631
0.200957814827272
0.199521792963651
0.198658692864745
0.205407121532897
0.213105851496879
0.215796242640388
0.223205009544175
0.221845348731335
0.216244235102973
0.216306143856075
0.231709192046591
0.235242771935064
0.235350263841533
0.229858878495271
0.245646034656617
0.243066419239069
0.259000054784825
0.253231961640168
0.267330522018335
0.265508980901174
0.258304910052779
0.258189070453876
0.259145374533001
0.272481835229347
0.276475149176928
0.274350629744885
0.281930548054198
0.282757167731316
0.290692578151795
0.280525711367956
0.290040520419579
0.297622654132677
0.307983829844954
0.299259955968476
0.31280129707762
0.300465794822373
0.31227818520705
0.3059696569809
0.328455552561417
0.331127753125825
0.32905992962185
0.322489170297803
0.338258485833005
0.332190220052375
0.341650490731911
0.331120053618525
0.350448889109497
0.350525222619731
0.359214956594895
0.364115643632931
0.368064069685674
0.368593561090566
0.380472307530651
0.37270252576023
0.389763225161144
0.382968770723416
0.389850938954634
0.388924912478396
0.401384916923607
0.395337301657908
0.40830381564367
0.405462043307669
0.421678243830232
0.408025335273539
0.426763803557406
0.418895098146654
0.439535037948913
0.444176037198474
0.450751518785831
0.444147347189972
0.455045652969617
0.445657832115946
0.456388002731078
0.47016364289213
0.466672525350758
0.43781889001373
0.469936458349011
0.470129721854047
0.47484740033986
0.480735251359739
0.515583678999468
0.502868423180369
0.501839423938905
0.48131149573345
0.490997765952517
0.495115240768755
0.520500469711624
0.509624891663999
0.518429914072778
0.528477548635897
0.525295350496826
0.515592881834535
0.558980479237133
0.525971245512142
0.522752532377891
0.543436450233179
0.577370924810654
0.562139668041213
0.572070991754696
0.557253572074887
0.566270936876019
0.561274604748878
0.565791739339196
0.584135525104615
0.607857844265041
0.587685957638037
0.572112783085943
0.581795103014901
0.631971694774362
0.606311507939909
0.618523251767221
0.627459157917356
0.617506402635934
0.619628210244892
0.642051400325966
0.634200192507437
0.674555544779401
0.668604473050266
0.668668886878268
0.630057205830787
0.644622755881003
0.66076719068955
0.676723897267592
0.656400141338781
0.657076980964978
0.659543007568859
0.673550730001198
0.681806458016906
0.711086678380735
0.681386845322095
0.728073154047272
0.749261917197789
0.730919377151763
0.714995889350701
0.723572538341935
0.714462868798374
0.712306187293382
0.680620186864726
0.729937805037802
0.731650266190868
0.740923251670606
0.74217181216442
0.772833403845989
0.742210665953826
0.743534891636825
0.765456381672434
0.803276863495941
0.788508222787793
0.777449825541247
0.756292916251277
0.804030082680079
0.814482703613633
0.802069762949352
0.777251545255029
0.806944505131994
0.78041751593226
0.787716956132034
0.779090195156572
0.82011502155917
0.795199044969483
0.842188381731646
0.842989057358535
0.83722077544346
0.832287468245934
0.829134581040798
0.816948558304086
0.844210396390041
0.84843713261451
0.862173829734864
0.854842237024058
0.874220817403544
0.875575081065271
0.879502493639886
0.870599734652296
0.922079339874281
0.885812140292
0.892445634654057
0.87757215061853
0.910740848161572
0.88345942800855
0.872233769453849
0.873609118825389
0.906066179103688
0.927119827786908
0.930146931116632
0.899484911017772
0.956472228866803
0.92597440556518
0.950302997948647
0.907323635974345
0.964290633807663
0.968577836968651
0.975922163113848
0.951658200354212
0.974656782461562
0.934440653929499
0.890863066715127
0.943830532388752
0.954479220941492
0.913913189103516
0.979482660499676
0.97376986702704
0.973777233171923
0.981420719548557
1.03875384207806
0.976561238960949
0.988059649485842
0.988159792383887
1.00540204081013
0.964201101647015
1.0039475758728
0.997764383837749
1.02672679514649
0.996584269070067
1.02145360066402
0.972491555868445
0.984079194084264
1.02144846397946
1.0101793519018
0.982057955210822
1.04276129982113
1.03619551983038
1.07822192696944
1.02925686375032
1.042522998708
1.03466812424136
1.0218976441328
0.992713011737772
1.01332394544333
1.00148144981057
1.0579373387455
1.05785464427859
1.02322894227443
1.06767588410918
1.07895373489497
1.02475290464371
1.03219191847253
1.04210379728364
1.07401502751791
1.03106112040782
1.09050199604471
1.06315088214036
1.08504562701728
1.08736248740768
1.07631207263878
1.11204294901143
1.11082817032254
1.05343037753307
1.10744306324336
1.04562573342414
1.06082070738786
1.04853219515962
1.09230600454309
1.12368394452958
1.10282705678774
1.03448634522486
1.07268261302121
1.14175252690168
1.10673929073751
1.05593412444019
1.08937498037388
1.10019911809192
1.08307820388647
1.03723248999872
1.09255252370916
1.07293950969107
1.13564229176108
1.10117559848802
1.10524835405259
1.09025303139091
1.14843545095583
1.13769054612039
1.10471012985548
1.0547021815354
1.1141533989085
1.07541282673474
1.0899404380545
1.06805997613992
1.09636259462704
1.11601198811356
1.1454483874168
1.10879134140783
1.13025237614764
1.08355732682109
1.12205395261208
1.10186880866414
1.10751065314948
1.15723665035438
1.10382206397851
1.04905909498552
1.1174602372535
1.1639304959446
1.09515465678907
1.05427520380171
1.07577757267038
1.04344604789562
1.09344472449343
1.11073282616239
1.11134964687201
1.0667312707618
1.07412773910805
1.04709780901527
1.10913541125954
1.07455210392781
1.10188584741294
1.10300129069716
1.08160554689791
1.08688307567449
1.11303349665186
1.07817666657165
1.11163819644482
1.08818043292604
1.09357318446178
1.06829117037223
1.09346159139415
1.11877619327071
1.10147330349304
1.0970168918578
1.11042666843397
1.10972445295145
1.13223791563812
1.09743631905006
1.10465075041798
1.03960057739482
1.06482812333773
1.12538335551781
1.11863563655615
1.10679227739118
1.12822355343531
1.07820284133095
1.09184674282833
1.08957953004931
1.05901694862453
1.03836919789541
1.12306091675738
1.06989614028389
1.0581895983289
1.06876339117171
1.06360762866653
1.05509504577318
1.0683183876983
1.0381377144634
1.07874611368001
1.0768572756453
1.07143398003709
1.04481640505448
1.02874503595849
1.01893271143918
1.05408287473436
1.07701969658218
1.10315835962306
1.06103325959973
1.056369054419
0.998460581262967
1.06582123700623
1.06661020050046
1.05002760371765
1.05266112946724
1.05355309432426
1.04043865067131
1.04934868006042
1.04662121742953
1.02592285366198
0.999437808006854
1.05877271550247
1.05439807491793
1.05218587906386
1.00563844969906
1.01623988307378
1.04671866384857
1.05392324499695
1.01415453928328
1.04605066529076
1.02323790244151
1.0452896973037
0.991626152446942
0.972354167030858
0.992443687842399
1.01069506888462
0.9910703947145
1.01675722718131
0.994937350043342
0.98104266978197
0.956059824185995
0.963542250141817
1.0035772993464
0.985297556691064
0.980719361909862
1.01524566783612
0.971909537226044
0.991037498270455
0.959253348832845
0.94717190802626
0.954786409766211
0.959536856272836
0.939541207971923
0.937123217554944
0.932883518825389
0.97681450590882
0.945082822976826
0.932247755372028
0.951685468832401
0.946157228098559
0.93862329096902
0.950477275936912
0.924146708113353
0.951617095469775
0.911894950015235
0.921060003747159
0.910752633528301
0.906943013070675
0.914742779248214
0.918198173560938
0.884198278559083
0.90068180803016
0.904606858552117
0.908252303816496
0.881066378701403
0.881307385605666
0.86311487726587
0.882961027569772
0.854782348153296
0.87092622044006
0.89048098696535
0.885921916947406
0.846464013545659
0.854710453533744
0.850469136725157
0.871350706012147
0.850760384506529
0.859826879604789
0.829717865799995
0.843060526201396
0.846032553003144
0.828197003591558
0.821934221392085
0.82091812011161
0.799875043265082
0.825681732502216
0.798793597546061
0.816379826103374
0.802627521143414
0.796737320590444
0.782790666393067
0.801084084139461
0.787118879193602
0.782993690039064
0.777199000958131
0.785594596229444
0.787642014830301
0.785660813067356
0.760092707975611
0.764183230102896
0.746042384050538
0.764403508598656
0.76617707582726
0.754077140426424
0.735475133944136
0.733176030828848
0.728437920130048
0.727200452620631
0.730463353145708
0.720390943725454
0.718841286379353
0.723320345359374
0.708100720577539
0.715353577702056
0.698328877282463
0.701993616928312
0.708334040007937
0.723225721845305
0.70659223062796
0.694150705926134
0.681937720609617
0.685533121112962
0.675946834799988
0.673403250201146
0.652799531993671
0.670527929450416
0.68370823299598
0.654541564875884
0.654111601279196
0.66713467673955
0.65034407245191
0.64471724183832
0.648438412845845
0.642695641007909
0.621723120796289
0.632604205777839
0.624192778336005
0.630102376028818
0.620140739592049
0.628955933666495
0.620863435202062
0.617769724922856
0.603395375389539
0.6063538770243
0.600165735206175
0.595783718675349
0.58793600062149
0.59550311414865
0.595110245416059
0.580168971599988
0.578363894477704
0.579265507937672
0.569269791901655
0.587133958669377
0.574522433962134
0.57697933773293
0.558371418820632
0.566854816599643
0.5583396078328
0.557543614178525
0.55163375043062
0.555165156462387
0.549224993650336
0.546228838761941
0.53368229983241
0.552127159039974
0.534446068212671
0.531089682750001
0.520645219749736
0.519817489585513
0.517536502382434
0.513093441049585
0.514591220970957
0.515992801719356
0.50518056976777
0.505059721593991
0.489071171228017
0.505705159542165
0.504082853844125
0.500588267471803
0.487556015826032
0.496487510367498
0.478547178594398
0.483804630298761
0.4722679360918
0.476776068955892
0.477523339927798
0.475015192526786
0.471381273411517
0.477965386057478
0.4646243640059
0.471101015011909
0.462883185044591
0.461016079990336
0.457857195987724
0.450195517732618
0.443433424100103
0.44974617336722
0.44240005704821
0.45285103505848
0.444812761367843
0.435156239628249
0.430002737670344
0.438819092900504
0.429137753391679
0.42973125582135
0.420726591342422
0.422529834224661
0.419189217646209
0.415363376037133
0.409692174847634
0.406570187638812
0.401111155695536
0.410075248472298
0.406168084779924
0.400501484642973
0.396881991441548
0.39813739571711
0.390902518979502
0.40011150184881
0.387538867659969
0.392175125763778
0.378049247409101
0.375517288136647
0.37570892101789
0.379040646730911
0.372253537867437
0.374193446267468
0.367422387687251
0.370328277308895
0.369835872372092
0.367511526617819
0.357382405760112
0.359843669718975
0.355397092392132
0.362111245819144
0.352773501786495
0.353780164446032
0.345305059530975
0.343315324765826
0.343649228874014
0.346210353059476
0.340914546225325
0.341736496559133
0.330858569038571
0.339443018249829
0.331467791065695
0.333421186396549
0.32927901128825
0.326429565553527
0.325850610830146
0.327819023799767
0.322106008588728
0.319119902304932
0.318928630446056
0.316302037234022
0.311460909966618
0.30475785085562
0.311649465044519
0.313540661269765
0.303739322967704
0.306792330362538
0.301988327442648
0.302628634475262
0.297522939910104
0.303638071439582
0.298002563681066
0.299766750241244
0.29698431182895
0.293796880367239
0.296955010918081
0.297255639881935
0.29343692103359
0.294999041051837
0.288476650504864
0.290809335803452
0.285509835445958
0.286953571856773
0.284914212760951
0.291617604795194
0.285072039351926
0.289572691490256
0.283981743864639
0.284922887624914
0.286798679844748
0.286843435490435
0.286232859908714
0.289406957800011
0.289270021819955
0.290738259144154
0.286974925070091
0.293282047070697
0.290064697946217
0.293210097085269
0.290061881032651
0.288588763996331
0.291620956713364
0.297070130460567
0.292818598021362
0.29906161861934
0.293086186189786
0.296849173620785
0.298656789286648
0.306180930258677
0.304919755338082
0.308811539075768
0.303754193780083
0.309170797525511
0.310442546951034
0.310900914302003
0.311277154959676
0.31643362940424
0.314953142088039
0.318793940244436
0.315975514265061
0.322217708825831
0.322428558856995
0.326222076899927
0.323289330133627
0.330379405269317
0.327705809387639
0.334704733101545
0.335700349245209
0.339331875632446
0.339018840059764
0.340874037207747
0.337795908162512
0.349021597478263
0.352338054985635
0.359225231053595
0.352795622181298
0.356242232480028
0.353537024413616
0.363148878321643
0.360535705818917
0.37350677913279
0.370392192130911
0.374909649994022
0.374639839223179
0.384345607633623
0.387052110082146
0.380587160665258
0.382517069065271
0.390526642742922
0.392487183143201
0.395882229527298
0.397372147243393
0.400532048529636
0.398362829899702
0.411572313790816
0.406263753119451
0.410410955565722
0.406201317433465
0.405060147905957
0.409321280028929
0.414268070179161
0.411165103544516
0.413343298072428
0.402585479387859
0.406753231494113
0.411349978060732
0.407497992548207
0.411907834301535
0.41220151877787
0.402390136356834
0.406494119278724
0.401991417100101
0.40645003990142
0.4002732075685
0.403177061912632
0.401159579510652
0.403655786641136
0.404190561936964
0.400104707853967
0.403282384557058
0.408638153842879
0.399829432852519
0.406544660136386
0.406569923445128
0.402264640459749
0.395671661832213
0.40688345464379
0.407149317251071
0.397712014629097
0.403799902653403
0.41193906155892
0.396400812110982
0.407550717242184
0.405666931229664
0.410795127882457
0.406564246710157
0.404922378846363
0.405217128512977
0.407626781555902
0.40769113746876
0.407107650783232
0.409050188812984
0.407748447731012
0.405754010115425
0.409201780516236
0.401434163100605
0.400821622787718
0.392685638846219
0.407769013132372
0.399929921033843
0.399267445659832
0.399694483940289
0.399997029046836
0.394175803764052
0.393732443278327
0.386853447429422
0.387106643567555
0.389171606330765
0.389183320059254
0.377438912590132
0.382139350345315
0.387629973408843
0.372099394762119
0.370814983030181
0.377573106940336
0.365895083821708
0.371467818170608
0.365265623023227
0.355308906501798
0.354309522303599
0.356517336178366
0.348746922051882
0.354548438265175
0.341058884709394
0.343117976612121
0.338977371801211
0.338285744457102
0.33659254247896
0.335198564048686
0.32635670975856
0.329929348743793
0.320506538918568
0.3179773912784
0.318536953019839
0.311345039115002
0.307178083622063
0.309586246332016
0.301647160060882
0.303079165718175
0.294907117223703
0.294975704314969
0.291404367128895
0.292296225131688
0.285442815956499
0.284971557505976
0.282888672523308
0.279221763722744
0.277828495889618
0.279924739541714
0.276082482537435
0.271632103093036
0.270095833333429
0.274558597889203
0.266532780560687
0.266847748010657
0.265663098253265
0.267001062385026
0.265624288269858
0.263522077233351
0.255569870182449
0.259720851999746
0.257540726624394
0.259009261147539
0.253701304481005
0.250818499438868
0.249201391614692
0.250723032184169
0.245721411880957
0.248329163793047
0.247078507722872
0.245478919311033
0.242892802582881
0.242743255735528
0.24133283670784
0.241644843394604
0.238233953700352
0.241025644837432
0.231933906957139
0.231132251803282
0.227963265445707
0.231293264360912
0.230262128114896
0.229638874731876
0.228845358447382
0.226708187229329
0.224155269212986
0.225728765405828
0.221492165072577
0.22319260148129
0.220860621129691
0.223193448563089
0.221706585463445
0.220744751427451
0.218357709558632
0.222615919255297
0.217395921739418
0.217238421041472
0.214601295119121
0.217641403744631
0.21151913714502
0.210365523334399
0.208886123640531
0.212151388731504
0.211254122212421
0.210353002233841
0.205945128003824
0.205995467622748
0.207070429041008
0.210305050280984
0.20512353387476
0.203764639591928
0.201475528596476
0.202193096778392
0.197968817935727
0.203680732053149
0.204406538625896
0.200878012668413
0.197542633157992
0.201629830597337
0.197962247655174
0.198844057617436
0.198428512623075
0.195740613391272
0.192734062129201
0.197464206502876
0.191624722357973
0.192842673143552
0.187251420492503
0.192182422438598
0.190033410341725
0.190882186489617
0.192112085466723
0.192550406504654
0.194681922926389
0.192980611373369
0.185673141784911
0.189379812207004
0.185611499487354
0.18726641391207
0.183029611144928
0.183334214418442
0.183991231000998
0.18540879926669
0.183173510390996
0.184208239630713
0.184943610974968
0.182917467959445
0.181754859382123
0.182638258118142
0.180453007236082
0.183068487605291
0.179523927553188
0.181093343640567
0.177939704285948
0.178220320670667
0.182628644961097
0.180045590952116
0.176078995627451
0.183636198501453
0.178265959279257
0.179543380479485
0.179631527202948
0.174715379290018
0.175051442383581
0.176115619048756
0.176214450656486
0.176744150591734
0.175952973488293
0.180720408725424
0.175016937740176
0.175237612979947
0.172246834270199
0.175427817690999
0.176640540868673
0.174542689947853
0.167234774371439
0.170590347645635
0.176037782209397
0.172156549719049
0.17081203360166
0.171816408715888
0.166639965573785
0.169614882750323
0.168830575555735
0.170220496784825
0.170499977941762
0.169149711771727
0.165692757911801
0.168037304237516
0.16628156408434
0.168489653935432
0.164914436250626
0.164134972474961
0.165527317513072
0.162786042440883
0.162133048084713
0.163008662993179
0.157570951154998
0.162325619142329
0.159708376847675
0.15847532930288
0.159942444259741
0.161445426203728
0.158499236121179
0.160233346330275
0.156017035557925
0.158999638786287
0.157376589922706
0.15654742320614
0.156632294488051
0.153010448201887
0.153836306283385
0.153132694506624
0.149158243821625
0.152356464712797
0.152225864297756
0.154184180029952
0.151731925560689
0.151334649833677
0.148052573567663
0.149612307691432
0.148445460061308
0.15258236574019
0.147545638475323
0.149489679549018
0.14870274760195
0.148655562274187
0.145760646499651
0.147076327249334
0.14094309904009
0.142207115025465
0.141434080274757
0.139303140251134
0.140992172094244
0.141781434649576
0.138792835524792
0.139669193311978
0.135719441101693
0.139650797970137
0.13749696927795
0.134067082438105
0.131548543359949
0.136117763971381
0.136971374995024
0.134218746281502
0.132284840447399
0.133051760311109
0.129394038588367
0.130834329250341
0.130588582639701
0.131277039112998
0.128768484619695
0.130330833690239
0.127816828944945
0.127172968118375
0.123340681026995
0.1288869158641
0.125289304649278
0.122095315648914
0.123437392270225
0.128506662675844
0.123000742774954
0.121773752518912
0.124465720393525
0.121131479610623
0.121574405524456
0.120797040969439
0.117258829534847
0.12034325766819
0.116548321835451
0.117140740709334
0.116246701273342
0.119123530446675
0.117232706456162
0.115341813069533
0.113943600767936
0.112258767530419
0.114747275843551
0.115228983257712
0.112721059356292
0.111827547774488
0.109130925455701
0.109636487943554
0.107651317798248
0.111847061567721
0.112467115617492
0.110591182652865
0.110877384080825
0.110404647626804
0.106865526771965
0.10832085630251
0.104323530057648
0.103516582546545
0.105539566928805
0.108882154064125
0.105197729677342
0.104872998987586
0.105968036042372
0.106015454895224
0.101252236695353
0.102645336247714
0.10095720168323
0.101626291845938
0.10375857598743
0.104371675026379
0.101919658870608
0.102255980010496
0.101455194815218
0.101399952695459
0.0979728682757003
0.0995490783870958
0.0993110559897482
0.0980141969480066
0.0979862415114091
0.100580792680659
0.100412853566221
0.0988406230177512
0.0969181968464532
0.0938627109058768
0.0970214149485502
0.097968891578924
0.0973030671096402
0.0962548436831952
0.0936852773679602
0.0949366320293972
0.0942507402723148
0.0959009350859189
0.0952392423548503
0.0957289323844856
0.0956864669234598
0.0952234287055642
0.0947825525422018
0.0930842836773135
0.093016022853929
0.0942402095515209
0.0919591670869837
0.0942009928303233
0.0920159577151279
0.0906688269896514
0.0888545497462903
0.0923011993205762
0.090754281980309
0.0901515346100803
0.0917577556434179
0.0915810813795016
0.0878273387531815
0.0888491491344061
0.0888549379274131
0.0870907392577184
0.089140129822862
0.0888195695633633
0.0874526189661358
0.0924007517819914
0.086709774313778
0.0878586161046205
0.0872658700722868
0.0877223288429097
0.0893216882146927
0.0870012676141678
0.0873441149062892
0.08757357337583
0.0862582653432195
0.088266345704615
0.0858762292305947
0.0852820013628787
0.0830163963982525
0.0867870787778174
0.0856235506654872
0.0867185974409631
0.0851351592640357
0.0853543073481422
0.0860606442097523
0.0842006699044583
0.0825037256856215
0.0833089876908613
0.083707591924191
0.0849714349345597
0.0833877866270555
0.0829764360941697
0.0819117851761591
0.0807815500375716
0.082963650459621
0.0816361041657875
0.0815502952671776
0.0821464101015583
0.0803479265487313
0.0815315149945238
0.079950269660469
0.0821204380904103
0.0791150951657437
0.0802061133540407
0.0784526563199321
0.0785841696424033
0.080693926188266
0.0798695525746604
0.0784072506950892
0.078622868112919
0.0778772127129815
0.079637984115007
0.0781558596305781
0.0786488869916939
0.0767240189739433
0.0776211101920118
0.0747062720379787
0.0761802841512872
0.0778022572818835
0.0793152537640756
0.0788534138223753
0.0763415339849944
0.0747461320535891
0.0752038035744293
0.0778304770441399
0.0766787249819246
0.074698877135449
0.0788669736457453
0.0746464724766384
0.0718969166765733
0.0717159253004646
0.0740458054807573
0.0737914608145119
0.0721649886754132
0.0696619634452824
0.0730991555501556
0.0717337352730706
0.0721763798383993
0.0728235092296773
0.0723140499336279
0.0722059367786188
0.0716586019888045
0.0722242920954293
0.0714279143796726
0.070499271342634
0.0702031048627228
0.0702853886872389
0.0710875665832398
0.0690430303828186
0.0694065287957953
0.067433314429221
0.0660928260595815
0.0664877683556502
0.0695067979807149
0.0681559364336025
0.0668490653032082
0.0649035887553288
0.0676788221405031
0.0665708270046602
0.0657262461524454
0.0669157975482141
0.0664623276233379
0.0660047476328966
0.0647673773078522
0.0640868790235463
0.0632904590874409
0.0663944547386767
0.0643403225249446
0.0626422314201928
0.0630454920083869
0.0638408401547157
0.0626416495459294
0.0628838810972317
0.0629567117115879
0.0610800203970559
0.0621672323343829
0.0625098344057144
0.0582205215451198
0.05825351321182
0.060949848160702
0.0613041192768075
0.06075809732654
0.0605236735748981
0.058063727502904
0.0583372955067199
0.0587715632361848
0.0584593249267751
0.0581079154434535
0.0572622639292527
0.0584255494560808
0.0588306579887665
0.0577851958180508
0.0572197152195903
0.057186968153252
0.0569606595821529
0.0559658615230595
0.0564243021108138
0.0562246442875097
0.055819163100154
0.0570923344989615
0.0548679077954838
0.0534013958191563
0.0544724865752707
0.0567525058882321
0.0567687682007916
0.0537085337641164
0.0515935749232111
0.0541936345922663
0.0518886311499957
0.0513059043312107
0.0544007932771584
0.0527871712245299
0.0519450944293975
0.0513602456884901
0.0545332901313438
0.0533348429480711
0.0511042162841616
0.0505321920004198
0.0515388460819516
0.0520908636596298
0.0504524214117706
0.0502178340575329
0.051235875878708
0.0496895999122721
0.0493363100341726
0.050435245398563
0.0520155989093603
0.0479141828426321
0.0464540574777935
0.0463715696406971
0.0487564276942218
0.0498954842993661
0.0475636690949247
0.0469109287857123
0.0488246331234444
0.0482066813742511
0.051734249223844
0.0484180608195341
0.047574577862368
0.0483316545474452
0.0479052373833825
0.0471758237899727
0.0486774546234031
0.0477844739695274
0.0465038790422809
0.0462488974523232
0.0465249112420168
0.0469608973877264
0.0481676289063699
0.0470778521794852
0.0459648151197411
0.0451025457285482
0.0490306247776703
0.044484058639776
0.0432773911751681
0.0439534025615951
0.0453748376775858
0.0435419487630083
0.0442815585472817
0.0446276909281256
0.0467957977216061
0.0461944743327568
0.0474043565367241
0.0411059565461203
0.0469961226277996
0.0409668653078326
0.0444758025987072
0.0462454816813187
0.0482911156949165
0.0422949611291304
0.0457059747197941
0.0434813191581073
0.0456053712399137
0.0404135942889334
0.0407267369727314
0.0417666443551986
0.0451848492938896
0.043328480235705
0.0479668593339613
0.0388328500317376
0.0452125408900511
0.0420604991582711
0.0443716385577418
0.0422762246498595
0.0471931228845279
0.0413828046092409
0.0461931991693568
0.0384491176457784
0.0502953417758707
0.0379268168807088
0.0460104322202406
0.0370882657740509
0.0461729336009859
0.0389914424394245
0.0488049573804618
0.0359184089895754
0.0451180548260653
0.0304122706219129
0.0492225183600536
0.033530755352579
0.0521499539967229
0.0314464723070677
0.0497266178422512
0.033855454361919
0.0511560274285109
0.031276318479824
0.0519882093859905
0.030398592735666
0.0464208871382945
0.0338362406387585
0.0511269347083128
0.0357308795454626
0.0462938653680349
0.0373257117409267
0.0441125319913906
0.0439871553045333
0.0385526903595636
0.0454997698654557
0.0342682319707577
0.0498597395628601
0.0318172384983835
0.0507365330954253
0.0300073073642441
0.0485051775477865
0.0336872146980906
0.0463427253452443
0.0379426604572168
0.0454019005983259
0.0384158893965784
0.0414315262203239
0.0404996208787388
0.0404438545594006
0.0389082602078095
0.0421332262006957
0.038913257716035
0.0405508233756218
0.0397536134255638
0.0421906365356557
0.036451653673255
0.0414506433628116
0.0371612679856899
0.0428117429898669
0.0381147165977453
0.0408478469259413
0.0391657604436408
0.038501559390608
0.0378880554928805
0.0413075219565482
0.036556070813289
0.0394696468294821
0.038557525636726
0.0403664695744654
0.0377991886048235
0.0412145832402586
0.0383636262445351
0.041155774698595
0.0393328104792494
0.0406866683243982
0.0394666323712601
0.0430508221987757
0.0410123539765107
0.0395113605822535
0.0389936081185293
0.0421167118689032
0.0369022574461496
0.0402760963260326
0.0400818220718417
0.0388893540707822
0.036228823075931
0.0399898657856471
0.0391751181996243
0.0402520129383156
0.0373280628263064
0.0393228836113435
0.0387061742467438
0.0425682464746418
0.0396507184662977
0.0409293082150034
0.0375315096172555
0.0380257922898337
0.0391419017327876
0.0424889741820045
0.0377358057351251
0.0421392658805633
0.0362584192221339
0.0432123309671851
0.0407721648628635
0.0411759394590873
0.0390983261066182
0.0414775275058925
0.0409451440301627
0.0396971830594824
0.039985476110364
0.0419349550095426
0.0374663651408662
0.0413829403720797
0.040273339136744
0.0416648978056544
0.0407120278561078
0.0429752854988577
0.0402440906039106
0.0425451317306992
0.0406036977485418
0.041656024014292
0.0394255795657612
0.0397090352181663
0.0390855228448503
0.0433713143575842
0.0423962373688862
0.0428839805231779
0.0386092080544415
0.0408390706295522
0.0391114604682036
0.0417268098804643
0.0425107848559107
0.0401580207114388
0.0396069416462987
0.0431008159556222
0.0386449728982288
0.042361155516151
0.042366638299173
0.0428509367005751
0.0422105261583084
0.0411329798640586
0.0418900046131629
0.0447695014963883
0.0404080999048533
0.0405812250722016
0.0412598220637695
0.0416792800488875
0.0415639921663296
0.0426173151595706
0.0416393542562441
0.0432452030337862
0.041303245994395
0.0424365481275174
0.0427604075977992
0.0426245783021182
0.0415345732379772
0.0450160778548044
0.0414652556851943
0.0434167854910923
0.0432811502929752
0.043105293250386
0.0421736488501418
0.0427817401855687
0.0428272885057841
0.0430383849454988
0.0429410998928946
0.0450068820072018
0.0436675175609957
0.0435814692699974
0.0434103830044024
0.0455587648571055
0.0435302056274943
0.0431295221084831
0.041415485441063
0.0432643902160995
0.0440652321208133
0.046029717504825
0.0434741791397134
0.0437657115121476
0.0417256747890836
0.0432197497357862
0.0431430265756071
0.0427926561119846
0.0427769396807621
0.043310563313443
0.0416919840078628
0.0466378464650277
0.0448725501869352
0.0461380420140269
0.0441998148804067
0.043604223564162
0.043899574030378
0.0447422626526239
0.0432370669441374
0.0466137382299921
0.0441456589529335
0.0466992628938169
0.0451735130231033
0.0460738319261319
0.045065512005721
0.0463885660428981
0.04596685634841
0.0468481969904633
0.0459456769712099
0.0450211291614235
0.0441494637313207
0.046196584246051
0.0461946330192023
0.0469247241529351
0.0456093473140066
0.0462417099859671
0.0435844168521751
0.0456293862354511
0.0463925421561777
0.0464230390841733
0.0466476404349595
0.0459049521876475
0.0450084318138167
0.0456122934535309
0.0438661173665284
0.044290918823846
0.043730554826682
0.0465635700391188
0.0431401522345769
0.0443907364146537
0.0446253578524418
0.0454936175492041
0.0430466477003155
0.0449748529462584
0.043440797396748
0.0446460784811863
0.0441745835396487
0.0453207325313524
0.0427942372289176
0.0443690648135057
0.0433231346709728
0.0426094375839149
0.0416980966382107
0.0455473944495484
0.0452807160613931
0.0440004677933359
0.0416791011078919
0.044317806658571
0.0417660840010475
0.0441301607515679
0.0424566442819278
0.0410323544760142
0.0427794052893764
0.0433530629110981
0.042280460095677
0.0443017387947618
0.0414232458877619
0.0429917890314707
0.0454130824480064
0.0440337713581414
0.0422095245488031
0.0444705776212635
0.0416124340909416
0.0409575949327927
0.0410448403486184
0.0415517253578469
0.0418383454711081
0.0434860535537451
0.0416011037812804
0.0420233787046559
0.040697282625402
0.0428401983776974
0.0416259907910422
0.040257741318269
0.0418692722659762
0.0419369827368285
0.0398224409027985
0.0417006629985535
0.0419921776943619
0.0423478837332133
0.0416032535429184
0.0407398273574009
0.0428687837822969
0.0411674213992789
0.0393788543091245
0.0431276567866356
0.0403057580697907
0.0400322829532936
0.0416207859463562
0.041622921909089
0.0400058676531051
0.0420010579612566
0.0396677839049375
0.0410638344513914
0.0403547889903244
0.0420183423756344
0.0403894911245172
0.0417677700331405
0.0410955640734327
0.0394767362103745
0.0380067264369765
0.0393562992962792
0.0392650225995373
0.0399399758919054
0.0390559459329764
0.0412548571047566
0.0391178577949442
0.0413186899265181
0.0412862034535458
0.0394025997093295
0.0391096529005108
0.0405281626588751
0.0404998708048306
0.0426504192836009
0.0412894642440005
0.0406235871013186
0.0404508795317228
0.0388961477267173
0.0373287085014797
0.0409879941223254
0.0401049449514699
0.0386534026673205
0.0377065801368091
0.0396585631877053
0.0376705385877683
0.0403116248662432
0.0392015368137108
0.041313149306586
0.0386369825542577
0.0398519891168971
0.0385828833035904
0.0406102992652761
0.0395469386121824
0.0380740391822256
0.0370719236645445
0.03817354387223
0.0384545159058075
0.0395937079527906
0.036042426307761
0.0388292824093502
0.0362387048800295
0.0378074082817868
0.0376367480986584
0.0391912483866706
0.0367481829627593
0.0370584242896284
0.0371273724781619
0.0379936822346085
0.0363271465169142
0.035404654364312
0.0380325318540089
0.0376458663040879
0.0361952760419174
0.0358971790174325
0.0342642314482995
0.0337924805844684
0.0347997681050953
0.0367111031715864
0.0346989752320497
0.0364311559180984
0.0344817564422249
0.0377960171803029
0.0335362272926137
0.035272460233333
0.0333111761725078
0.0343151503823623
0.0337758720150602
0.0343275621773229
0.0344322035279091
0.0347695010414575
0.0343014209326634
0.0355646407449253
0.0350756909762464
0.0321863006670839
0.0313580576994467
0.0336194546515619
0.035353663741041
0.0328911691696081
0.0306559389223895
0.0334524273024303
0.0352229863003164
0.0349360026694853
0.0311090041804283
0.0331371153867512
0.0308716801096079
0.0337410326264191
0.0311797473856234
0.0342464550751368
0.0332416948361713
0.0326990395544549
0.0309752687234549
0.0324297081606383
0.0320198996623831
0.0326130989686673
0.0325029502229871
0.033140309009909
0.0311206828757601
0.0291413280294119
0.0312630097843707
0.0319044293312125
0.0320957338234396
0.0299168355508203
0.0315071897548516
0.033703085234145
0.031217897477598
0.0340004042387064
0.0324394805771376
0.0314192812264608
0.031500772596559
0.0313827837497693
0.0307992404463045
0.0326514628841502
0.0322518165986354
0.0321618124325593
0.032585202200363
0.0320204813363643
0.0317406736764052
0.0312274924195571
0.0308825599050162
0.0316397014039376
0.0307650401135842
0.0304836938591328
0.0286361350444111
0.0296639097539681
0.0299690699869694
0.0306300554330497
0.0310606911426933
0.0299836754975993
0.0287452502426687
0.029364734920061
0.030761231928325
0.0296210875732125
0.0296671265467157
0.0300035299836701
0.0287617399351781
0.0298404674072547
0.028855017080868
0.028518933966195
0.0299407574532558
0.0281922226153911
0.0279496657519986
0.0321774852107875
0.0285969896632058
0.0303397451389663
0.0286175927858408
0.0288334746899739
0.0278032063818002
0.0298216114860768
0.0284207231002882
0.0279284024890732
0.0274670061730713
0.0286850697974942
0.027068844563423
0.0297828280231867
0.0298238227255795
0.0292365497164993
0.0291838559300949
0.0301397576479057
0.0283222761611152
0.0312003720086683
0.0293682770072223
0.0284465507151669
0.0300676741637648
0.0285917026751758
0.0280769104683775
0.0317993219536076
0.0277191257251795
0.0374507711358884
0.0268134258803228
0.0312808342003425
0.0291804141370809
0.0292129834145937
0.0281114753688058
0.0314889055796871
0.027074321372267
0.0289718766264882
0.029151482468749
0.0270449171712428
0.030148330227685
0.0270632667541996
0.0276016229150947
0.0294101090696427
0.0267341423450481
0.028440980118547
0.0276989261513567
0.0291558922894283
0.0286502434012772
0.0302237269060527
0.0278286153040954
0.029884485554435
0.0257838752754002
0.0296281982533181
0.0286453349510173
0.0297029020590678
0.0295314538256281
0.0306163052049091
0.0279883215030994
0.0293750078132605
0.0297693966760385
0.027699253698314
0.0295087688633186
0.0287748138014865
0.0301381349839168
0.0289326082135171
0.028284965129551
0.02836262277817
0.0285512769984892
0.0273329741611789
0.0283618231448459
0.0288157749999449
0.0294258548986456
0.0282172346287605
0.0295510463292076
0.029605832603657
0.0292089414503446
0.0294878120916993
0.0272103395850844
0.0298077722513737
0.0266867509025359
0.0299593766756444
0.026999009573702
0.0307626124703547
0.0284721853449586
0.0299184443350299
0.0288286062174483
0.0287056452378968
0.0287986014866133
0.0265171827959804
0.0290572152183441
0.0283281293261142
0.0283985216173854
0.0288121415872477
0.0301751725723514
0.0282369278554972
0.0281926213958008
0.0289306869697811
0.0275195376469787
0.0282085359307906
0.0303792145899236
0.0272718679979302
0.0313165003662283
0.0265353470170871
0.0302465328886661
0.0290496318603201
0.0328579606006366
0.0247506362900448
0.0363058782234643
0.030302021608844
0.0287395243420488
0.0307768564494335
0.026010183421185
0.0294340771129248
0.0286153087932523
0.0296127870554545
0.029809559287839
0.0296936488968164
0.0298869972278514
0.0302545093655381
0.0307679235123744
0.0312130650059217
0.0287858229719727
0.031212589199726
0.0325017469908197
0.0302033767221673
0.0324985624124907
0.0324946690058142
0.0315783661670185
0.0365510718280882
0.0293363622922231
0.0331146477465596
0.0320715570646831
0.0337789833110567
0.0309042427933122
0.0303372650694436
0.0302097630952527
0.0335998896872827
0.0328609835843012
0.0329184950100969
0.0309266550600478
0.0323097080914712
0.0315849089159667
0.0317615906329152
0.0305285240709291
0.0345870138535998
0.0329121071691634
0.0334776192974887
0.0325869659060285
0.03313911314699
0.0327627480384282
0.033335750111492
0.0329703192594357
0.0352162754725485
0.0327653428642976
0.031585626384832
0.0353243598827755
0.0335642612128477
0.0316686739997261
0.035501018088182
0.0301495623729985
0.0373013916615192
0.0326321048507839
0.037211888920922
0.0357311563496265
0.0347462737904201
0.0381854371488154
0.033883939817938
0.0396128547191443
0.0325700231019522
0.0363428811290349
0.0305312441690982
0.0429374170003078
0.0315955412788333
0.0380414223511217
0.0318757033350363
0.0374306472934148
0.0361502500266687
0.0371473406107918
0.0369008916661069
0.0387406195357394
0.0357893847740026
0.0416590661227061
0.0362304789425729
0.0361950965111235
0.0454133813953347
0.0382175049389229
0.0442441791681119
0.0403139056599886
0.0373007451001508
0.0451388063447167
0.036199267003384
0.0413680280247162
0.038976483373442
0.0408290541742648
0.0365985706298024
0.0413470229894631
0.0452398324048865
0.0375459274320734
0.0413371386725055
0.0416126506718103
0.0389156744495733
0.0470268082325912
0.0406423631118207
0.0442752307884389
0.041508800776026
0.0476664353894595
0.0381097317190271
0.0574082602661655
0.0398000907068257
0.0457006067363442
0.0466440199844515
0.0438836755242953
0.050929575080768
0.0493734579405307
0.0505167574109271
0.0502885354764436
0.0492793704228395
0.0495033641872895
0.0469841226674797
0.0521762945480505
0.0572628210922507
0.0491450836983023
0.0543915078556443
0.0496011324112738
0.0535010023789752
0.0544987940888343
0.0604424077493459
0.0595775344069191
0.0572850080259966
0.0557185857725842
0.0645580767925412
0.0590052583124234
0.0605031344284434
0.0604759300653439
0.0618350549991078
0.0659367308251637
0.0660097953848923
0.0682643702879922
0.065326771354807
0.069196716450639
0.0669816359693569
0.0686048926953108
0.0679627547841607
0.0735283489175176
0.0804009625401961
0.0668098492384033
0.0818816079478501
0.0733439573812403
0.0770482374934195
0.0766174926887908
0.0804963913440164
0.0789094456435456
0.0795229474218883
0.0830836245988434
0.0806408568933468
0.0890876669397479
0.0853904968010995
0.090827164100307
0.0913955386721119
0.0866091799897689
0.0926686050919154
0.0795670464392196
0.137879606876335
0.0947668799619906
0.112885002105572
0.0999678741534515
0.110519649226773
0.121228429210086
0.118797063430795
0.117498924399049
0.127182489742895
0.125359957111044
0.13372712954633
0.134792092697118
0.143897832818296
0.143165220928464
0.150637093075221
0.150691405168802
0.16737319544258
0.170639626993694
0.178355565250872
0.174106170175035
0.178923048227562
0.183385965168174
0.189447399267749
0.190887829523082
0.206322081379892
0.200613949200983
0.214733769712574
0.222480978090301
0.219484757555699
0.230947075540853
0.229554601584704
0.244927711885393
0.237026883679569
0.258149430104406
0.253610576056261
0.263611686612969
0.263743323652703
0.270093497528023
0.275067878155166
0.27505092848396
0.291405306871527
0.288945836748387
0.295211319563965
0.290176040908379
0.300327934249811
0.307291869403702
0.307155223425389
0.310369806703163
0.30963543433266
0.324120295565802
0.318973129058085
0.372948702953964
0.322376691372116
0.318894956058601
0.323081007109838
0.316476406202718
0.332104959759335
0.319591016838046
0.351209931566079
0.333295304918208
0.329563591454756
0.32669782699871
0.332583544563763
0.326775571096845
0.332883799043809
0.329817241128885
0.325048887472385
0.334205857552598
0.321279528945364
0.340190899812782
0.3533457101229
0.32823242899093
0.323695068766524
0.329346642993137
0.320267542366838
0.321969947474093
0.31969341468324
0.323145502163163
0.323159943521952
0.309448336226699
0.317202984381749
0.305152748263567
0.314622925178285
0.318562392624647
0.301709599864013
0.302419126484957
0.301087892886505
0.301441278987976
0.29518378955173
0.294340076306692
0.309969698726784
0.287680569123538
0.291108922936559
0.280146486767438
0.286146057740201
0.278630880193466
0.279248486988874
0.276995319628392
0.276718086169073
0.274327721009812
0.275494101328274
0.272012007249348
0.275989725289076
0.266932786548824
0.27045445062226
0.264982578783668
0.270166655552576
0.266034781707499
0.267047120414996
0.261261873588415
0.268376214218311
0.263813889257013
0.265935077837004
0.25952330242548
0.26713856521581
0.263044055932511
0.26502497603109
0.263648986134662
0.265463209951175
0.259509908659378
0.257465043242982
0.258724204587249
0.258956377600742
0.257089311448556
0.255319361972333
0.249408793317867
0.257627094228385
0.252894052479523
0.255357409664395
0.252669471511446
0.251351206892959
0.248164545065177
0.243225227583953
0.261086762967185
0.249771837528753
0.248342364188364
0.240734496874272
0.239705277633099
0.242629080428026
0.233755298728072
0.256256715133802
0.239752859784425
0.235385312110517
0.235161500094174
0.232193122506271
0.233479410861593
0.228512345288052
0.217080745515564
0.229263282256637
0.213895724497782
0.243972646075693
0.204976154258244
0.235711522678616
0.227356069789491
0.222489809903952
0.203791761130203
0.224223071827773
0.215488254509014
0.207082100330488
0.210313725539111
0.204145572273708
0.208872956696337
0.201617533086037
0.202284743109785
0.202658557675087
0.195973005431968
0.204527774522985
0.211807013096399
0.196730493253956
0.201298878205702
0.201093131034592
0.184748400268334
0.200632245355987
0.1969479122347
0.188597829637541
0.182804042241048
0.188527457272357
0.178448869989229
0.177742447400205
0.193705623871804
0.176835029126655
0.176078095324115
0.170469033132529
0.173128392153237
0.16928102918334
0.172205789942783
0.16887455289154
0.167694999596059
0.173761481459
0.156197984147314
0.164944349030355
0.157788463947767
0.179051606875203
0.16592693517744
0.163745175730531
0.151914401445698
0.159369429020655
0.16071053365171
0.158190412304276
0.15786240226518
0.152768491073191
0.150645040157582
0.158009795804642
0.145045824102452
0.153049667364611
0.15015402870657
0.149357855176137
0.155176359748127
0.155004674366632
0.153733285324935
0.145953116739385
0.146292971965111
0.148435206747656
0.144882440667182
0.15159430687009
0.140294315780811
0.160556533489785
0.146752526907978
0.149225240961282
0.158121943122613
0.154968123920466
0.155889893131069
0.159806574722085
0.156377623644471
0.162281266723095
0.15914361301788
0.170864458608331
0.160770477880783
0.168540286350336
0.171598474464295
0.174144382110929
0.178528876382482
0.183152420386282
0.183179533014938
0.185091821373796
0.194706244453697
0.194453710793957
0.197166173750681
0.205507233181681
0.204515078096144
0.21413724862034
0.219259202881423
0.219116228570018
0.232289460584536
0.223127422499585
0.248113752375142
0.239995327954669
0.24792342131829
0.251222072271293
0.25236585215695
0.258858486769269
0.258419142590426
0.270199075012706
0.275982135385385
0.271599246825752
0.277729758917771
0.276976735187015
0.287275770822887
0.284014959085408
0.298119963470614
0.283159444954552
0.315727162337095
0.305592264956605
0.297119450216264
0.30170880938599
0.300532619782071
0.30624798957068
0.306559073111429
0.313929405467514
0.312303842064199
0.310649368631008
0.314598995713812
0.314825603180774
0.314275441702397
0.317443607671937
0.316726233009096
0.31978078316183
0.323623433698961
0.326332076514674
0.328418196468126
0.330346745494718
0.332131744319391
0.329836974902438
0.355069843433956
0.336916077680748
0.348273993045727
0.344348972853761
0.352828892666638
0.350761394733737
0.350032550390694
0.363148924708504
0.362485447663327
0.364574950436773
0.364283852115401
0.368217647471685
0.37058191882942
0.371660070561473
0.383563299075878
0.369262714221784
0.376596420508599
0.373775694081573
0.392263028251027
0.395962859597492
0.387931627256
0.388268658237382
0.386444638027762
0.392321517843059
0.388499214806534
0.393810268267084
0.393771460987836
0.400119037532685
0.394065403009857
0.396006398729554
0.395025632343679
0.395305465656667
0.388213164902526
0.395947101521116
0.399850567903654
0.386616760485956
0.388689747989158
0.388395357664028
0.389678352143983
0.387384336727022
0.396806373229994
0.396756810747724
0.389525210622886
0.38844307950414
0.38609335788645
0.393850733372827
0.393204763110424
0.388772526091771
0.391738283652998
0.38705175029788
0.39626548545943
0.390919969826152
0.397890830539946
0.394603644965396
0.398250387940237
0.396773274391072
0.397900077735947
0.400048801189898
0.407325027491693
0.412514605891256
0.404173908554885
0.411262256941802
0.41001228018882
0.417012288477924
0.412850470487769
0.415357255275919
0.417171198506091
0.417221819851204
0.416691219270591
0.412105748265931
0.412080872321407
0.410108612108921
0.404384348905911
0.406753945914716
0.398711574340159
0.394669190788881
0.393336733622214
0.389995657439716
0.390139745402488
0.389752786550719
0.37862024343855
0.379065489771782
0.376897208187604
0.374925112812999
0.367455185192155
0.365423565252939
0.359117427406045
0.359538664954006
0.358648881102823
0.359386572428514
0.350856546928194
0.354454750349798
0.351370791291313
0.351799461188018
0.349701494684526
0.348728975480384
0.347532198251366
0.349900647353034
0.347328832001897
0.347222372132488
0.345957645767771
0.347753986266844
0.345215059985937
0.349207982316118
0.344711714797905
0.350197766677065
0.344894565700212
0.34822453602725
0.345388259100518
0.344622099622175
0.343860269098095
0.341046877274444
0.34599219133336
0.343821124880059
0.34244358175407
0.340706471426324
0.343424757788625
0.340094844878682
0.342782311451854
0.34084049462015
0.341457201562892
0.33930483677988
0.336935699794067
0.338802651667701
0.338605491836421
0.341635122036832
0.342454655913298
0.339876876001745
0.337743705655864
0.33602707721199
0.341107415418603
0.341095938752363
0.337182615686562
0.340614943809478
0.338375199705078
0.338353752134082
0.338517973008669
0.336872917424274
0.336379244992735
0.33323884169854
0.336235403714396
0.337608124170205
0.332191857710417
0.32943865508525
0.329532432619518
0.325199513017308
0.324594710053357
0.320633976663552
0.318213984879493
0.316669398440344
0.310022270493813
0.30807970212107
0.306870057592245
0.302924156509874
0.302289349924309
0.300427617080594
0.295116367636256
0.295312803640058
0.294336958329452
0.293771106724494
0.290820062740784
0.289535067101542
0.290062184527853
0.287498945112663
0.286910090371507
0.285731868709141
0.2859640224385
0.2866660460278
0.286493232720936
0.284277583813838
0.288041952766278
0.288847554707322
0.288715607069936
0.289054517778889
0.287759936492897
0.291341125041032
0.291525557642295
0.295335745561617
0.295382601592627
0.296933653639344
0.296894382575855
0.299982788222482
0.300331116940567
0.305407619694602
0.30446231080003
0.307496628324781
0.304626500192393
0.307179510322414
0.30820496583266
0.306800708695278
0.308031418566035
0.308997506585125
0.310510373389452
0.31074784982748
0.30434349051921
0.307308338016766
0.305312623733557
0.306512834587131
0.304031032325319
0.301959475596659
0.301902037315217
0.304039554779587
0.301306123368655
0.300921222079101
0.297255487960437
0.300237134785961
0.298733674866295
0.295889617520835
0.292424058976398
0.29468888976373
0.29208174934662
0.291106867835888
0.290342061278681
0.29144028296921
0.290103319012173
0.287082794210453
0.287273573351326
0.283220423400585
0.285060850467433
0.28362274212559
0.280429836942625
0.279200082769629
0.276420433075392
0.280040992029797
0.279592060036657
0.277278753453389
0.276617197981617
0.279060142966877
0.275272716933673
0.275111633502491
0.271293420303325
0.271934321430236
0.272218182752723
0.27138094332191
0.267016577829404
0.265832477862176
0.264441527399642
0.260828289012553
0.260219289915436
0.259364360799405
0.259331779641718
0.253767792321027
0.250570962184341
0.246780204041872
0.249090281703437
0.247970244297032
0.243572505687875
0.246558569176016
0.243433900776388
0.244319176199778
0.243354482676082
0.243974774844213
0.242289341719265
0.243330074683683
0.241806951454204
0.241884012830947
0.238680993900454
0.23982928013917
0.235255667848349
0.233218250802075
0.233848632847617
0.229210163529439
0.225633090746822
0.224569658507894
0.218847103906923
0.218704624501825
0.215415872099525
0.213013000862007
0.212789048618431
0.21322704077936
0.213508016186614
0.218829579677208
0.21879141713644
0.225665944824918
0.229727628496078
0.237019445002306
0.244982585928543
0.254705170619298
0.261256909042856
0.27421180769976
0.286732670000239
0.299059424405602
0.30776208061763
0.324527115212212
0.335337395953174
0.348899996451618
0.360598334024555
0.371373451718412
0.385304887534033
0.400912407107761
0.407307839211297
0.418928396270138
0.434783772508288
0.446227414261214
0.453920209034361
0.466676400927335
0.474587812542429
0.48222496234226
0.491108462900648
0.500384137793198
0.507907108648884
0.517411463982733
0.520054837536998
0.526170301971717
0.532018205191313
0.539374114837624
0.537101971235471
0.538634872773617
0.541452631447883
0.544220485703326
0.54245007273888
0.541137097667196
0.541305801032186
0.543523497641245
0.545693281565238
0.547554795806395
0.549085226771324
0.549937133438495
0.550401678353342
0.551655879064405
0.553253331570166
0.557253436762346
0.562888020572389
0.565893840396058
0.571535713194548
0.576549322027905
0.581698073577171
0.585123122362473
0.588315376005143
0.600485340430969
0.608003508419246
0.615762343887251
0.6152552516155
0.626029670433461
0.638746896871193
0.645382002083299
0.656028931790977
0.669217416757777
0.677719126967035
0.68608853830789
0.687069987688615
0.695497702462079
0.703591148922373
0.706277813414282
0.714530218937498
0.719097455774543
0.711200615327801
0.715435897195597
0.706459799527061
0.705726934408657
0.705608273084802
0.700770243066978
0.703454923839697
0.698814878127332
0.695424041586533
0.697722869560177
0.707272088499638
0.705942192115644
0.720206750257206
0.729693713042753
0.737995437526372
0.747227254369694
0.764376936320909
0.781090711826977
0.793487389696856
0.800542099278559
0.817365493942946
0.82939977746389
0.843768644439358
0.850878323021637
0.867958037218454
0.87103615300181
0.888644670034706
0.906080618289663
0.910219836292794
0.93459544658546
0.943447272634797
0.968765373512399
0.979640948020321
0.990618029111768
1.0235245558539
1.02173748740954
1.05135373866634
1.08382319943733
1.07891605811979
1.0959265824371
1.10582699805386
1.11877598582094
1.156663730241
1.14916429588573
1.17961641342632
1.20454461804497
1.2055297492995
1.20700663480589
1.22278516046419
1.21598117822709
1.23036982830355
1.21295208425429
1.22028828878346
1.22286972511079
1.22521754463218
1.21408609792323
1.18923834853314
1.18188573186468
1.17798526676997
1.16854235901429
1.17241510806851
1.17758360403256
1.1674736944945
1.18717092201342
1.20382854019603
1.20648731822838
1.21529417149492
1.20722501403156
1.21115729237796
1.25576603546508
1.25389827221969
1.25812270315771
1.27474089072674
1.26893161760449
1.30231214307151
1.29707596606253
1.3522814477066
1.33622269025445
1.3480802159792
1.34396806744151
1.30925682747413
1.34373426024303
1.37071100855123
1.34687573342929
1.40379262600528
1.37588742034629
1.35467040718493
1.36201553133742
1.37434275487858
1.43579653370506
1.39839879954876
1.38473873182312
1.39976434668486
1.41167130284367
1.35938450264661
1.35204183912936
1.39741487001033
1.43769428876925
1.39068461059774
1.36712210197086
1.38085479849523
1.40178426478591
1.35527979563817
1.35395418968234
1.33877811517455
1.31819271906484
1.2724848119531
1.24233704488837
1.22944097494181
1.17281416183345
1.16255321927135
1.07493351491224
1.04657780982897
1.00138781940951
0.958687342050075
0.92723779938341
0.884558386978418
0.849428658894202
0.834040053292805
0.798402509496951
0.786787552282173
0.770816611605042
0.749587675639599
0.752766385209689
0.744721491543864
0.732964113687879
0.732746882939757
0.725822919901388
0.723976137302366
0.708762367639536
0.700018011874757
0.688888509823077
0.67879100139826
0.662829280191924
0.660118195886922
0.64298328746933
0.629341763520759
0.619249555638521
0.599364972708736
0.583273828921402
0.563390923679024
0.545225884366697
0.520250684853948
0.502342462391187
0.48147598059119
0.456494810452894
0.436921208189231
0.408239324110702
0.395239163776377
0.375960136250813
0.355778677624133
0.340756182775822
0.320605714502884
0.3050927785814
0.289960021138854
0.277378589884675
0.27085549041391
0.258130298017201
0.246091267891422
0.240147056223585
0.233746788134186
0.225033100541175
0.219739603234994
0.213969138245254
0.213003733333846
0.210733982915419
0.20606071642982
0.206915197486019
0.205889146381949
0.204981117071803
0.205305700019993
0.203221846049644
0.204251126303179
0.20737201956001
0.213267491502703
0.21225465361009
0.213812150478186
0.211856118709348
0.218300506027463
0.218778213433228
0.216824491598085
0.216106716699802
0.216990167182341
0.21595998232084
0.213457857283001
0.210812696231683
0.210060038635416
0.207820436290586
0.204791373452079
0.202372375346907
0.202218932058675
0.200847463662635
0.199414755423318
0.200240710440571
0.200387367464543
0.199376749831004
0.199055087605481
0.199992392743793
0.202866506993212
0.204875478465512
0.206673107172831
0.211102645958946
0.210155098134421
0.215474275321988
0.213769297151215
0.213418481852067
0.22119488974274
0.219728243342465
0.218670060321921
0.223772462444753
0.227613299803544
0.226258729155679
0.233518844601654
0.230867702077911
0.228958888323467
0.228240592280611
0.230500303880533
0.234774125802078
0.235943953416836
0.236315159284103
0.238043214893091
0.238077954286098
0.240475362734695
0.244780373209917
0.246059205130222
0.248743440691716
0.255389591455236
0.255661087637109
0.271990859700087
0.277430366435023
0.290596270518626
0.301396578703335
0.305341111036926
0.31664105890653
0.32929560644271
0.325089505764045
0.341886890824547
0.338432237791767
0.331973638319814
0.333005543516992
0.330511778194599
0.323472493043151
0.316230994539179
0.312876047810735
0.311536612780256
0.303146021280038
0.302825615473371
0.299377226064553
0.295492052530919
0.290324619107526
0.299883334423286
0.291963452574545
0.293026656831795
0.295030252598214
0.293471681344654
0.293997318082053
0.294648031944594
0.285749625472914
0.285824152797781
0.285732256706516
0.283179552303022
0.279936396048185
0.274445322122093
0.275535832706503
0.268334034561864
0.262877984657834
0.267595661225374
0.263673441082025
0.260399014786021
0.253886563331138
0.253648862809464
0.250830910849922
0.252803730452047
0.247398669284922
0.250083360879602
0.243325158133332
0.246904321019616
0.236742481225239
0.240097784160346
0.232777086318105
0.246940931442897
0.236924891615978
0.240123563162153
0.233393743804044
0.229899234476261
0.232560421922075
0.225078528899035
0.228170635903528
0.235064835510613
0.229846479916517
0.223668426101156
0.230565734595563
0.231395775114664
0.224545266889648
0.229616689907147
0.223557696566081
0.220687792189428
0.224420660458254
0.218411036482285
0.221048444413404
0.216201256629153
0.220773752621946
0.220261070995437
0.214396499094413
0.224889676865585
0.219593674620319
0.216014654551273
0.221764138946811
0.220740733489606
0.219168924492952
0.219485756506599
0.226746544652844
0.232560453358111
0.223910408722272
0.225064171496135
0.22614369775613
0.228302478013405
0.223027424056236
0.233067453264049
0.22844595101835
0.243210266750943
0.242381609846315
0.24038402245295
0.23299229221425
0.236082514057061
0.246628442750655
0.257427507157058
0.24398610268576
0.259720184697853
0.257091991470264
0.240425587974823
0.268257126729612
0.261185426489044
0.254902959598533
0.281153001048426
0.268381454434882
0.277784996857387
0.281032490049958
0.286508865855302
0.297195930174713
0.329649131858494
0.319619591624305
0.339051220317771
0.345725978718908
0.348921486381823
0.364619727182522
0.37567392090829
0.382553738904979
0.399935289362043
0.384311508118325
0.410413794914248
0.411408749399672
0.419043056512947
0.406317548374325
0.422337371056552
0.412373561384864
0.439985309249561
0.435653175460401
0.416018689593882
0.420983778748142
0.414022501881314
0.413600364058552
0.407238152215282
0.39684595097379
0.437935996692974
0.389404961879476
0.427717724790306
0.405580096420216
0.431923542785419
0.394427688400286
0.408182393525929
0.385334000833919
0.393784842296046
0.385716043531809
0.37389851405798
0.365990615342365
0.390930916725153
0.37167871447023
0.359874969892505
0.385152451747868
0.365746432158117
0.354608174236822
0.345203618971394
0.360345685861065
0.37022747393226
0.341995291272426
0.381949103835758
0.346150601381566
0.353201334032079
0.353283359945156
0.388665164859028
0.353100263715796
0.365927339556561
0.335125580437355
0.362203839019935
0.324009324088329
0.367825450243571
0.359699654357785
0.347561046275758
0.342112532800795
0.368602186886024
0.376755537777238
0.334404798032229
0.358713999232409
0.356681187077044
0.359240214196387
0.388135703633919
0.366998977379628
0.356052176890757
0.367402674592986
0.394954836537369
0.373492155173674
0.383081941851024
0.362055323160675
0.397803485110339
0.379567125696613
0.384683394992773
0.423146427401389
0.412936947164215
0.419510847671526
0.41473550886122
0.423107450946449
0.39245158773057
0.446568033424092
0.435072783660593
0.401299530914877
0.508225122369921
0.414223874776648
0.41980469213207
0.464731444033588
0.436799115907276
0.45547456165231
0.518249137307434
0.512133533968635
0.493285296900115
0.468834563240136
0.56467494069501
0.495627003305241
0.559804632748062
0.518941990267191
0.558743492882791
0.436806506569809
0.557979277035021
0.556902955727441
0.536808362629443
0.566572035898786
0.485481584277664
0.47298511339531
0.461543396219656
0.455526066179372
0.54051754407559
0.508236694598644
0.461378644179388
0.419951660599408
0.474315481223992
0.461033577825498
0.521618917035671
0.406874437785817
0.491639156003941
0.492075032156232
0.394663957858279
0.425326827178884
0.469879991904947
0.469885537195872
0.526219845002923
0.403614991207581
0.583476872381545
0.419658177259874
0.462827087394204
0.43065295088357
0.456796659089312
0.403595814898675
0.657865857799304
0.507578545163625
0.699177115675922
0.594902003678295
0.506389258132444
0.489239507054924
0.311308881104139
0.540005778466267
0.583926988803272
0.437711399818502
0.423297662189457
0.733834546602987
0.627311696610934
0.554245123038858
0.446192485023857
0.717847931715399
0.672113762003315
0.576431361863048
0.362982005284302
0.546988337042564
0.752066889747212
0.464833582741061
0.766288595241981
0.862415550146628
0.213980202445162
0.545520005788105
0.43325863399035
