3596
4000.36533379555
650.420452594757
1
2
2
0.0582835639965323
0.0532717613440321
0.0605346847318829
0.054636898505873
0.0519955607693358
0.0583519758329964
0.0538757693493005
0.0515432825685362
0.0549920172430586
0.0560022963707635
0.0547901823759293
0.0548788437798203
0.0456930350172082
0.0464904746990459
0.0582338305577226
0.0457056485938612
0.0547746803556952
0.0518139439819252
0.0528396484783741
0.043310960256855
0.0568750499312613
0.047718219477702
0.0517012025358456
0.0583000105914045
0.0540657272529234
0.0480127459173619
0.0475146326068589
0.0550154486518737
0.0507193407087747
0.0570240225963401
0.0549246155874387
0.0471204710138166
0.053409154663755
0.053697481002787
0.0544863361677324
0.0531786485055932
0.0492267811571394
0.0501436641956404
0.0492521088448979
0.0560108650504241
0.0616987494297015
0.0523924513474897
0.0601074563225643
0.0574768886677631
0.055320019627168
0.053238389488597
0.0529795761342063
0.0556082935609402
0.0559755716795747
0.0565654729667068
0.0595431572788785
0.0488182405039638
0.0597866401075527
0.0611670634951703
0.0546675769053665
0.0675631707105835
0.0629264501608163
0.0542894800380947
0.0516249968916268
0.05014570140393
0.0666012752682383
0.0691770167982692
0.0534185062283378
0.0466741582644057
0.046895202259655
0.0558849261572237
0.0473516310903288
0.0546732932742603
0.0538228978859866
0.053847897799323
0.0476907234997245
0.0639327377733648
0.0692755337552833
0.0592114372013009
0.0546582049911925
0.0532540550710139
0.0538798287654887
0.0509610135525948
0.0435016891168859
0.0518923884765228
0.0588050095610578
0.0529885198915819
0.0566270046506691
0.0458670878428348
0.0529627387322618
0.0726864272653606
0.0494736808952131
0.0489755183702808
0.0702372410019674
0.0649431453206787
0.0533241202896926
0.0549399558417852
0.0522099214189529
0.0569164293007647
0.0553881486355108
0.0514789633248293
0.0441839354171499
0.051957549636341
0.0521722818779859
0.0603401912117887
0.0509938245638449
0.0476499811217233
0.0931249489986993
0.0530199154496879
0.0853625105640517
0.0676151752183526
0.0409429886328051
0.0839976602489605
0.0660964553934819
0.0595442528032281
0.0571257042693288
0.0558511175750642
0.0517541637907932
0.061874466065724
0.0459066900213205
0.0609468626951774
0.0753985840238696
0.0599853564599658
0.0553043773044054
0.0626385693187104
0.0339243988048468
0.064302665145904
0.0869341521350037
0.0618069389159644
0.0605034147272739
0.0533770536293944
0.0474956720272767
0.0811241534263105
0.0765018938422342
0.0588138628597326
0.0531778762069113
0.0538038839443374
0.0429000233809668
0.0458040772884002
0.0952318430191003
0.0655695039608001
0.055820260113153
0.0388708521931368
0.056598978306606
0.095655239740984
0.063407743738942
0.052476064629359
0.040601874675397
0.0541561375787935
0.0904516723153091
0.0631608836405022
0.0415298350581292
0.063707170145956
0.0636565230864001
0.0528637768444823
0.0495680110871358
0.0435507716320891
0.0591070901269873
0.0610514190393071
0.016378960964773
0.0724383166764756
0.106116442598111
0.0678146374331362
0.102573936285007
0.0718027062151998
0.0685980881812494
0.0586904561091958
0.0506357436040971
0.0513830153596488
0.0622312954926179
0.0502115606955943
0.0589195133694702
0.0811743395223624
0.0538752224889508
0.0504609949527827
0.0864222390396658
0.0583470108842851
0.0351848427958557
0.107339235654466
0.0681031573737548
0.0404238860464862
0.0775492985074377
0.0726603057131235
0.0443285199151592
0.0575634706651087
0.0819859985185655
0.0576857495692992
0.0544879596795216
0.0544720146451135
0.0543880018264278
0.0657427822950588
0.0572488024503255
0.0591547536392212
0.0607879073002032
0.0429666042577314
0.0485766383205513
0.098202437866369
0.0848261725220568
0.0674884876303027
0.056645797438525
0.0219510339222966
0.0816455242407379
0.0927370640178308
0.0626922666400391
0.0558353526127971
0.0542738771325026
0.0532421767270716
0.0487658021545899
0.0579294834583905
0.0489302601474588
0.0318424879839178
0.0840591041353817
0.0712929214881554
0.0574992043539364
0.0563901755397574
0.0530118045497827
0.0329673940503696
0.0881335811077397
0.0842306032067996
0.0611322203045884
0.0569058136826839
0.0466725848205086
0.0716561151345996
0.0759184853572552
0.0602150791590467
0.0594866569331957
0.057437850311366
0.0625592929854886
0.0528131657054386
0.0515870101309865
0.0598958010960246
0.0563851289833983
0.0539116288493171
0.0543998030534138
0.0552579074612282
0.0664391301971671
0.0604636031001084
0.0580952816300577
0.0636092824927763
0.0429388957072783
0.0624132577242372
0.080331468573806
0.0677769929540252
0.059992794995478
0.0575578002625593
0.0596443411550057
0.0575275224921233
0.0591035996035275
0.0617419945105078
0.0524992575565401
0.0451788994525227
0.0864279855483044
0.0717533967216283
0.0602693494362581
0.0453403516942604
0.0801199438376336
0.0715624896050645
0.0657355825679525
0.057947062596248
0.0629845214761151
0.0485435703721485
0.0566952228004291
0.0880890528774231
0.0759698999803504
0.0538576152451855
0.0723438527303167
0.0692351218804448
0.0679420896745773
0.0551139809464236
0.0404494377503269
0.126068652471451
0.0728952652590652
0.0565725378203212
0.119694710255172
0.0861224555336347
0.074577887808981
0.0567554528105912
0.0277888773536656
0.122708231383933
0.120882423059007
0.0760481033890776
0.0683204083399747
0.0770719113669501
0.0640514272465596
0.074378041599435
0.069308813993147
0.0802615690253008
0.0813895686402778
0.118866506886056
0.11463109367034
0.0524680072673315
0.093111186243518
0.0995492365131687
0.0784914801996803
0.0705953126583918
0.0691097624786927
0.0650957628170526
0.0864445846704003
0.0912364040645855
0.0930601091753498
0.0754825027302614
0.0743040395034321
0.1012903068108
0.089977764400566
0.0731738692465529
0.0897574728524119
0.0879366437953655
0.0767918716042479
0.0832080757597913
0.0826991901205969
0.0890515236120288
0.0764643983590476
0.0723222350494531
0.137643141877648
0.10137083873338
0.0887226265880364
0.117394754517524
0.0976897725269355
0.0975861148121935
0.0958825131112088
0.0950410823583877
0.0925893608108476
0.0880990308865421
0.0819755412536391
0.132070953257234
0.104041252858268
0.106825453192731
0.102450139009483
0.0943768413395596
0.102957321712053
0.112163575520446
0.104883487447818
0.112772596604584
0.110912454457082
0.0968669319339864
0.122256556934242
0.140701904223846
0.0977787086132426
0.147389715301713
0.150824112282885
0.130801703082658
0.124214718108678
0.126200414662721
0.133070999159467
0.132811713276871
0.141974833863467
0.137479562863165
0.139170251438429
0.163894833625992
0.163671764054383
0.148782234982499
0.140408034381451
0.199720216215975
0.205388528881472
0.187160458239023
0.169410807960809
0.145185535403658
0.19341434344111
0.201485631083311
0.208272918972554
0.210033459273271
0.195149322886852
0.196024344892032
0.196164703050847
0.204570423602319
0.201081998769836
0.211430113549663
0.210253180639944
0.220388878833842
0.21526572848959
0.229190698412747
0.208771221641486
0.223688631215648
0.262494586532452
0.252993879601801
0.237582557525299
0.246371828224658
0.226029000184494
0.280984554300228
0.275728800380469
0.308339701006766
0.279486426273434
0.299822626236589
0.305399227058768
0.293497453121085
0.280508661180204
0.282230850059625
0.282826955029192
0.300677927181077
0.293918365353109
0.293607454135283
0.300698767444291
0.314751088810228
0.307998380104729
0.317450281279846
0.306379233532566
0.313748426507575
0.338569402145308
0.340588216536
0.327111716576196
0.326646615233596
0.346478173240607
0.408974079510611
0.404638164536942
0.363169907132498
0.359985488789974
0.359757280995337
0.349689562851575
0.371310799547422
0.360969195783343
0.375192995534463
0.370715097501206
0.419277068262897
0.385327982572189
0.412413362267056
0.400974723561509
0.381984198039539
0.404544766991158
0.413140942138689
0.402611593640694
0.44140130424964
0.415839876775935
0.392941352110165
0.42754270362366
0.439293380026984
0.434028672692578
0.447270528778753
0.424669164272138
0.430315009909384
0.428762036387982
0.454150996755119
0.436394293253644
0.461128166878464
0.446981155672436
0.463236596307888
0.460508205714713
0.484505320374135
0.463087293923963
0.481589517376178
0.463881818354076
0.487978840281633
0.458050578101056
0.482029126985626
0.4901219768918
0.468902827741923
0.504831597752393
0.523314129151342
0.529163613298873
0.551876154400562
0.516662010806002
0.52674430236328
0.495501787434922
0.535756470118128
0.514388348510236
0.539360118717618
0.514922360515255
0.542684632109066
0.545173269144134
0.567827580067533
0.544953876953368
0.56110556519266
0.536910825028996
0.568243045929211
0.563523108445733
0.585594620725561
0.563691368691609
0.585999244212238
0.594586199783041
0.634473309218072
0.626099627960643
0.64960794431043
0.591124442121927
0.605096425747916
0.590760407337843
0.618943239718806
0.600245908254785
0.628679058727825
0.601999878907665
0.62802554797943
0.625675305655022
0.664905288814799
0.594538374599951
0.65431866462768
0.625595819227431
0.662119584725817
0.640754921330443
0.669059134075016
0.635041878992196
0.692208502334581
0.675820282024425
0.690761662845335
0.656363202242295
0.732782125947907
0.688541355531593
0.732168025134604
0.691305942612467
0.692746529464058
0.667939903583026
0.735442828379627
0.716215329666117
0.735716689112785
0.730913644271979
0.798211046252082
0.718056233690205
0.791903999543069
0.689114697458929
0.757802815698605
0.703869123467874
0.759189997733635
0.717056158084754
0.807561041286603
0.747547729200186
0.801131343628588
0.732060704997639
0.778483644494981
0.766526538520196
0.817883177994859
0.778883986292895
0.838876808998465
0.734003211691329
0.816864243679359
0.794765107257059
0.878734613750749
0.809125853563767
0.842205671759844
0.782081321805919
0.839625699137097
0.7894393500747
0.852954773434745
0.892656693755113
0.889238185381436
0.832283005989137
0.886161848595468
0.819108718374442
0.90004040917367
0.85369322062173
0.891434891591682
0.859222538367558
0.902336480205584
0.870688449903922
0.895606567051459
0.856818375296631
0.91840537122209
0.83287039274889
0.989252778177512
0.914375408775553
0.989754897820329
0.867686508850151
1.04670436657427
0.904807044555665
0.959255282213132
0.904159649751515
0.970893566991759
0.918393602578977
1.02300592790134
0.911541015756263
0.991994596654267
0.922372064452074
0.9859751045264
0.934283739008813
0.991412832368407
0.93211418552579
1.08252319807301
0.999167620968043
1.10052172282848
0.942464267841439
1.04732352957
0.974684554315044
1.09413751015782
0.981469878909231
1.00443261485914
0.985097094800513
1.02690869218533
0.975862179917429
1.0765029943749
1.00504302465966
1.04860505390177
1.08597567906559
1.13395927378095
1.03976300317352
1.14478650330478
1.11715965666063
1.15591562862095
0.990363126716163
1.09992678298204
1.04573110174408
1.16103307350419
1.03906012567099
1.22242002321061
1.08381441043474
1.20161965611548
1.02616909376747
1.22755616056561
1.08854365948815
1.23154552734821
1.15361558350632
1.21935649766364
1.10223014921453
1.22503628752978
1.14447878500455
1.22591179619292
1.11673032813326
1.26630545991781
1.11617982875526
1.212284392408
1.07635925900579
1.1588863647359
1.13924024037131
1.32863929974549
1.12551364275311
1.32668411012706
1.16352896612772
1.36871091856201
1.23057199155355
1.27367031352402
1.22286813468856
1.33482106967711
1.16147398799572
1.35510751657406
1.11364219940176
1.31631764534091
1.26995606229487
1.30628212742538
1.20048605258499
1.34287575254855
1.19904284445374
1.47669329077976
1.17448548058439
1.41368068079903
1.24928616341864
1.41819483285897
1.27411463088775
1.28904307573377
1.20514067163364
1.2957381489394
1.32058106633225
1.45697480856205
1.21712405310221
1.35419043205454
1.24751893822165
1.41421447040868
1.18285580988136
1.40058297018132
1.28256825457747
1.55314599669742
1.26456556030396
1.36590642439685
1.18606992585645
1.41232005948859
1.24789307689128
1.48218475829983
1.28496775956008
1.51735659456991
1.37444347982323
1.51601518972645
1.28569641159613
1.58568756016534
1.19619921837563
1.34118283032248
1.41146788275998
1.55442877849583
1.45973320928819
1.58053705793609
1.35886614630949
1.42179893422774
1.39710963911588
1.594312815757
1.36883856938879
1.41925607251385
1.32903772458446
1.59650131161817
1.32439324709229
1.415972901591
1.50270812096782
1.47653447158536
1.48410436343761
1.46441222117059
1.32095461061663
1.44315072275808
1.3730854480381
1.47442095704164
1.35725869009304
1.55067973538663
1.31995806017033
1.62489175217354
1.43996694810552
1.71481116676972
1.31085003098375
1.48634861758889
1.52056415533067
1.62957576134306
1.28506899971529
1.59567443618335
1.40944198366147
1.64341486866541
1.40915107706053
1.58657992327061
1.42458409316833
1.57066914192069
1.31144625494635
1.45194364532283
1.38403697893637
1.4799252732614
1.51173104562688
1.51144865733448
1.36973607931625
1.60813659673212
1.30531792655525
1.48113382594586
1.47216104758057
1.79981458051461
1.44004557605104
1.53274275285991
1.4284936392612
1.47818186652764
1.4167284576982
1.74226631987634
1.53789266932789
1.62893551485927
1.46943531062781
1.61750029299907
1.41497771041019
1.55611276164853
1.5326520301262
1.52078237893383
1.44160816901164
1.51376472377565
1.37664357283324
1.67385701621283
1.49822653548635
1.6601276016739
1.47676202789645
1.53181896448866
1.35637001308735
1.47138805729066
1.3611636572845
1.77628134002727
1.47660191843831
1.5824307362292
1.44695839227056
1.85223003674004
1.34869992746715
1.55783519067676
1.41347785127206
1.43934989873751
1.36582724348954
1.50316164536391
1.4963893157846
1.61020166521297
1.41168950520928
1.55165560343218
1.40638864450392
1.63547576834488
1.44752467668139
1.59319664806795
1.33759979849236
1.480275184076
1.44201736530517
1.6060177890839
1.34867186755807
1.52229883079558
1.400668467877
1.52549024087106
1.4346359301185
1.42425972403061
1.30998171786473
1.49443155196081
1.36419796342438
1.62510690487793
1.40156556778271
1.53092802915114
1.3758204669539
1.51168798794988
1.4239790920373
1.50215817374849
1.35070553320834
1.48433003102171
1.52408781240405
1.75098672229865
1.47619183508352
1.48329116777877
1.42912210658613
1.51752025764422
1.33095372925799
1.51631040344411
1.48861057719019
1.49863872396581
1.40384619427361
1.61162819358534
1.43438766591892
1.5278452277192
1.38863053964323
1.551071058007
1.4327353678242
1.56115506097471
1.41157399920928
1.53582362784947
1.38406501705031
1.70002648704593
1.4010140415128
1.45261923697618
1.35978360309701
1.60559358010235
1.31389524463125
1.56803066356624
1.51224913317053
1.6358858937817
1.44188120049278
1.52065447448188
1.31793137210679
1.47330908127903
1.3550619381316
1.37231359539978
1.35051238289126
1.53975625844668
1.43503320379625
1.4861495464146
1.39687871399128
1.44132096397592
1.40415497065555
1.51105593076747
1.41094185424412
1.55794316064904
1.44111652924205
1.52154192079565
1.38202056007095
1.41424773916304
1.39041032777053
1.5975438825137
1.3760999589681
1.38328691507612
1.39713567036429
1.40617643383313
1.38631869678086
1.46044873707161
1.39832233537175
1.41042760120786
1.36473011525135
1.49640672255602
1.47136588058891
1.46048902230478
1.35729438582404
1.45344534494354
1.31286482861645
1.42177885252261
1.34670369518774
1.47341893170426
1.29701224949448
1.53453301309013
1.30509457850844
1.48858308410417
1.34071607374611
1.40759638733497
1.33836153737383
1.38488162066755
1.27132930931772
1.37775229049656
1.30672978511762
1.40795570244386
1.26584953431897
1.39801170851264
1.29989480437511
1.388473868825
1.27812843062697
1.32523493857658
1.31107648955996
1.43656908817597
1.30563121572089
1.35831566967214
1.31712668642465
1.34445703424827
1.21666950442583
1.37066893166768
1.31001523028303
1.3256281059152
1.18954665290599
1.2958204564845
1.18237894505908
1.25638424609176
1.18700742964609
1.37425831937351
1.23648723846837
1.28804203226847
1.21105277545143
1.2528019253254
1.20608908477004
1.30146930306657
1.21786099670833
1.20463034549106
1.17854568511337
1.26540373235929
1.18624161248879
1.25261404679793
1.15706993088271
1.2022254938943
1.16506068289128
1.21997962166748
1.14094306263661
1.13920314661225
1.13420737153406
1.18152810107151
1.1257721053235
1.14864940165467
1.1250129960836
1.23542231361792
1.07855792123633
1.17933520146045
1.08795070043671
1.10371693554937
1.10667438439562
1.14356996609261
1.08743840073236
1.13759707586753
1.05182396655771
1.13183137284171
1.09382223106059
1.09451509896902
1.06467063143597
1.11746065524183
1.04635065867922
1.05670838762698
0.986868433806511
1.04910071982536
1.00128935559823
1.04945767282462
0.997411581294861
1.0068166349797
0.965611120284874
1.03139855174821
0.948561147725678
1.01485042581478
0.936467827127146
1.00664405814366
0.959835105968744
0.974887021721278
0.956918319843682
0.980778519629141
0.947057548018093
0.950538756932977
0.91191932911297
0.950908484757514
0.922284681094455
0.913834275729726
0.895257424098798
0.925861430290738
0.881506569245674
0.896701956441191
0.871388032039674
0.903465755256883
0.845350667743447
0.891686179140596
0.848136594516206
0.883530696465618
0.849252988003113
0.87250428817942
0.842730599934788
0.871927491029578
0.823966051613382
0.833871615617975
0.811697374585251
0.813651795079486
0.801490098937404
0.834785685246783
0.79896933146518
0.817636496194325
0.79914025455785
0.812917267398754
0.768696352518861
0.813139753570589
0.759632462232844
0.782494393103587
0.750556007246407
0.785656668722882
0.747335107533492
0.763022145423036
0.725224418185547
0.747942406756921
0.704395292236904
0.745197673951394
0.71936532187723
0.734546383013986
0.700803684850143
0.709784666301373
0.691282523958866
0.717809560038821
0.68109303979661
0.69089375302963
0.662778850967375
0.702650509122444
0.678188279454012
0.685613321825729
0.663394597927982
0.680692694150918
0.636859767264783
0.674228783824459
0.650389572094145
0.675395009838011
0.630312022265719
0.660484697051891
0.642349838176846
0.640287893265685
0.614350452354763
0.630634807630136
0.609678556750512
0.611094287266601
0.602015790165059
0.618326762059824
0.596903944192856
0.618391176220496
0.578500913681246
0.598777692013434
0.57659957370329
0.592375770689613
0.569011820927966
0.579148481909298
0.563745482777962
0.571444749187941
0.558801439091267
0.573069410553595
0.555819258129582
0.572561362126717
0.548884312192558
0.551146944410638
0.536011133496297
0.545528376344653
0.530670861884687
0.542413393328235
0.518968795100636
0.536625992142059
0.526960867446364
0.526115610887096
0.513268755593378
0.515682925108539
0.503236306196695
0.512224398950711
0.498339361085406
0.504044541220109
0.500803158249033
0.495663662007199
0.479304902631998
0.491404877160106
0.474872895578128
0.489532579940571
0.482552833451592
0.480946508793759
0.459618896903385
0.473911059485093
0.456331571214825
0.470820732332283
0.453273488443854
0.454944336509014
0.44554679023371
0.448425360320194
0.442665122751252
0.449594549148057
0.432406387354192
0.443563319439367
0.432821112746273
0.439133611186285
0.417385505824721
0.430320077496666
0.41863755351488
0.435074703699146
0.421785702646211
0.420234843615382
0.415440146394206
0.416069382573296
0.408350046489917
0.414805221096745
0.40069960175066
0.411403769210637
0.398156385534901
0.400513168003624
0.388085415414494
0.40502353205116
0.389294565643342
0.392233905532361
0.383049607991032
0.387232199248569
0.374564721631988
0.382383938973359
0.373091891727938
0.380497788508058
0.370121731710352
0.370731189897842
0.370268165703328
0.379736137606112
0.361980734232869
0.374144015259903
0.35872444204325
0.36340281460849
0.35879448574689
0.365596697660358
0.355984984995566
0.363738563369608
0.349428988495641
0.357200101546879
0.352210703787517
0.358511801730688
0.347972734258146
0.350721246802564
0.341705954044081
0.349829725387182
0.33694977052808
0.347759193467873
0.339098773972255
0.343281247563195
0.335333255106602
0.344773759947693
0.331751460153418
0.338794123968122
0.320558855564901
0.334498014206263
0.325153642614202
0.337784471012644
0.318481134737216
0.323981863171107
0.318455356247979
0.319273320954216
0.312947653905406
0.314416615178776
0.306822434478411
0.314880627915947
0.31110852763313
0.311163123833611
0.304586983113937
0.320194689275748
0.300587231456549
0.3074103533277
0.301923998084871
0.309843653895621
0.306632228048568
0.315773030001296
0.298535848540698
0.306437958127171
0.291487767977332
0.304368147055443
0.293871039090122
0.301104228784403
0.295663744203005
0.303966507444649
0.293985508778749
0.294677920697511
0.284513872268252
0.295060007790122
0.289617757253808
0.292765365097262
0.282292806827153
0.288935692302954
0.285621219421878
0.2896688851345
0.278849976125135
0.28416958802587
0.275626799130502
0.281875548562429
0.278288907315387
0.279277914336521
0.272426699211233
0.282622331075173
0.273312250870701
0.274734960518409
0.273472448697921
0.277862240178146
0.263619553568989
0.277512381510252
0.263191136641683
0.264398724086121
0.250773177944953
0.263802585646221
0.252487048373124
0.257567353695891
0.252791388365524
0.254668484276288
0.250268005873824
0.257822596729085
0.246556284888834
0.25390581611628
0.241238837500395
0.248052287874546
0.239761387253995
0.246077621797358
0.241810486278705
0.240932441689755
0.235566301436153
0.239664497722898
0.232007667709635
0.235960110722471
0.233661161967279
0.233067764541546
0.229942404717764
0.234148007148556
0.225650885893449
0.232857542017739
0.230397050315304
0.232944760030443
0.222610374698179
0.230105831911613
0.22922081955197
0.228613940005361
0.228259074298265
0.228310854631834
0.218415233755966
0.22526434267966
0.216729840064298
0.223194489691078
0.21714491934993
0.222623898695604
0.212115090851628
0.220136349910628
0.215457901728269
0.21928991309352
0.211354120228995
0.214685882697725
0.213070877990794
0.217542781663463
0.212458768829288
0.210007269577595
0.201987436530327
0.210923863240045
0.201788888729592
0.203998868360692
0.201671343687496
0.207929189396949
0.203175865747944
0.202706498060882
0.192493193678574
0.194670899966007
0.191847900694988
0.196836406203956
0.190768440462382
0.186137468073384
0.187692876044682
0.191393917505746
0.182824463716142
0.185886972785335
0.178160367368506
0.184096480574107
0.177397009579541
0.180892367757307
0.173475410642275
0.176314599915903
0.177136153583587
0.182683795907546
0.174537940542997
0.18017518401779
0.172758823016283
0.178342800862228
0.173259376220853
0.168428371617968
0.166484355228307
0.165794977104749
0.162641193321876
0.167132413662829
0.158015439372109
0.165571091799109
0.157964106114468
0.167735425574146
0.155836798571589
0.165496811345539
0.159915085458044
0.161743859162441
0.156075193412924
0.164034898408231
0.156405933452687
0.162395737981381
0.154978926546001
0.160038083712292
0.15364147510815
0.15813086000687
0.154381258597903
0.154219210765013
0.146567153736741
0.152345134886855
0.147742005320508
0.153935406426178
0.145517560034617
0.149931760742538
0.146743189413473
0.151761897491566
0.143085961170458
0.147672402845005
0.139461917259571
0.145790482390981
0.140687290975704
0.140543212371348
0.133294670434288
0.138376784023276
0.136569805700719
0.141074595610791
0.134541659766166
0.138950317340528
0.130461499278702
0.135518232781834
0.130308627538338
0.133220557864671
0.130996298159101
0.134613121132072
0.12810323936186
0.134331740206307
0.128749214392251
0.128680870666824
0.124642372551276
0.13019387075207
0.127459373845405
0.127854342396241
0.125748548462637
0.125825070010498
0.121227045059438
0.128323803290666
0.120102477475916
0.127320575661427
0.120966355194978
0.122659813326935
0.119334996688263
0.125914347397923
0.121348002579973
0.123022469400202
0.11979197512194
0.121015178519279
0.115029701381099
0.121354007886413
0.117440593808394
0.125740355985562
0.119777137522489
0.119970668945125
0.115905034863654
0.120271282344938
0.114545387613495
0.118681971882006
0.113096190857356
0.118384971435624
0.116551636974874
0.119715267740774
0.112398261313855
0.115210742500269
0.111373233546713
0.117731489655167
0.107440237676087
0.117858917961056
0.109894583572333
0.1165455102866
0.113939004484132
0.114040521426364
0.110928505682889
0.11295545042927
0.108368419079623
0.111136049051069
0.105685730723226
0.111786850101746
0.105789969257095
0.107785103834935
0.108400816334866
0.109274070899526
0.101238575598214
0.10591961873764
0.103037376981909
0.10605640471656
0.10038602974263
0.109313062474127
0.102425666410268
0.10709663767833
0.102537424009912
0.10427616227257
0.103938093739776
0.105729534799802
0.102332107736292
0.10833557668754
0.101328427891027
0.104371769605875
0.0995775048036221
0.10412386285377
0.0986108533813549
0.105799042256179
0.0979157899029868
0.103222257350597
0.103087758556474
0.106316737730496
0.0985023382324838
0.104434479239501
0.100240512351227
0.106081074851461
0.0978919570191945
0.0999060438991804
0.100492301316224
0.104138732044715
0.0968775576786513
0.105991108769686
0.0970513179243435
0.101299314082018
0.0929090941524774
0.0997472822984559
0.0967901590709669
0.101431867382583
0.0965774498036023
0.0993947505522042
0.0955340264086268
0.100196849642287
0.0951784104712217
0.101816104341432
0.0930053223172069
0.101503850045583
0.0917712031421577
0.0978077481182559
0.0916589713069537
0.0943410845819652
0.094874364074899
0.0955867230090975
0.0918984250052757
0.095507784725381
0.0904062875309502
0.0968455408163575
0.089508185699961
0.0923808834137655
0.0867748868095328
0.0921377932605941
0.0894937874020477
0.0935940915038896
0.0884205217253076
0.0930691295841471
0.0891104391525114
0.0913303444149178
0.0907151808262075
0.0943252483166787
0.0866909677141484
0.0937035103215353
0.0884973950700586
0.0910958447466901
0.0861028871352496
0.0895223805589555
0.0874217600344962
0.0919804936632643
0.0882313444153817
0.0923033547551814
0.0866195227149764
0.0912845508619032
0.0901965920254404
0.0891276559356688
0.0839684300280033
0.0880379540956176
0.0842155705910942
0.0897414913002533
0.0859036894940725
0.089990253700427
0.0844874571736514
0.0889827990814933
0.0869489131465743
0.0914239168784058
0.0824889302017114
0.0896893976269435
0.0860135966656219
0.0893762091738878
0.083471731257822
0.0891105685231449
0.0833505265335691
0.0865376158933413
0.0805889036974225
0.0900300985650319
0.0856308975333842
0.0871616356692631
0.0823625247653741
0.0879451827572278
0.0829711646493686
0.0842045784760049
0.0821561758685629
0.0871686445588983
0.0790540372536245
0.0828056238155427
0.0826843573066197
0.0848906320336483
0.0796372169220056
0.0842648849597646
0.0787736387157748
0.0840208723914782
0.0802749279674486
0.0805527771992943
0.0777835526183116
0.083691596121293
0.0803996595289745
0.0794161712967633
0.0773407700333057
0.0868586299166722
0.0776219541591796
0.0833828858635887
0.0770524013026127
0.0836379495474667
0.0795711211021629
0.0832495995614361
0.0783991115991616
0.0819498535440105
0.079335617046358
0.0813655677061013
0.0792999422629312
0.0826609423127791
0.0783858291396435
0.0813854285906176
0.0792664743720589
0.08443601205282
0.0780344242363098
0.0824898391355276
0.0779478622819126
0.0853087212233601
0.0775267185504005
0.0820074745156392
0.076246051187187
0.0829599744374047
0.0799042134038944
0.0817310338718081
0.0762595905970117
0.0816404982790412
0.0759116759621671
0.0816226012747679
0.076668669462121
0.0801617426185024
0.0772173094654667
0.0805362420322534
0.0774666589631238
0.0827429826761198
0.0773078938726448
0.0811845980876858
0.0759051563949706
0.084519317095144
0.0793388836488668
0.0820827669269219
0.0775916515418291
0.078338980776552
0.075421663945795
0.079154443885973
0.0777276900580901
0.0828611048212388
0.0761977245882898
0.0777123860419745
0.0732939066878239
0.0800239803868642
0.0757075964319835
0.0779635044847683
0.0777759298154657
0.0817546485614511
0.0770847506184433
0.0772119310639141
0.0748860655001558
0.0781976778913407
0.0760196408752919
0.079771527664628
0.0785041672631514
0.0794195092410064
0.0748037106653352
0.0787363003456484
0.0729125192368451
0.0797259102484816
0.0738977739952885
0.0791776893793209
0.0763743215437712
0.0776581127376616
0.0750373203527227
0.0821908603087754
0.073888694773258
0.0794593932652335
0.0785937122638509
0.0802967220388611
0.0780338684146008
0.0801353263834267
0.0741874189462951
0.0805230562517633
0.0786066395046547
0.0811056709766173
0.0779658582909182
0.079695570981038
0.0762939515515225
0.0812916668528176
0.0773233970918185
0.081799967428923
0.0767698443390434
0.0781576796564821
0.0777943557759693
0.0799179562677586
0.0761490783853056
0.0797589654985617
0.0767798828282262
0.0796528704426478
0.0755305529788462
0.080842371408586
0.0782706652599997
0.0807732137383593
0.0785576652240199
0.0787531302744657
0.0754576845582901
0.0806355615312155
0.0734312788441919
0.0787282663593457
0.0761166405147302
0.0822118979928895
0.0733365663487092
0.0796549086050156
0.0750180933569552
0.0793997271266792
0.0769296762596897
0.0796746945514665
0.0763342008538742
0.0789253420220956
0.0749728835101519
0.0798958404784393
0.0750578856755172
0.0794444478302708
0.0768074023876026
0.0786343280654574
0.0772974581783563
0.0815981173047981
0.0780998036745078
0.0780905343108216
0.0762145043003698
0.0794542537593903
0.0742561957796476
0.0828516230690929
0.0772461387781369
0.0810424884874887
0.0779394877437081
0.0818563772926985
0.0758562411108107
0.0825733192748709
0.0795655224585742
0.0788426967179872
0.0770020110307933
0.0834032453864822
0.0767080356145972
0.0822150166690175
0.0779336799220357
0.0808357068905479
0.0771094547909008
0.0815691922480253
0.0770776686674707
0.0827683833264572
0.0803134417810919
0.0844942096375014
0.0764656051671434
0.0822406844206111
0.0802872554363341
0.0810067325473601
0.0772406036349047
0.0825806974133212
0.0787083269003101
0.0836665957151528
0.0780084989418449
0.0818549912749735
0.0760794204806598
0.0813511150233224
0.077061363324582
0.0819850195810824
0.0799922663005817
0.0813265971646625
0.078446963330647
0.0819009433138551
0.0799515915300937
0.0826331085687587
0.0778296847559536
0.0845592990206689
0.0771215798399111
0.083388776484927
0.0794469523578634
0.0804886047694553
0.0761815659592649
0.0839891618994024
0.0782658304980576
0.0839709731428515
0.080047810241839
0.0829466887120539
0.0769151468989533
0.0809149741824732
0.0798886491853643
0.0842201634225542
0.0786131940209641
0.0843707085690057
0.0769143510550481
0.0805467333039781
0.0794151743382332
0.0829313282778479
0.0797532197152256
0.0865364197827168
0.0802277521715127
0.0818036733915482
0.0790077067937187
0.0820561587548634
0.0795341750466238
0.0830055312808032
0.0790659472525881
0.0852618719207794
0.0802397949987424
0.0831008411989653
0.0813096001980956
0.086044810828453
0.0777215551069087
0.0830485674549209
0.0793132360844058
0.0845264151928657
0.0799128116140383
0.0863428306561283
0.0804190037492113
0.0860885194213672
0.0820672494947496
0.0862986360413516
0.0821945377750343
0.0835299277789137
0.0809896404934617
0.0853698730133444
0.0787214327963062
0.0852805518028392
0.0807949925543744
0.0871156795744219
0.0798411252614317
0.0862927242496572
0.0803962380975569
0.085318097211466
0.0800526485306657
0.0869418059110195
0.0819404897115056
0.0860480949676536
0.0826649072991251
0.0890186184543824
0.0807636104625083
0.085274882680433
0.082649657760003
0.0865535003323458
0.0797941847283599
0.0843647023157908
0.0785394194476301
0.0862234271002143
0.0837176656823375
0.0850569325695954
0.0809716360030961
0.0877620619166762
0.0834273492325468
0.0893872084572215
0.0821697332081993
0.0882409351678262
0.0835588502560393
0.0880880047814031
0.0830971871487392
0.088736273604515
0.0865721980024507
0.0872511133811981
0.0829644078942954
0.0893805334092477
0.0843787542757693
0.0930447496479989
0.0872188470588074
0.0900913343801759
0.0866927323105337
0.0929728583416751
0.0873309134353731
0.0933184388869348
0.0891080548825205
0.0932933761710903
0.0896340790217363
0.0938697198977569
0.0819169976920217
0.0897387086738968
0.0777169411510676
0.093769490049382
0.0832867413116259
0.0973776183988744
0.0853341725420182
0.0870339157719967
0.0867316593631867
0.0956176895350819
0.0767515246130598
0.096245847333137
0.0823049648506078
0.0922614225535126
0.0844067799193338
0.0891589042686867
0.0802323802991062
0.0973489250305642
0.0826945345341453
0.102159764659052
0.0802043270593582
0.0991846928175053
0.0859189681133136
0.0968454373012395
0.0833691756069685
0.100687416494093
0.084328734157867
0.0978995079252925
0.0804461705318319
0.099285220262922
0.0768293823661261
0.102561638468225
0.0803645771481281
0.103704716893288
0.0792435264030957
0.105626241288691
0.0785871600247299
0.101328553461447
0.0771890176843146
0.100333746255323
0.0727210663925996
0.104729043874912
0.0811355639933128
0.115379930534797
0.0781042879240507
0.111835263606109
0.0740596593604611
0.109876162836905
0.0813473495921194
0.115115935798429
0.0804580791032108
0.103138079111054
0.0897563595345704
0.107699003436462
0.0915937457006905
0.0976652323318489
0.107620553994081
0.090627950804935
0.105174153962077
0.0884819579583399
0.115025574271274
0.0810045953590954
0.116122066772556
0.084646280011001
0.107721420040774
0.0916597296991057
0.106856653154309
0.0967062685345931
0.100967681627457
0.0988520477083287
0.0962461707904223
0.101197534838923
0.0959742030540224
0.0991102431769332
0.100523234711739
0.0984328907278875
0.100394729448979
0.0967188649628407
0.102780578438295
0.0946257971406698
0.100902943078575
0.0989623173806406
0.101533934220041
0.100383523754963
0.100426993249774
0.101930095710275
0.101720183881366
0.100345245450849
0.101236082529663
0.0979232715868216
0.102158110872755
0.102361320647152
0.102534263923152
0.0997481607820757
0.101493736340746
0.102687826282347
0.101952482936529
0.10251571079704
0.103257819123993
0.102350624833667
0.103030094997756
0.104548999399244
0.101088674482078
0.105303500306654
0.104062738591582
0.10389546286491
0.102692674685915
0.104614404921059
0.104532646168295
0.104879868821492
0.105589246684266
0.106179120201301
0.105606485478624
0.107174221763105
0.104997265820735
0.106178609381068
0.10761258152776
0.10866107001456
0.105250790227273
0.107948857807281
0.106249950194021
0.107932808893201
0.108813502933121
0.109468519948839
0.10913350412617
0.10911291891977
0.107585790345552
0.109030641284984
0.110614123547428
0.108657832583875
0.109787682432705
0.111445571325406
0.108295789495309
0.108716005046952
0.110267729177086
0.109909183589099
0.109909800312488
0.112019717983232
0.109168265263253
0.111675494485702
0.110989052388428
0.111102647285228
0.113420453662923
0.114789127236475
0.112343824780351
0.113867081467254
0.113627648851689
0.114338406121931
0.114178332808577
0.114670711566616
0.112429751863172
0.113554167677119
0.11603470048363
0.113899599599252
0.113920217111094
0.116810556194561
0.11328438840434
0.114917488217979
0.115359405463168
0.117405377918797
0.116522694169726
0.117424427003011
0.117786717564185
0.118364215371608
0.116453432836391
0.120796540921256
0.119850676723665
0.120274741112332
0.117928857140943
0.119693662249166
0.118462624327937
0.11978782304198
0.118419924301451
0.120351934574752
0.121039926857703
0.120705459218716
0.121287066467132
0.124016181035651
0.121445804744074
0.123091199644219
0.120174227624282
0.121368095638236
0.121210418237934
0.12751451542815
0.122520636342606
0.123485819238474
0.122353365157427
0.124587259168135
0.122990178522256
0.124214556343475
0.125483881274182
0.126795652640667
0.123975649782873
0.123609534467422
0.12587940677516
0.126507137948342
0.122321002208585
0.124862210187026
0.124158146143749
0.127332607229408
0.125549472179356
0.126901739387091
0.125068095462329
0.12733489598713
0.125397454105877
0.126625542798098
0.12279320497505
0.126071736160196
0.124221210406487
0.128813341488801
0.129696946404267
0.129846146477817
0.12959661852386
0.130600431515185
0.127875017311529
0.130376217124154
0.126777041520284
0.129725104932308
0.12777939127296
0.128424365129997
0.129481175201083
0.130768325227244
0.130141480716288
0.131655841043462
0.128874304847395
0.131071476119229
0.129400503830155
0.132553357220298
0.130364309812161
0.128831278416354
0.130353490347377
0.133567735733372
0.129845026654829
0.133100670486932
0.131558446813197
0.133202016197768
0.133349335177116
0.134147940820439
0.131125647962116
0.134338777853146
0.131726552230479
0.13293566721257
0.129617682439629
0.133743381468371
0.131243262720142
0.131908833463849
0.13024574427776
0.132599820261923
0.132026885213851
0.134917975892816
0.13492090308726
0.133927495585508
0.132149750770969
0.134761821541959
0.131555932638813
0.133936307375523
0.133359735249453
0.134822512048984
0.131667610625885
0.134435875824763
0.132651609735829
0.134079807134432
0.133200020903262
0.136633490325597
0.13174170749423
0.133066314357846
0.131319839015784
0.132711965450247
0.132521530473807
0.133516568914691
0.130917092629834
0.134360558428181
0.131741998937834
0.133021915007501
0.132258851201102
0.133382715586613
0.134016224831983
0.135152984802204
0.132478701489332
0.134741808679605
0.13220631953606
0.132987111801804
0.131756602307037
0.132230441455393
0.131338974443868
0.134722371439452
0.134153084336805
0.133646126146543
0.132080605503658
0.131515831035589
0.130182720170176
0.134194895462676
0.133050525036099
0.133645485852691
0.130699606687056
0.133659946964524
0.132657051876869
0.134793573520191
0.132455010299317
0.13234676158341
0.132656484905805
0.13630654070405
0.132266857928955
0.130385102251435
0.129308955711419
0.131559751757422
0.131266043786078
0.133002232114288
0.127756407263102
0.130736273583342
0.130111702086057
0.130521055622059
0.127191352155858
0.132094118706877
0.132516402663513
0.131106070550223
0.130862552805334
0.131188400425268
0.126631094526823
0.12896825168765
0.127658649747256
0.128943056393067
0.12706126920662
0.129486505157853
0.126957921949797
0.129747578671749
0.127807585194537
0.128574291661884
0.127745660090159
0.129999116324498
0.126014598301562
0.12607958512754
0.125259453940668
0.12763155613807
0.123467357702041
0.126188876013169
0.124279268592751
0.125735634293718
0.124990109278242
0.126561284512771
0.123190918293305
0.12545914570427
0.123278599617425
0.124131833383491
0.123865902235403
0.123827420689345
0.123858686086885
0.122403358258401
0.121758940105706
0.125038893693554
0.122400464710147
0.123862582926241
0.120255875094578
0.123448591614102
0.122121629468958
0.121643364622071
0.120692210479158
0.119309785038409
0.120615528730151
0.119049337781545
0.120059253414204
0.121801577520356
0.118315644754144
0.119784589635501
0.118169355775976
0.119813435623476
0.117314926288967
0.119522493385785
0.11642474557418
0.117814530749438
0.114784020047317
0.11776941318345
0.11421246605827
0.116197856259788
0.114481881834463
0.113327538436464
0.116130567986188
0.116455084458824
0.113101257580114
0.11430243838045
0.115660659950053
0.115525645606743
0.111641238260442
0.111441098760243
0.1105763036031
0.113198420772646
0.109734846332664
0.111574725310747
0.110498519001998
0.110895203963284
0.109509487258474
0.111599075369691
0.107293285535647
0.109658912667153
0.109377486413293
0.111131086352904
0.108386221144458
0.107141158733497
0.107805731782672
0.109248609510228
0.104853703181878
0.106512443889655
0.106043038002807
0.108094940884144
0.10511548277877
0.105054596185474
0.106602025025411
0.117302786658467
0.106849436312997
0.105580020277313
0.105497859899338
0.108366007232971
0.104944456963734
0.10453040775982
0.102827415080267
0.104208381608889
0.103294122978342
0.103087155006231
0.103320902527062
0.104038603475269
0.0983864873060453
0.102311634243631
0.102378594645798
0.104510540198599
0.10242268904752
0.101928918912572
0.0991760392509742
0.1030397386025
0.0994524826666305
0.0998308664504791
0.0992323259583058
0.0999067536187115
0.0987204499306939
0.104044033513091
0.101157830018047
0.101407041740625
0.0975814849379564
0.0979372921019796
0.0981847405054465
0.097011015864392
0.0979340035928581
0.0958861606072724
0.095084060578171
0.0970604386735961
0.0947652660785184
0.0958184419200948
0.0943509104254001
0.0950728277320444
0.0917822053326863
0.0944049412546387
0.0935583621053688
0.0945093475220568
0.093859643514685
0.0931985732729647
0.0936937612508906
0.0958795277065025
0.0934572112136515
0.096125513043124
0.0900141766185167
0.0931695955035057
0.104639385815743
0.0971997455286832
0.093021194857394
0.0938213633705585
0.0895255234058115
0.0907569735832648
0.092300950234478
0.0912043526302073
0.0900858731134377
0.0924724779099802
0.0905754348145034
0.0903093418712861
0.0911760682089667
0.093532269784619
0.0891869780592494
0.0920895618212537
0.0910270189377708
0.0919501641787807
0.0918131743096556
0.0910139319394798
0.0881504158360908
0.100535946508874
0.095534837791851
0.0903362365883283
0.0903855634394913
0.0866518552161104
0.102009588862061
0.10195021428416
0.087849986049352
0.0931712934696418
0.088709217380552
0.0912860786149321
0.0897590208365051
0.0870635620859652
0.0859579424673764
0.0933438731990867
0.0864425087141663
0.0933561309477145
0.0874672401099167
0.0875859985349543
0.0878938778728701
0.0868337244861959
0.0860177298944917
0.0862102106655326
0.086531293435383
0.0871865976847585
0.0859094914395866
0.086122555652621
0.0850887108405797
0.0865533785822986
0.0881676223854461
0.0916346209104526
0.0849932425776455
0.0875473527383159
0.0859774874782744
0.0847283081750946
0.0905092218281178
0.0988447680964626
0.0861627948680778
0.0858727755491181
0.0844203778165316
0.0858644188629442
0.0868769644552494
0.0860608198190446
0.0853991722395357
0.0846415754703824
0.0828735963405614
0.0849213052013269
0.0856602691726035
0.0858183964872231
0.0827158440169585
0.0856792339547936
0.0847962461884653
0.0868705378743669
0.0849846545465367
0.0852824612983012
0.08495134502632
0.0853015140130766
0.0943074207815312
0.102804691508434
0.0918421220658068
0.0973433458108152
0.0880033058584316
0.0870908477073697
0.0859772146701013
0.0880253918627499
0.083297359525393
0.0872407892409685
0.0830085933009206
0.0870385678487614
0.0858180277051368
0.0865588196300742
0.0835890505423936
0.0852391314301469
0.0835965098177122
0.08445042261786
0.0850652977664628
0.0879047725332995
0.0846405105387088
0.0842800548303828
0.0851528750324608
0.0864112463584897
0.0920502894989385
0.0883573634769517
0.0818578833908669
0.101065031716884
0.107213330017434
0.0882351746540396
0.0896267029132743
0.0865033312334541
0.0846433723050918
0.0847235380042076
0.0853950869176164
0.0910141523991309
0.0873700816727106
0.0880394264070162
0.0870334576469327
0.0905682994324817
0.085931611790922
0.0823835733017566
0.0920386895272021
0.109940784146484
0.0939339518858259
0.0899784633974963
0.0877164102664316
0.0899474214320751
0.108236954530855
0.0959153896450796
0.0877905212875665
0.0940813917077677
0.0882510021299535
0.0909805512874524
0.0859201863974951
0.0910020226961836
0.0951848752808783
0.0951908328873617
0.0904222555819214
0.0900230635547833
0.0897131583877955
0.093344800659565
0.0915094962414597
0.0968896949132814
0.0989505242843211
0.0960622213138221
0.0918734763812066
0.096139597145484
0.0925677210826527
0.0937886355264567
0.0926401610890824
0.0941480170047029
0.0968606000372167
0.100350714262789
0.0964978217230699
0.106541479458225
0.102893613485711
0.0943112352862601
0.09643336086943
0.103141472482231
0.101419959025059
0.0955102705150233
0.0951028301982512
0.118244482174732
0.110765177730116
0.110505432173381
0.103361741026326
0.0996749311712352
0.100691962541746
0.0945805656155151
0.0966875028852757
0.106086991654863
0.111097255047886
0.0985322366815206
0.102686575507074
0.103300213719994
0.113694110629045
0.106576369775975
0.106042458448071
0.103785068328677
0.105009776750447
0.112449902721096
0.110381227898451
0.102023608921585
0.127889931879874
0.131914118225391
0.124825600242222
0.119354600863111
0.108897708537934
0.131020827452691
0.120147005297494
0.11572946069187
0.117017816442113
0.112141392792293
0.111979077286837
0.115520877451341
0.143257273131418
0.131056835195462
0.117547963350092
0.122421848866516
0.119397172710969
0.141352242392972
0.13705888721262
0.124517497960233
0.130390609528879
0.12687707301781
0.125865793887441
0.14909032436432
0.153914037160456
0.133213654444576
0.153236125957869
0.148597792830122
0.145922669793412
0.147247636995493
0.140037440914649
0.149552319087537
0.159361743418516
0.147689573166035
0.137520589865246
0.15699957292179
0.168659682292259
0.155595964109532
0.15197614862621
0.15448312902425
0.144355180555702
0.174466460952794
0.208629343270794
0.1904221593726
0.16473167055449
0.166177580339377
0.185782972955074
0.179408581753265
0.169368720029769
0.175051791702882
0.174307953594162
0.179937721708499
0.182844987919281
0.193305528321424
0.189466678520721
0.189972081740324
0.190614898441777
0.188950319121193
0.207173129111211
0.249905057307554
0.232543469624293
0.220543873415967
0.223422423302012
0.237191415722342
0.220804711134464
0.227094133954793
0.225257656729458
0.237670821172441
0.241082250766493
0.23818619126501
0.237060589709505
0.259308486097567
0.263611123387958
0.269167223775311
0.278495281564315
0.272366392100078
0.257524788889437
0.280068339113769
0.37097129022496
0.332668899035782
0.292396292256253
0.303003952703942
0.299271750064165
0.369551892356915
0.330697067847812
0.319513680180886
0.326725501046522
0.327662599212715
0.338064177996041
0.351726861559089
0.352679923636382
0.370020420850258
0.364054248309114
0.363833328661943
0.367374933487805
0.445930971910313
0.442182245735758
0.418531768693551
0.398467867608923
0.414317772159588
0.42318278396034
0.425244556632843
0.429757032576572
0.427818909323501
0.446764862524341
0.494248405505782
0.471268190932789
0.458497279224596
0.481039344142982
0.4837867085339
0.490971984170096
0.504263465316374
0.542170009061973
0.505330562503848
0.514265922874174
0.518682787435043
0.528060931552067
0.530236828622188
0.564890346064991
0.565749538309804
0.545689139767126
0.55521927655934
0.558566684835179
0.574868790811923
0.581912591109456
0.590645157245803
0.599369229673264
0.615124734254778
0.64962977064039
0.736362122341238
0.677333341210521
0.626222439691221
0.627007015556594
0.624804047800719
0.653792476448947
0.673650564939473
0.669994290957184
0.696660281335879
0.655667179270554
0.652591519127385
0.660792400887677
0.652979187112956
0.666519175618737
0.668986788385485
0.671748802011699
0.673882718328278
0.674063945535222
0.678049925329135
0.75442647088052
0.689544189699288
0.658882927520592
0.669119860947498
0.654465235166913
0.653822594012197
0.647816573365718
0.661736857034341
0.661637691092853
0.65972938576215
0.635576893218055
0.628484510366658
0.638570947858037
0.661307037974518
0.619661435828909
0.614824899859505
0.614436943474996
0.591976793039186
0.578504925717665
0.587070943328614
0.614216851697603
0.584783464606231
0.553223508865051
0.556751287196394
0.5425578672527
0.542455220512438
0.523472519523152
0.535677835650897
0.527386297417983
0.513169547640997
0.508390982200633
0.506738436187963
0.486585046609486
0.489345422217787
0.47988813632307
0.471600964272267
0.461404981724218
0.464250037700886
0.45081247620458
0.448109295624696
0.439495565297459
0.440041921925176
0.431873703049782
0.425475926438796
0.425333058626263
0.423612953603168
0.409670747844013
0.406817418377066
0.402324268588914
0.402387383651719
0.388341667394881
0.391124359386396
0.381572845262466
0.383270726449277
0.375055130051611
0.367742202758659
0.370423990728125
0.369481744431025
0.362044805146485
0.35963969665764
0.358558467198038
0.349143850907579
0.350950201748061
0.381762122803547
0.3781870702363
0.344376032336596
0.335703816486162
0.338981176776682
0.329462418078796
0.334633959615709
0.350701732214977
0.36299037904859
0.327901591330317
0.325530338043294
0.314686057289074
0.326763240867124
0.323671644218093
0.321113582040863
0.306846984325907
0.316829185937597
0.315390426323911
0.386826882725383
0.352958369624735
0.378506016485699
0.33015245314942
0.29337859156131
0.313978303663124
0.330326235566707
0.309096105160023
0.285252936855051
0.300530268476448
0.30490974926483
0.301970397941276
0.288161938545652
0.285859466299401
0.282031472240634
0.291121739822828
0.308793658969584
0.289340507293211
0.298352663577572
0.309708620031461
0.293232899381792
0.298511640648594
0.349967244316913
0.304422328956069
0.27916742584901
0.26983584391647
0.267678664250223
0.281476634334668
0.294218675846634
0.284957579167903
0.277090532769588
0.268055326339445
0.257838625548949
0.26385575285416
0.28659025313199
0.268239968417357
0.278485828550039
0.275440156265798
0.272640958532437
0.24866985201131
0.288314047513177
0.289054414724155
0.30718546672315
0.26052536863209
0.249152794055696
0.27033643480949
0.288751880927235
0.268197747243795
0.261080462948716
0.251204000472661
0.256547006501644
0.266622066342091
0.256882770493818
0.254147703210528
0.261336631431777
0.265600394767979
0.282275226539146
0.306019702911183
0.285494509898953
0.254068757587209
0.241850573771559
0.236729545865811
0.248075093494688
0.235235792452151
0.239979615295236
0.241096440466368
0.250882648817146
0.244620266203556
0.264690891904424
0.257345123981067
0.232654442219292
0.237882801115526
0.234124908673069
0.238450827317461
0.265032386281235
0.265382329439594
0.249699808399313
0.238246447947766
0.245290856030835
0.245537584730892
0.237099901151332
0.242723133039188
0.231910826526766
0.239670658634352
0.239672033723431
0.244396843315419
0.243171365889714
0.245186342428897
0.239003194301072
0.261448624944495
0.25627837263744
0.255896550033342
0.236891198160135
0.284953469359403
0.27136385452413
0.268427560041066
0.247753296053747
0.248297943726865
0.250232506861676
0.246748094858365
0.243896801984878
0.260798106121618
0.262891110210931
0.265263093923679
0.245266467295145
0.259405301936407
0.243679914787286
0.264544638475148
0.259050024837833
0.28164297481376
0.285171032230959
0.305529168382235
0.276282107183834
0.260433397080378
0.260427169973548
0.253981851744362
0.261003235159839
0.255444710264153
0.249058378696172
0.255414382148324
0.270246910936268
0.263590996461022
0.247777554639026
0.255702915357137
0.252030798850887
0.252134868077964
0.254133105206951
0.251994501829428
0.254104141308916
0.259576493985893
0.251211806372149
0.26773357990573
0.285148134300716
0.287782614621749
0.254605146535195
0.260501158313726
0.260714585303975
0.261664691715278
0.261101019753828
0.269119067832457
0.270420053883009
0.260215554834157
0.258410338570403
0.265521136791113
0.256640073586529
0.278981914115867
0.270300524374591
0.274628694691171
0.255759076155654
0.267311587858344
0.268641200704299
0.299808026404072
0.282557446762887
0.267464997244119
0.277939631371808
0.25694754075085
0.267593921908186
0.26068401646096
0.268343884616664
0.264460589252309
0.267177548588618
0.262949336713488
0.263610642638821
0.261745764490278
0.258437107903274
0.264416133274994
0.269748082177679
0.265625970240776
0.256341178992508
0.263000746424014
0.25814135794803
0.262963595961036
0.271253031348503
0.28178844049293
0.269077488345571
0.260849446721282
0.268746738420607
0.277968172941327
0.276310505786111
0.260704625450077
0.256725186485631
0.260491620347508
0.259502292143425
0.256749776132925
0.258785224298907
0.26722365581675
0.272888629984305
0.255910443438712
0.264354447840676
0.258605844318273
0.264409003928899
0.260690988624276
0.268307088768013
0.261618938923381
0.268173330531129
0.267617403027035
0.269510355231284
0.265385404932828
0.274204521628754
0.271900213115757
0.27841470580291
0.273917998706419
0.266455991484271
0.262407106530839
0.266386310465884
0.269287809993738
0.267502886793732
0.259743944608301
0.264317765135195
0.255429117013208
0.271857493158615
0.272330196379283
0.275334381534181
0.260839081843957
0.270631678203363
0.253212941969651
0.259206478947977
0.255824573340815
0.257348640362784
0.259270951411309
0.257297882994715
0.254082318442809
0.253513766056684
0.253807788479351
0.255800048834616
0.253227204401144
0.254088367385116
0.252926606905776
0.254981003199989
0.253290751927225
0.25651110797208
0.249880478845717
0.255423503836746
0.247855810133379
0.255712299091633
0.256554379125807
0.265054063775138
0.258522330150035
0.257268525313786
0.255983363079222
0.252806772750048
0.254121236136791
0.251054328957902
0.251179882411989
0.250298209185038
0.250506723598183
0.246827535056189
0.246388385421411
0.246523156115593
0.248296781065986
0.248293854513473
0.248878129659086
0.247890723815811
0.248170047293374
0.245225645212617
0.249233547447257
0.246193486825972
0.249639641523203
0.252905155836961
0.250067865948222
0.248067802449753
0.249856389987667
0.250654596828278
0.250267833873373
0.251066013861139
0.248545727133362
0.24946188037682
0.243407723810209
0.247050589404688
0.246950638407535
0.247769567730761
0.246632828530979
0.24582570325098
0.245843772412988
0.244771344704833
0.242909367733395
0.246024032504906
0.242567982816161
0.241192326689637
0.24108323653478
0.238710736066317
0.241779968613539
0.239632533069559
0.238571645138194
0.239512096957203
0.239547407660463
0.238740074346146
0.237685175432379
0.23675292748094
0.237509638345338
0.237693715539767
0.238188368920894
0.236581728935226
0.234637450589902
0.23799091256987
0.235682717977499
0.235578402169058
0.232842867423605
0.236422616514735
0.236234781024942
0.234633625636446
0.234633654796865
0.237624395407093
0.236368197826282
0.236743459877615
0.23493954687501
0.237181367786195
0.236407062238063
0.238880892684146
0.240402960939556
0.239684094433729
0.238043102762239
0.238003617780341
0.237915818533352
0.238231755123104
0.237669857665558
0.239553574997186
0.238277931060701
0.24128125841134
0.237923921140763
0.237022549970161
0.239647795514661
0.240750979328226
0.237724073772094
0.238671739162027
0.236832825636594
0.23832252305955
0.236851971975221
0.239672074677722
0.239822845460099
0.238395059724688
0.237356427124436
0.239794934870684
0.236385569446531
0.235433463672022
0.236776551981943
0.236809009797712
0.236592436076848
0.236081234682493
0.234679127000576
0.234322651888641
0.235336593451036
0.235238444649425
0.23467316369847
0.233662654009917
0.233214440377271
0.234787236503942
0.232383784851918
0.234356713319387
0.232886723934777
0.233790254542434
0.233496315222092
0.231187165160356
0.229867414146557
0.232535039391423
0.229549838166647
0.230029476442689
0.230624760779992
0.231219210666487
0.231963475096276
0.229999785973833
0.228037332521526
0.228075586176847
0.229216701001004
0.22806335375896
0.226471496789462
0.23007103084809
0.227281267338593
0.227400903992861
0.226697765980861
0.228623690416141
0.22605552114796
0.226681594199395
0.224901073914582
0.223846880861038
0.223400128010114
0.224425800862228
0.224259141064027
0.22316684760225
0.224694112614183
0.224822814805236
0.224329839759584
0.222775175552284
0.221600103574233
0.224116537582662
0.225460291332399
0.224176951019933
0.221649899028904
0.221847813823953
0.221390007967486
0.21945007450819
0.219668471215571
0.219256938973024
0.218155103452391
0.219281618092744
0.218066631693703
0.217069180845225
0.216972169217258
0.216182716620844
0.216605191340374
0.217247639196409
0.216418137676414
0.21672772309404
0.218758143325008
0.218292309755635
0.218000313023674
0.218934472163328
0.220129702486824
0.22170298409568
0.223093973932748
0.224834805820516
0.227908963497844
0.227710712539099
0.230985873438434
0.235698117185009
0.237961136028823
0.239050945599405
0.242497985086302
0.246629530826311
0.247268304159158
0.250460972517269
0.256131049587239
0.25896394863713
0.26179677252114
0.265498820017586
0.266832637433903
0.270594009066052
0.274133310287785
0.276954387549766
0.276675841952429
0.281045619320075
0.284079002126137
0.286174501804127
0.284197622741486
0.28470526236606
0.286784792780155
0.287183524375148
0.290526926679442
0.288976986248408
0.286229549512957
0.286321049093113
0.284790224409054
0.285791144342818
0.283300663748049
0.284789524392506
0.284950579363804
0.282389848997549
0.282097484128111
0.284337843568033
0.281615484392525
0.28123596038285
0.282379911037839
0.284017622729974
0.282827689783971
0.283059904801217
0.285292400697726
0.28639127545889
0.287442307225935
0.289042606747275
0.288079136683642
0.289222759716237
0.292860397231077
0.296200296099705
0.297637370477822
0.297972946909788
0.300063496099056
0.304243988946622
0.308340899024035
0.31129464781411
0.314945221577299
0.317448324686492
0.316808271429873
0.319113147561952
0.318517025527507
0.321003310938225
0.322703356013955
0.322039083133406
0.321964470700403
0.318634975977632
0.317324949562551
0.31968785721244
0.316357806599763
0.316035317901546
0.315213318242619
0.3154434236652
0.314685809072322
0.314383292207591
0.317311631623887
0.317679835958109
0.321733198324147
0.322905733564485
0.324428465915508
0.327698847426694
0.330852359930351
0.336202268233891
0.335938241740677
0.33866182953012
0.342794885598855
0.346652604676847
0.348524431532215
0.353057500610002
0.3559499830768
0.357301183423028
0.361143525493306
0.362037660611912
0.36595922801808
0.370559132456909
0.372342495347072
0.380682166558634
0.38284049365069
0.391083962792854
0.393473698836704
0.398902835932113
0.405313327345526
0.408637764225262
0.413771111157681
0.41967559336892
0.419589989735329
0.425670628784686
0.427910891818561
0.426387260591868
0.42963615901578
0.437444038409586
0.4384695558954
0.440366734038305
0.436068926874139
0.435313545391663
0.435500338442024
0.432846397844924
0.432975449072766
0.435657144082894
0.429456669412005
0.428021325092971
0.431527378546383
0.434247280533293
0.434434004592476
0.432077231048461
0.432568855508875
0.435884274043774
0.442916092718297
0.443096133433707
0.441701118839197
0.444612801029675
0.441916276669211
0.446991464897813
0.447489181891091
0.454742547905189
0.451950754446936
0.449032118243894
0.452795186001859
0.453904581010974
0.45396890701047
0.450248839676215
0.446504344989531
0.444522917067029
0.448751455007266
0.446026892594017
0.44039252398498
0.439617692490258
0.43708524850849
0.441796886997438
0.441589861930101
0.439948303229586
0.440445687229845
0.505725616834814
0.538572264433287
0.494606695227954
0.464651294005065
0.449143167000722
0.444639802265186
0.442011269323072
0.439332462396477
0.43578829816594
0.433069476074133
0.43403282431921
0.432276385095762
0.433093803696881
0.437556332352695
0.434485313347673
0.43232794628619
0.427647624180875
0.423677493267982
0.420801518910827
0.416288370761973
0.4122274668569
0.403172542696554
0.398049860969637
0.389255883338344
0.379652283330044
0.371551225471509
0.374216228517154
0.368464290450838
0.364153821067418
0.356923094325356
0.356249114062258
0.345921639918399
0.348374047114545
0.342508723341318
0.344338326557587
0.339090370564883
0.345758251007406
0.341193404527984
0.344302758100276
0.33922681045322
0.344377582149159
0.33306473343728
0.338523834580046
0.335247908747629
0.331061930069281
0.332255415854797
0.328498548842905
0.327840857854236
0.321186132976571
0.318065443264967
0.315849896156135
0.313121638635987
0.311074995242314
0.307923265739096
0.30795420504795
0.303160357896815
0.298766752782754
0.29423998421285
0.296923187213732
0.288602160016676
0.286064862430185
0.282487154287313
0.283420952209235
0.28197249523731
0.278403900304369
0.280407114239174
0.279225413399783
0.276746322641049
0.277369134095465
0.274289605375226
0.2772669021713
0.276515111351403
0.275011488239947
0.2726954526662
0.27339448714918
0.273434833716179
0.273027515600963
0.274083372011008
0.276102171455527
0.274678110278583
0.277641709160246
0.280613253584038
0.278047933272702
0.277616301041051
0.281226630844313
0.281400307261101
0.282185621462869
0.280654268851931
0.285325578304705
0.287007162197926
0.289591666982056
0.287191308232128
0.287893334722599
0.293059087627913
0.297438244745649
0.295130467576203
0.295081714548658
0.291170065327686
0.295820188790414
0.299399807160585
0.296082920988688
0.301566316344618
0.304213481862189
0.303760817536624
0.30532355050961
0.308690139694635
0.309142612704671
0.307666618190153
0.311481046034954
0.312563949532012
0.315456796137066
0.316466132737358
0.321519958181204
0.318711829054198
0.317788570284886
0.324792193926809
0.326728002114791
0.32677794802264
0.327467775207377
0.326404781618716
0.334999596099668
0.33785873996178
0.340607134910779
0.333330758857766
0.343322881644627
0.341287688368102
0.340626785547386
0.346383991922552
0.350688280811726
0.353756067251105
0.347832465603484
0.350353857879021
0.354561218598938
0.355487698356677
0.366369324831515
0.359829729689412
0.371751981870303
0.374236290545233
0.373747794785083
0.372195140970694
0.376527616155733
0.376824555558429
0.384286031816328
0.385499969944615
0.393468522341493
0.396259514128753
0.398809668707584
0.401948469395707
0.40933003984787
0.411659709354678
0.412464411664116
0.404807522280834
0.415534262228851
0.411984018722751
0.417035676304096
0.421943097725516
0.426292721861627
0.430332365897212
0.427753749610611
0.426640020006199
0.437621854120252
0.429126221751135
0.434248807832971
0.43541169911326
0.451127735208257
0.444561407486328
0.440721410505584
0.449754010526442
0.459034401007065
0.450994392441151
0.464668050569549
0.464006563382109
0.457440807810812
0.461876061876697
0.473465074028632
0.468601921785448
0.469440326867301
0.480392505624994
0.479530092591496
0.486277265456155
0.491037794475448
0.49193717315259
0.492776063094209
0.499017190763841
0.501683246290214
0.506679195929588
0.514546706531939
0.511832587027216
0.519270015751862
0.505469650201183
0.519049896679217
0.515893468597888
0.513444311716746
0.516521557516579
0.535485745334361
0.532770568756713
0.533023190858707
0.541734023206321
0.540892599905255
0.533933803016279
0.560964584614618
0.551730612907642
0.556203833879287
0.557324581994073
0.56485002910023
0.545793245039017
0.570623787040442
0.569524218786498
0.57649900311675
0.584051790100207
0.590351835232406
0.578936307782752
0.591603587437386
0.598777206601893
0.607061476133668
0.595724407912818
0.617653407268773
0.600237891585102
0.611255013017123
0.612208495990483
0.634066989822901
0.614032748159311
0.62685219225312
0.642021959225006
0.632062679016916
0.619556570848605
0.65517414069341
0.626593364065425
0.666763970451854
0.641845340346859
0.643147051433287
0.648109633942115
0.66393270133465
0.663849739756288
0.661269704752722
0.676608242484552
0.691564327733567
0.676015208055983
0.670912361243394
0.681367250369046
0.677948541130615
0.672251444212897
0.704499362918365
0.712135004492081
0.707154903636964
0.70305682747309
0.748762825234066
0.715791046889514
0.761773675364095
0.707988234700283
0.732987557862039
0.717020840787035
0.733306106509223
0.738770196632406
0.753734178069827
0.75851497026949
0.78391672895156
0.745553429813471
0.788703038619258
0.778075339637319
0.784217066563058
0.75919384111712
0.770701273983027
0.758646550774244
0.823218740681508
0.817213082710923
0.828196151030744
0.80014933678706
0.82982943346902
0.781547170138458
0.829026590407345
0.795231007772414
0.846669802693708
0.86758735849695
0.840445764912764
0.804011309430776
0.869150239949061
0.799422982710576
0.857293226740794
0.876602653308778
0.886884702374575
0.855907064706582
0.905320156391273
0.861974420295406
0.874888027663082
0.854968088633576
0.894406938825051
0.868970096128668
0.861733504768437
0.859809006197475
0.859375708583472
0.901479482186764
0.938493151981604
0.86520790997101
0.904694510190224
0.816483271792307
0.895444401886207
0.899237533707496
0.92721655827023
0.906556769357795
0.953624739018042
0.88660219780498
0.941341575705674
0.920597879294556
1.0030616111367
0.928074939359448
1.0241838920899
0.953023525336554
0.87209284391458
0.927466530075182
0.939790060499426
0.900953453058783
1.04349545705884
0.947912335402398
1.04916022087475
0.89230103828719
1.0098269015226
0.934242655151772
0.994600349050365
1.00877879010785
1.05722417502437
0.938094653343293
0.920337596897048
0.954393206600084
0.988474918850689
1.01332713594888
1.17453018474577
0.877703005769585
1.12815410569107
1.03416748313519
0.902037781778934
0.882933288261988
1.14329050668442
1.06377900886496
1.19679814590271
1.01782757030561
1.05882540721966
1.04195499835551
1.09552990070717
1.03256971724569
1.2055294736697
0.929516749747634
1.11458104540051
0.988868550132627
1.30619138212574
1.07608641521248
1.10767986320347
1.14400320660585
1.104408603164
0.940691265393947
1.1074918748427
0.977362033650304
1.24318882331269
1.06048393050339
1.17403875759302
1.17718138353041
1.25395216376815
0.969780934443173
1.0262504257039
1.13015143045217
1.23089152177274
1.25279651534979
1.09962297177388
1.08553250512279
1.04151711622029
1.09145421676942
1.72266205920689
1.02393826762091
1.22355902931056
0.915832568130457
1.10517250966553
1.09236434212147
1.28627522856728
1.24378645418628
1.39932465829211
1.04801004102969
0.970081882815877
1.08150819318186
1.15665752212272
0.935268379400898
1.26684990563767
1.48562791346992
1.21192036705865
1.01462945155391
2.39380476372717
1.0907039846556
1.2849791908923
0.92587216552333
1.31996132849352
1.15282981099346
1.80528487098952
0.849437480945713
1.20667051903347
0.704837977121981
5
0.823439072616991
1.13175016922883
1.3937523436355
2.09298140500246
5
1.1974093613822
0.934115010906555
5
0.960315901823599
1.67149120458784
1.39553421464572
1.13614558790434
1.50688432437871
2.282575732412
5
1.2783670010645
1.21822941874447
5
