3596
4000.36533379555
650.420452594757
1
2
2
0.0637244970691348
0.0600254875877364
0.0555935765652991
0.0636993864108836
0.0541405076567366
0.0649080423314785
0.0574452536579973
0.0527442795522127
0.0597424170294602
0.0637094759437164
0.0553080856214708
0.0629584223338076
0.0510963139149687
0.0555490211991869
0.0578443952337973
0.049790446115206
0.0555046104349115
0.059353863297626
0.0581861943579253
0.0537693868872073
0.0573129227868113
0.0567292729003933
0.0523503190964839
0.0589960438089744
0.0539610210632369
0.0587256225387282
0.0549190244261823
0.0525009218989943
0.054356246939704
0.0664489497631457
0.0552152799564559
0.0601619906074288
0.055436927612194
0.0600666964808555
0.0626969098594541
0.064446642987653
0.0501054441447829
0.057800734159321
0.0531342989354961
0.0654761409972704
0.063065657406235
0.0526577525364107
0.0610741040157859
0.0639888947161934
0.0505139294991208
0.0579625459093405
0.0524271846649807
0.0531541972894779
0.0550406313788128
0.0572271197261013
0.0584311145253508
0.0537341445844546
0.0619815936979203
0.0605317993272049
0.053775963584013
0.07376896879322
0.0607592740479669
0.0545505104827648
0.0545110890868017
0.0518137043848507
0.0635364114199942
0.0739552752369511
0.0560795816425876
0.0570567884378307
0.0528458738211463
0.0580831651210938
0.0480104137568797
0.0592414336083017
0.0505166741162585
0.0579317374724405
0.0459201220015531
0.071767659319885
0.0723677915337108
0.0573939500215547
0.0496090815407115
0.0543951881037625
0.0523613827389469
0.0535702759243642
0.0414468607817899
0.0561181733466949
0.0595618040736419
0.0635012893803778
0.0547179432469577
0.0483879744223906
0.0524420407356445
0.0744594247669284
0.0479699290554352
0.0598202276006145
0.0638958020691562
0.0663191091540745
0.0503705003518921
0.0545659903310925
0.0443334657630843
0.0578160227246457
0.0501817506812781
0.0577841811530736
0.0466206555440152
0.0542300886158734
0.0479677281665304
0.0635848461885378
0.0480543497901277
0.0565501226265632
0.0878942468477442
0.0535091409680364
0.0887626083390939
0.0618088566662185
0.0424962225965034
0.0915270774425256
0.0626273809162638
0.0625765756758524
0.0498103874091032
0.0598511977299536
0.0490021891606504
0.0645328625818988
0.0320151026418429
0.0684808055335476
0.0708002040325748
0.0663729446340676
0.0552452706544949
0.0665315045521416
0.0310810250811464
0.0741542754097762
0.074165895150776
0.0680706542339345
0.0617389688509318
0.0531614628156733
0.0410724116244044
0.0895342076613476
0.0717055308336908
0.0614978479921727
0.0476056003249823
0.0516709899366405
0.0353396042879657
0.0437014764645131
0.0782519876153757
0.061194191792325
0.0566108627965347
0.035006914001599
0.052488129622828
0.0943302539081426
0.0598266915834699
0.0602386109256629
0.0341661842851836
0.0582897254871517
0.0850269968195477
0.0629320817849352
0.044951745563299
0.0671552959286824
0.0571655036395801
0.0536482865822529
0.0465011371888579
0.046549201133985
0.064034408668968
0.0641783476725483
0.0031988523009735
0.0801344000803032
0.0853015027683593
0.075442982883962
0.102639152334193
0.0567465604168868
0.0649238809332449
0.0481570158290539
0.0497624950370257
0.0462104713819757
0.0595726967349566
0.0419444403788075
0.0525100592007786
0.07155581161757
0.0542874522765938
0.0523874620502005
0.0818764064970302
0.064668218078723
0.0310814780692594
0.1111095143243
0.0545192342126107
0.0488007860667561
0.0754253859999808
0.0701298334021105
0.0334428706422938
0.0540491243460592
0.0840447516404397
0.0592338383314184
0.0506622750026759
0.0506340718422648
0.0448303476597071
0.0680808986964319
0.0532439326672724
0.0529594763081829
0.0513034805611096
0.0416724157222909
0.0422449665787765
0.097504765064977
0.0734434131031547
0.0574510684770736
0.0573951653638421
0.0187217444928144
0.0808792042097084
0.0827123993074875
0.0595686857783346
0.0587284730851732
0.048012654241488
0.0504963671076215
0.0430391725219587
0.0563409618288016
0.0404898072353268
0.0267334816564378
0.084212326381166
0.0620857956786884
0.0592601457205718
0.0537269745857626
0.0537073520264075
0.0227674325322763
0.0903726716460985
0.0805727664731503
0.0568134916530093
0.0508289528186824
0.0379647121131165
0.0702077439953051
0.0674196627323381
0.0591907714056667
0.0554361003522542
0.0533305809273272
0.0522852651190721
0.0529497987941751
0.0439097460271663
0.050992841974724
0.0464940111140671
0.0489027049471251
0.0432276078703282
0.0488111999489683
0.0604131317080319
0.0524329958716642
0.0498186892378718
0.059016627177772
0.034093861995693
0.0564093525859429
0.0656137180272118
0.0621883749365577
0.0543376955270554
0.0550559861018118
0.0508395079277806
0.0509112662413099
0.0520789082967716
0.0555715373625304
0.0445436947059753
0.0343278151307385
0.0798033380716591
0.0558704214098942
0.0576584215531585
0.0327323820984662
0.0764466902088097
0.0611825305669643
0.0623248743277354
0.0471785545838517
0.0566352893354246
0.0359348706065734
0.0502734363978516
0.0811962236910344
0.0611841985645406
0.0489426179278112
0.0656924680297856
0.0523869612097864
0.0542657650173496
0.0464064320684412
0.0305178324558283
0.120664839596089
0.0578156018607471
0.0535791656847518
0.100898265486467
0.0650118214691328
0.0675004923353655
0.046280971032905
0.0173329527612832
0.121419825990243
0.108844931626619
0.0555607868611286
0.0524685814264987
0.0737271359071141
0.0515566987479921
0.0610812654496869
0.0520815652340268
0.0670998031972175
0.0670108466777435
0.10170278381093
0.0986380973518477
0.0367269145845787
0.0890872361435323
0.0836271052694425
0.0653808808007993
0.0573793927227193
0.0652096756530292
0.0500878173233237
0.0732264171295487
0.0718698600247283
0.0806812276944578
0.0627224979433871
0.0542140580390953
0.0778283049220912
0.0697111411859822
0.0568276341253419
0.0686446652581873
0.069171391948395
0.0583059219750499
0.0678010727254075
0.0559086771532958
0.0738724323218727
0.0479239588607739
0.0532861717350996
0.11190730087565
0.0708066316840909
0.0643703105602301
0.0940295022614892
0.0736926519050647
0.0682087534521303
0.0599762851354371
0.0706617188885552
0.063004059720802
0.0595268905854505
0.0557772446488019
0.0921893502916105
0.06879698285122
0.0709885569353061
0.0669899902355588
0.0626036689078492
0.0581792090451435
0.0725321747527012
0.0677093317467483
0.0753880223154283
0.0699881482738947
0.0596599541404193
0.077110342988767
0.0917716361573366
0.0424936491060404
0.101126439962002
0.0946790712668739
0.0817052315112324
0.0678403500893419
0.0655502715384926
0.0745018114734899
0.0748682579963335
0.0836477512770633
0.0774788232279949
0.0709443702185392
0.0934621435329084
0.0887041623248865
0.0766866233698646
0.0707753639903433
0.119054942844994
0.12659124409676
0.103343828814761
0.0873906981489404
0.0597498855437538
0.112498761288132
0.102670463086904
0.111167685669117
0.117832438377956
0.0900776613913955
0.10108467473789
0.0906836192809373
0.09837354339903
0.0869654847642128
0.102347042370862
0.0953782567021045
0.110397607387567
0.0958338675825227
0.114429106770935
0.0877488736200155
0.106569902308913
0.133369697727373
0.115696357490264
0.105845162866386
0.11359939676941
0.0897409480520102
0.143122314965467
0.110899355487251
0.160109577515187
0.12833255909495
0.152785939938505
0.149601427672822
0.127274967465789
0.123100592999475
0.122750408946382
0.126471150046402
0.126216440478239
0.124117811702706
0.129924376966182
0.126496845037638
0.134526978243898
0.133585060765031
0.142227113539914
0.134681606250385
0.135797579973435
0.150829207990184
0.152994287349987
0.149163683962948
0.132858549258142
0.159354849991766
0.1935394571159
0.207274870596844
0.164136773489485
0.171049746922863
0.159435470360164
0.163016159016691
0.165841540243337
0.161287305829822
0.168492494845598
0.163236902463078
0.208986825344639
0.176243478380574
0.199653237577444
0.186255199347063
0.179203308715296
0.201102832082298
0.193173220456476
0.181759522956083
0.212924963967064
0.202617086791753
0.170536667622212
0.216101528558409
0.213377361409606
0.211880716146109
0.223532642600022
0.198495559520798
0.210407072016627
0.202461408765541
0.218601003974246
0.206363647902653
0.227521719565847
0.225292873138362
0.225865941006036
0.211638991635785
0.226658695797861
0.218412801602145
0.252737363542548
0.230372880473973
0.249462425080358
0.233800332705297
0.239183161375088
0.250137197575786
0.238150793549473
0.259134502760263
0.266726933096002
0.270956414232039
0.281827524409588
0.26004269976947
0.267235232289231
0.252632202492258
0.265499106494525
0.252389726709436
0.288386434696264
0.271248530769013
0.28023438585389
0.279587885445535
0.295244186179832
0.268265651938327
0.299080862283242
0.292824986511358
0.306072914160362
0.284625217291069
0.310869291724082
0.307831860425199
0.30668869759166
0.34072351039038
0.344149288912532
0.339865728054608
0.346708537646895
0.324213176524219
0.350376864593767
0.324131710175585
0.351133735574066
0.330662602300097
0.36536783431221
0.317734237958939
0.360119349087237
0.335735113861193
0.364064259596115
0.337487843915139
0.358806648538523
0.350157553248151
0.375527938266824
0.356727947079751
0.376612129528941
0.364193893322131
0.381345247933939
0.368395562345782
0.396058534545303
0.375540528934629
0.409797882847386
0.384372405042441
0.416408911348376
0.397729993548106
0.414875170510233
0.399712405246206
0.417283552294295
0.400946923665138
0.430571790103773
0.42041721126932
0.44402246431307
0.426702316901092
0.445913411728667
0.427286294314101
0.457171281357555
0.413651948025751
0.455559778775885
0.444814228823585
0.46485942696236
0.460672417270435
0.467030318535948
0.450952093200086
0.481688844286406
0.452518707113408
0.490755590241067
0.471015066547501
0.503930851573736
0.496144078401946
0.494296591864861
0.492564906566199
0.516728528000088
0.483017954469004
0.497830585705406
0.496622235296979
0.5112131488321
0.507556994041996
0.536328578164051
0.519491236705142
0.544920469100596
0.533405098971567
0.540352350572052
0.518259525642758
0.575780741378359
0.546008425334952
0.565897355674192
0.534912590206404
0.5726038029782
0.557495705490509
0.575379301479852
0.557580579338864
0.568532730608066
0.564621166712998
0.618021022883181
0.575863851380635
0.574556022869418
0.581988021633389
0.639105222046035
0.591186692270781
0.59685830173423
0.601752828307101
0.602258024481039
0.577688910549467
0.639988837379081
0.594667278848748
0.647378447926067
0.611334857262212
0.659998358443368
0.612564721750881
0.663446740291942
0.636950070457915
0.644826070967544
0.653372422639569
0.674256000313881
0.639531976267167
0.665324798922227
0.646155573450007
0.686118414773477
0.613978454364436
0.682096144455623
0.650214853508945
0.688519194922762
0.625505228998367
0.736642332580588
0.65857891626038
0.722790160378741
0.673859625634173
0.734433626731555
0.666049694754436
0.765418379713652
0.687713893435142
0.732141951884931
0.712873336374524
0.741235473612986
0.72130554947294
0.765619130690118
0.703076063451633
0.777798623679013
0.699656226458665
0.750985723836357
0.72244210504273
0.77437920379088
0.765109225498457
0.805075092905306
0.750578458168355
0.775497621688457
0.759729832814001
0.781643230281845
0.761272268542938
0.8157105464984
0.729015521768133
0.824030686137157
0.764267772374863
0.826909057927563
0.77569099127128
0.787444174902001
0.790808285239911
0.822207179717069
0.770965848942405
0.866595486768398
0.797630119281647
0.858887297414011
0.793766450049809
0.830331049823539
0.787671661390696
0.887458383068476
0.825602951731975
0.895956868891834
0.778090538897388
0.901990026454318
0.869767939802329
0.915364666916457
0.870238166142063
0.896672322280935
0.823387090084114
0.930819010687758
0.891902950972352
0.934401537269862
0.885494912322922
0.905744992852772
0.840580180877357
0.923879588000315
0.843903610519353
0.894688326838022
0.865760034746509
0.920080400852377
0.85092114766908
0.958838840953364
0.881307888338241
0.959375487026075
0.852993685911093
0.921363463116686
0.907073846164635
0.959492255097279
0.880597133831247
0.941772023285582
0.902744468741182
0.950298086957255
0.914286710741162
0.970251990689094
0.879139371785401
0.937786102953607
0.914859696382285
0.967720433060344
0.944179089256333
0.955865502183798
0.956921726452141
0.988489764624216
0.945679746154175
1.0104021357913
0.923242687440919
1.02563676085483
0.97685607688865
1.06532254329893
0.932139905059547
1.00310628854985
0.966833136910969
0.992987988743199
0.978012790807336
1.01725733527057
0.942279235972356
1.04689157281565
0.999366444024664
1.0124772841761
0.964179378376126
1.01479136346822
0.955966388784002
1.0204035136988
0.971999780542343
0.983338849507352
0.95372559381082
1.02914907997215
0.964362062971276
1.07378655360524
0.997116955520887
1.0772608499913
0.979545939855529
1.0582039855596
0.96520849956979
1.03571744715796
0.980344938478304
1.06767947857742
1.02635380920638
1.10709163843331
1.00719265713884
1.04448414574435
0.99967903935913
1.07980430737758
0.976366474516248
1.11400377298193
1.02698618793517
1.07777073976355
1.01387957443024
1.14323573926355
0.989013106243862
1.08663812900652
1.03724973509751
1.10575783593724
1.02568447300369
1.05556287198388
1.00787192964833
1.02801198724607
0.950291747119187
1.14163792432003
1.03842172498472
1.12285243350596
1.00395148945261
1.10953320233159
1.05898218552543
1.07935369338427
1.00694167346539
1.09495220897238
1.03832311131716
1.07558442336561
0.992133390639195
1.09084357138042
0.993112749396204
1.17410174875727
1.04907507940818
1.12625917253203
1.02290886491696
1.0596319998418
1.0435085543334
1.08601556438783
1.06505037680272
1.08084567535199
1.00634337864525
1.13616742468102
1.0038849305182
1.14972267864252
1.00680464724161
1.12242524603965
1.01873285472542
1.11199699866184
1.00385109478515
1.08324766109518
1.05536500599768
1.08142591270023
1.03412910791516
1.06804495536017
1.08333172149856
1.08831494388934
1.04328470594424
1.10806358020299
1.04471672339191
1.09900258857841
1.03616061380611
1.08031550521388
1.02786998326303
1.08015714779566
1.04487948933108
1.0639073245218
1.04428245471689
1.11059558757408
1.07508321026858
1.15104296110794
1.04889254518709
1.10162584033892
1.01892819221329
1.1070356617817
1.02878077890285
1.15187672912804
1.04918233600253
1.07209036807717
1.04098457446888
1.10942576698364
1.05999232158224
1.09266826259542
1.08092150516334
1.09312405329192
1.00482838021241
1.12112509909788
1.06435986095114
1.10140492076151
1.05376857673632
1.07738177364957
1.02326988686958
1.09659254164866
0.996670542069273
1.08922723739566
1.06101802986967
1.10536890056704
1.05491272480359
1.08581825319038
1.04495495915932
1.05644146072272
0.986209261027459
1.03566685889549
1.06514501894324
1.11681115963629
1.02576849096838
1.03280774407431
1.07063524726015
1.10761189136784
1.03083455141629
1.06673323658069
0.996292588654269
1.10188159175258
0.993943203662793
1.05990456300283
0.991301397797129
1.07949171646978
1.00623847634146
1.07300832823544
1.01446925512928
1.06130958484478
0.999952165976175
1.05202220794554
0.979595156935
1.00318018157223
0.981132820837603
1.05477661198753
1.03115589289726
1.05044782497685
0.973961267807738
0.990193910951605
0.983565141222192
1.02554939551729
0.99736403010182
1.04052461948068
0.983629727530933
1.02687939556876
0.98005211648488
1.0134809761913
0.961588180421444
1.00442449408367
0.984999172021918
1.02601019704753
0.955712531525072
1.01725660955166
1.02279683712254
1.00665349598037
0.969910568337414
1.01005281446295
0.976201821372872
0.982085460650773
0.950201549201128
1.0119084748713
0.947302283107767
0.959524361126812
0.937051524901195
0.97684066167177
0.947046065886804
0.962752101059858
0.951110315928626
0.958181224864739
0.93064543324273
1.01210130146609
0.933257519846276
0.954284559036228
0.938661042298392
0.960336956584455
0.921078500993373
0.943238786085866
0.888269307457789
0.958324218751573
0.904118164774257
0.943804168577294
0.881425348534681
0.927592414198496
0.890210338183294
0.930037110094079
0.893090424526964
0.938733010054403
0.908941970308409
0.903448290870149
0.873902705685732
0.909255505779096
0.86104587396039
0.93817268980998
0.858733770964716
0.87196158421764
0.856211691793688
0.890761913153706
0.849269302341496
0.875447932397609
0.86167570062111
0.876142401636759
0.854521224626512
0.856101317293346
0.828236732437207
0.829823434099528
0.823268076568377
0.842835629954197
0.817223351238118
0.850602210768083
0.816112153774596
0.833855039326673
0.821813700306178
0.839203454469167
0.787947219665071
0.845795004241886
0.80139434497366
0.826826072206903
0.794164300237641
0.836432473558086
0.776053939801912
0.804191347618527
0.786711046596984
0.818714414623714
0.767568192274631
0.806343337926703
0.749249546573272
0.781291282187271
0.762725056001739
0.800331744263468
0.752570212199288
0.782282664036132
0.747016998288782
0.761553699380231
0.734057415278873
0.753057200433643
0.723500932681474
0.748391284840863
0.739070732459709
0.747199227857589
0.707590583230765
0.729033362314463
0.718159471135374
0.725163156830781
0.709727183151258
0.72087980889013
0.706469721524349
0.705368435572361
0.688714729519113
0.702857952893691
0.692737753687351
0.708289287490986
0.679350264641912
0.709401727623481
0.690064281574829
0.689725919990369
0.672151216523104
0.674892451968298
0.654204749842458
0.668295410771721
0.657132899543559
0.667800123915758
0.653930383074351
0.686041438981755
0.65197502342865
0.671992994958231
0.628393488093299
0.652799012961795
0.626215357523403
0.645987212745583
0.635213847582626
0.645061013875707
0.620412905029272
0.629455130451408
0.608357018298469
0.635863329464756
0.619128881241002
0.626379744423807
0.611541411554651
0.606197357371078
0.597237383725779
0.614537019818037
0.595746714994172
0.601929310740536
0.599121105184173
0.594500865711943
0.564382828090644
0.600637271842899
0.569278594372245
0.593438797394676
0.569997929465637
0.576727288545523
0.561197817690396
0.583922975977685
0.555555686565864
0.582577761496092
0.551508807318008
0.560973833326034
0.556073943711889
0.559343798840229
0.542337093011605
0.559415977042719
0.538427820738376
0.554931617805875
0.525990776148281
0.54668167927808
0.533574847635985
0.550825876659368
0.530303653330737
0.535815323822476
0.522614045970785
0.52798785453605
0.508344551231761
0.522945016728621
0.519003727931864
0.520709727360928
0.499164114858522
0.513921359649784
0.503384725937932
0.512347176026592
0.4991543006324
0.511295639965665
0.493112160488755
0.499235300299383
0.482100073380307
0.498045597271942
0.484050891988257
0.488153560559267
0.485154980334235
0.48374328433286
0.475861583481772
0.488856286191329
0.463565189494474
0.485974743381324
0.464910924780704
0.47304115697782
0.459883883130354
0.471451180157833
0.457873397631026
0.46843682802805
0.455427082944131
0.455171452817129
0.451921582106403
0.449820894782455
0.455694477840527
0.454333690875514
0.446604189658263
0.454724340018627
0.436465701613973
0.447543127878939
0.434749926268294
0.443888845077468
0.426603244842599
0.4325758638358
0.426736828961116
0.431544273215529
0.42506362626888
0.437488914421349
0.416018456336617
0.421263280116603
0.414604875265029
0.427339394185607
0.417106830428189
0.418862845338546
0.411629073020546
0.421253946015559
0.407561985143775
0.411933454921988
0.396455182379609
0.410938161630073
0.396174773482412
0.409138598462969
0.391927808001495
0.39982988792396
0.392888557319871
0.402472337072675
0.391878170602932
0.398716857561363
0.38836235352152
0.402092423062355
0.387670143489373
0.400827262835041
0.388039513872813
0.390713820249301
0.383148693361161
0.395523756073815
0.367740656472777
0.389072508472324
0.378818736526897
0.388293790928347
0.370106997053334
0.385849360965649
0.373056157902338
0.383952916148525
0.373997743950873
0.385285900090031
0.378073937715569
0.374541984434937
0.372347233761166
0.379396877477713
0.374305359407401
0.38323424355975
0.375981901761012
0.389070558735475
0.378046041118108
0.386967164033377
0.379816191626816
0.387714504209071
0.376075660771095
0.389360434601846
0.385312376017525
0.385849825900356
0.384675709432376
0.393254172935059
0.385296414418307
0.390060590254346
0.377520916922274
0.392138679806357
0.393423143737428
0.400810570736418
0.391584567630027
0.402666401329435
0.39434104381745
0.405739221011885
0.390129051274366
0.407280545432549
0.396771235532236
0.410013699412866
0.396496514063594
0.410870057960075
0.398123560961459
0.410317700212111
0.409701274777082
0.412911121136524
0.400667031739365
0.412783838444694
0.405727349177759
0.423952721174657
0.417775624584796
0.421659601247679
0.420363169306677
0.42653667783274
0.419628082616325
0.428702224915518
0.424788199821936
0.445186744243573
0.431963740616806
0.441554572179107
0.432874059903529
0.451391389317124
0.450437317255575
0.450521548622077
0.45477614475756
0.468654663315459
0.454174344172239
0.461962908859809
0.4606899722113
0.471929131637732
0.463149060562225
0.476471341511507
0.464491674393087
0.470157921981993
0.473465659654164
0.475447420667232
0.469802368096573
0.481454417276131
0.47007558538578
0.48703672163304
0.478820509184638
0.484290979110564
0.469461179085683
0.491377562510868
0.473404719292418
0.492392158216611
0.486191543466857
0.481883291215867
0.47180562628594
0.485353655500563
0.479351770452882
0.476564149295729
0.465866446288703
0.472735891016525
0.466964010876434
0.472125619988747
0.467865212127936
0.481235016661616
0.463832078924507
0.477226182478356
0.464122852439794
0.480289547130711
0.46323028529455
0.472098216429867
0.473513018277231
0.473823901953817
0.465432290773374
0.476079709913706
0.459982366243267
0.476342127553745
0.463642048371686
0.4755535272891
0.467523231837619
0.47240967934804
0.46363172293167
0.47453946513496
0.464671324272983
0.483913488904381
0.470721654709722
0.463724548852678
0.462843959188411
0.475831541115079
0.465032855641274
0.47778134504487
0.469540630453431
0.480666367244632
0.464118960619052
0.473406182020143
0.463294206351115
0.473312256444951
0.468007847587608
0.480389185485002
0.459749257880098
0.473426265345849
0.469383652758659
0.471916165341744
0.451166697833594
0.467563198198924
0.450864730117223
0.460603880669308
0.454268483250116
0.465999170213172
0.44915026830109
0.454469608915417
0.445723291684631
0.460793831776172
0.443031979189002
0.447835433618491
0.438722460105819
0.440249827857343
0.432560831756495
0.432232506907373
0.42860627463379
0.432172501834374
0.413344742129323
0.419086597775
0.404949750284693
0.425168946375892
0.411885767816403
0.415045950757033
0.39947021664802
0.408771834824218
0.396663013753182
0.394492816041447
0.392423846900078
0.397680682499431
0.382620418601338
0.394866777991559
0.378695316839718
0.387315403949685
0.384747969234444
0.381529903024348
0.377184547767825
0.381345671984213
0.366823925971651
0.373969215111964
0.361740021715846
0.368059587862721
0.360626609521212
0.36605887716714
0.350592344909431
0.363799022627253
0.353523357121692
0.357555280639218
0.351560339855321
0.358467684376555
0.351989492054616
0.355079200175279
0.348859207165867
0.345973307587494
0.340841514610362
0.350376191930357
0.337009132557225
0.342419579707733
0.337793859087003
0.33765269610248
0.327764610861128
0.342891191811002
0.332083489603081
0.339206665056277
0.328328936433231
0.33483802216479
0.32862625337014
0.328951983073333
0.322821911949469
0.329098517495058
0.322120887243471
0.321620325475266
0.313913231435474
0.319885774071237
0.31591284069528
0.314920639048825
0.309009770478175
0.311276649305623
0.306216916636429
0.3112927561826
0.30127601031029
0.308684676731605
0.300827482962636
0.306371524047936
0.296754950002262
0.30662830869044
0.300361969224069
0.304115264217281
0.297637730166971
0.300038216550272
0.294241637337
0.298846240259757
0.294972531745967
0.298259123565124
0.290638933697462
0.294927097558727
0.290649650578771
0.295977892379916
0.288997290287812
0.291740960241792
0.284663755453575
0.288848265012794
0.284563542877655
0.287795511422572
0.285176030430637
0.288270176062258
0.276141215880611
0.290933803628123
0.276495576992617
0.286328208081387
0.278859945255005
0.281648802961688
0.276008999009561
0.280217629210168
0.275844339092058
0.278521518099392
0.272561809041734
0.279978658351426
0.270114932078685
0.277675584274064
0.2730752575436
0.27433187574877
0.266797819384276
0.276857698914401
0.269845749855624
0.274626683183906
0.265215958864593
0.269285321613895
0.264099373057629
0.271608216625394
0.266263622147112
0.264268004180603
0.262153255786
0.265306705196765
0.259237037544905
0.266112063416115
0.25710186716107
0.26323895278175
0.256242946833619
0.266171488767358
0.261247884288301
0.263034713050486
0.257832883000818
0.259326113971083
0.256947125432109
0.257456323546051
0.253194659275755
0.257583168387886
0.256096333217249
0.255984199043409
0.25301038020332
0.260728852623624
0.253672395578566
0.258285543644822
0.252252120749799
0.256681276496474
0.252154290788372
0.254266446258312
0.253896237007826
0.252707299438158
0.250238076004871
0.256953959493565
0.246135415005418
0.25931297181027
0.24880463678786
0.252417146279468
0.249670320974632
0.254719630664129
0.247118305152175
0.255972596724561
0.245685400239304
0.250724727193025
0.245891573774759
0.252709122192611
0.242708030523334
0.253874620572139
0.243948356762621
0.246553028389156
0.240265850815607
0.24270163493522
0.24031170349233
0.249869380875442
0.23801894919068
0.241510434353999
0.23785423924436
0.24472355250373
0.237398808233477
0.240767651093677
0.237818051706905
0.243923043279026
0.234286524130816
0.239213268791883
0.232902313178179
0.234092821678052
0.2340664969966
0.23449793128261
0.230075804365528
0.236008508431637
0.2317371399941
0.234215400705457
0.226162461678369
0.231623607630188
0.224215268529905
0.229944767594178
0.226136384031979
0.229674769689094
0.224367004047291
0.228913840513268
0.223002486185365
0.23044163090379
0.223746611844898
0.224244255016384
0.221619119834779
0.230169421506042
0.222257119225961
0.220368284082855
0.218693878577082
0.225442166828055
0.215747205602355
0.223240388024272
0.217081158948319
0.222609318294601
0.213654221114192
0.215326648946738
0.216372070718273
0.216506876073774
0.211835022221609
0.213060683709223
0.209433011545242
0.215549850256399
0.208992753829455
0.211215447644122
0.20478684938591
0.210111611449326
0.204756362345624
0.212924396698246
0.204852447961373
0.212409902056983
0.207598336868651
0.208589062063879
0.20285620935866
0.206090601442296
0.198973449835675
0.203941078130981
0.197367182310339
0.201788852721855
0.193643696898053
0.200412434558457
0.192947132414294
0.202790344971466
0.19322511594187
0.194617279080087
0.190655850045907
0.198903730052304
0.189155475164005
0.193441907018008
0.19068066282881
0.192832622202335
0.188678533916226
0.191178399845893
0.185566425040722
0.189355269460496
0.187156161873073
0.187050576469539
0.179291873713168
0.186153362661015
0.182126622623612
0.180226582134497
0.18102087272382
0.186298734601075
0.177065297900248
0.179098797169837
0.173674116453564
0.180484686212852
0.17480924638864
0.179877562875202
0.173351407530954
0.178522642634924
0.172708272170067
0.177879254788876
0.172791108521618
0.17616805082798
0.170913911836341
0.175877475466223
0.169199414683718
0.176801266013813
0.170417240346545
0.170499159437745
0.165823724821318
0.171088334928324
0.167156171571271
0.170059936966715
0.166035590092759
0.170237519614747
0.167480457064055
0.168547900112715
0.163424993499232
0.164836932631378
0.159765503257734
0.165107987880706
0.161179549398797
0.166442456884801
0.158578173827121
0.162358317312384
0.15935755321471
0.160424143447859
0.157978607625499
0.16308244155823
0.157436336648919
0.161583257114609
0.155695466407891
0.160186740161477
0.156137218273851
0.158058259818174
0.150663923961184
0.158113354352357
0.154439804802044
0.154403741894127
0.149778019087462
0.152011811271608
0.150347859873222
0.155789808158157
0.150637609096371
0.154744544233744
0.153087267615057
0.1552911759864
0.146218563702635
0.153685825816734
0.147753792039343
0.150014699054057
0.148128039763813
0.151313277539807
0.147139691304616
0.15226582263199
0.146778708422744
0.148292148578804
0.143256068598489
0.149024691715854
0.143912877708959
0.14677167502487
0.144738221066622
0.148264133745484
0.141900003179613
0.147769529606057
0.141309637885866
0.147404409585345
0.140282410597321
0.143703511103867
0.145212485290689
0.14598445661114
0.142751152564866
0.144708955607748
0.139788326731278
0.146875939622398
0.140438502535691
0.14432604255403
0.141293166577546
0.145459117261291
0.137813701736721
0.14369751819417
0.13788168570714
0.142393045779997
0.139716460214216
0.143069458265846
0.136739441307616
0.141793746513439
0.139297324475603
0.138231589461278
0.133936621496793
0.136894176620681
0.136487645173002
0.136633429553828
0.133716368837774
0.137699600405814
0.133143929849001
0.13868966001697
0.132958014742991
0.136148644711383
0.132206095408884
0.135071459589275
0.130229612719215
0.132571447217022
0.129652342924843
0.133658178857711
0.130411297500946
0.135394335178371
0.128653311397812
0.13351750253298
0.128713471197876
0.13119871821752
0.129477463562229
0.131333717112572
0.128958843372904
0.131009030181284
0.128853219427224
0.133563496211384
0.127874899124847
0.131147378446414
0.124754628653059
0.130328834309715
0.124114099467895
0.128823930425711
0.124902157008135
0.12976594789393
0.127634390400659
0.12889883786184
0.124326009127249
0.129345573414624
0.124605220721764
0.128214712661945
0.12464878646502
0.127376601795152
0.117681238822525
0.126006911909862
0.124909256911979
0.126814714224322
0.119671879340613
0.124174156020998
0.119807663149873
0.120545421110801
0.121774947140407
0.125074695142735
0.117936244483982
0.120791897555163
0.117807960261599
0.119809125132753
0.117262633468882
0.12037680087456
0.115592688940199
0.119616112616469
0.116582632840629
0.11894451043929
0.111499000978411
0.117050470202238
0.113749202031762
0.116355475987034
0.11209119005477
0.114758283510428
0.110620495418575
0.115010608521592
0.111433408030919
0.113247205861376
0.108805495158065
0.113306216787809
0.108367459249303
0.11199449872713
0.108738775707681
0.10982293108386
0.107560233184808
0.111562227393975
0.107395809969368
0.106470452646248
0.104786974515645
0.110598884632675
0.104583172055317
0.106329758831134
0.10323299569874
0.1092202243847
0.104552531116666
0.10882696704575
0.105433100166965
0.102840072125575
0.102284861920925
0.10616771783201
0.101902165474939
0.105117128798679
0.0981302818013155
0.101572472610123
0.0976535861879019
0.103013323567344
0.100795912160928
0.101678810067595
0.0999810832948594
0.103689377779618
0.0990971806224024
0.102575464278098
0.0973076479361417
0.0990206538161492
0.0961309330665762
0.100364000590063
0.0957368975295694
0.100476358893119
0.0952752032459153
0.0984619726484515
0.0950358373165167
0.0985069166273018
0.0954472110118205
0.0977032536583762
0.0941239072763209
0.0957589888415257
0.0941717153705991
0.0952395490914586
0.0904348727176262
0.0950771306231514
0.0921686213214642
0.0944027845629539
0.0903235753757602
0.095522094405241
0.0912286212809709
0.0922727880448342
0.0891122592957555
0.0927265406112783
0.0868267315255787
0.0931501145511258
0.0895864678938711
0.0934158244219405
0.0871822610858558
0.0891259618078735
0.0868537976558761
0.0888662516502538
0.0850617635818406
0.0885833046774595
0.0843426469936154
0.0901487730269688
0.0846314623183488
0.0879593382957163
0.0843235275421063
0.0890303697485008
0.0833703371678661
0.0877514520625232
0.083896011753681
0.0891974945377429
0.0850361405840617
0.0882605922150742
0.083337132770732
0.0890790647788734
0.0866397717709818
0.0876235186873409
0.0823729779441958
0.0873268937701733
0.0832142228241942
0.0900422685498932
0.0859998530831429
0.0856065337629196
0.0816663508936589
0.0897023270945539
0.0826046923682823
0.086561781373677
0.0851355683596664
0.0895816379113812
0.0798807767359658
0.0849351840213489
0.076403917133129
0.0847186270883873
0.0716055464575281
0.0847129526203004
0.0825619888371855
0.0907243379670864
0.0761911282392794
0.0793137046347965
0.0791585606418355
0.0878339213683706
0.0743592220101788
0.0862322282526281
0.0762541181586068
0.0818069034315923
0.0777516269605998
0.0773936317359018
0.0700325106296238
0.0842067736764003
0.077225280130984
0.0886305692712414
0.0747952176785628
0.0880835230748087
0.0794753683639742
0.0857884752771567
0.0747185359007458
0.087633850996171
0.0760354182214438
0.086974077706496
0.0700979415081259
0.084193697180883
0.0684857495709931
0.0847391576294878
0.0696141221309564
0.0867574264031447
0.0691249518348026
0.0877357422398332
0.0678202900647153
0.0856782366543821
0.0642395433287024
0.0815713114146176
0.0629233936256506
0.0868295225425084
0.0722098421535228
0.091542002516135
0.0698515610539754
0.0868809978682172
0.0626538027564251
0.0884568665519662
0.0740931352382168
0.0877849440863479
0.0694750240130296
0.0789925961665061
0.0808562506067187
0.0819197680893802
0.076367183665748
0.0741010545548552
0.0919576953658292
0.0695707524717061
0.0874996308513274
0.0719169082379953
0.09248629006451
0.0633852661881607
0.0926761131466109
0.0699548994548376
0.0832293153481124
0.0743676471436538
0.0812130301397849
0.0780734636442165
0.0793347817047172
0.0800568854096693
0.0751820698985107
0.0803533322918562
0.07471635220485
0.07612105451794
0.0762365889201486
0.0743644418030685
0.0784808400593439
0.074929686224839
0.077792365213354
0.0721317787911084
0.07605080847566
0.0759702882295056
0.0748367999672889
0.0776923905035942
0.0762580310805062
0.0758515796301697
0.0763240255671807
0.0756851887088927
0.0759866495637578
0.074389443841611
0.0742127973436307
0.0768775432594141
0.0766089425488694
0.0741363454389009
0.0734759044550449
0.0751747290513342
0.0737631731632882
0.076497799383945
0.0759861487725913
0.0760597087284858
0.0784118939323799
0.0765463507384626
0.0744109641150344
0.0757490927901985
0.0749686492601574
0.0762531672929523
0.0767330526712016
0.0759157110795328
0.0743476460353723
0.0756212383258556
0.0756327745350822
0.0764285785769185
0.0775605460542315
0.0766044453381746
0.0760573154789834
0.0765454940260913
0.0766595280928274
0.078197768603093
0.0764542584602219
0.07761218629875
0.0763107141237229
0.0765016653674932
0.0787915148305832
0.0785121790756856
0.0783663572648702
0.0768744746581233
0.0778653465098122
0.0789332166605504
0.0771518571365308
0.077124183815464
0.0757360103905248
0.0781540246822649
0.0762413298714815
0.0764991928725625
0.0751387030509731
0.0763006648498486
0.0787910668011516
0.0788748804057907
0.0767969218940358
0.0783835327418712
0.0784160733153935
0.0784732232729308
0.0766918014935502
0.0801424068262567
0.0790360349553822
0.0783846583542362
0.0777159266394752
0.0793401790563485
0.0765882973578642
0.0791934722160191
0.0783698421587827
0.0765676662103505
0.0774514168590582
0.0774467601122754
0.0781462026927345
0.0800285287849096
0.0751240623631943
0.0779952481304757
0.0778844633874207
0.077874306402489
0.0774015118634656
0.0807513097175196
0.079133520171728
0.0806908692337824
0.0783885117432157
0.0804420575244249
0.0812305847714308
0.0808237686940873
0.0794386487958322
0.0812380336036809
0.0782121114935303
0.0795429955787648
0.0805143873777313
0.0827707216322477
0.0816719521193688
0.0825280635501165
0.0816331883048892
0.0826532655260449
0.0814000034443401
0.083168878098846
0.0801725278910327
0.0795725435318601
0.0813699907501829
0.0841178189436468
0.0814347563178814
0.0839563429437307
0.0817503269415406
0.0810015224221452
0.0809971108632927
0.08286905336623
0.0838154938359655
0.0845680743539797
0.0806683957519286
0.0834544260235033
0.0846694414314285
0.0847268946524784
0.0816057805981615
0.0817834710691836
0.0814441716771761
0.0855339332563979
0.082988897535852
0.0835450914294919
0.0822472768178316
0.0840936232585393
0.0822699549284488
0.083156682241558
0.0811728648404862
0.0822784232770504
0.0800359222154896
0.0857562172510652
0.08405705428059
0.0850595167768326
0.0860103881504395
0.0844774491618699
0.0802931216427283
0.0873811187924427
0.0857191369919121
0.0864113951334207
0.0842906701084694
0.0844425459736127
0.0847387165227187
0.0861771760934118
0.0863017516523318
0.0888856415158756
0.0849958596730572
0.0873401080133114
0.0863110308774983
0.0880231534258896
0.0863610348987397
0.085347708349742
0.0842992411087384
0.0879517008427235
0.0861091214883681
0.0870356754100854
0.0866988857772854
0.0877297346060719
0.0870904859840537
0.0876334396560349
0.0869068342000369
0.089750572270362
0.0864449262624983
0.0869693590953242
0.0864762287785184
0.0866295479899396
0.0847331378669331
0.0839421387439307
0.0841525633072314
0.0851429444233718
0.085227255183657
0.0866442800932349
0.0841203914723754
0.0860270105327679
0.0836538441054772
0.0866339346617959
0.0838739872751548
0.0858034834546675
0.0838731448100078
0.086542788236242
0.0856860714198127
0.0852115527285889
0.0828974656568229
0.0821049707971192
0.0822151490969832
0.085729989568634
0.0837481393272674
0.0830604435857585
0.0833086755821989
0.0841355596208261
0.082127092829384
0.0824388744361816
0.0797456865104832
0.0833597160572374
0.0823031327260357
0.0849384147044858
0.0843908666883945
0.0840865758980137
0.0826488376946013
0.0854776161044634
0.0834214707754933
0.084161505968188
0.0819555174746933
0.0826520575562178
0.0802679904834777
0.0814755245629081
0.0805774744437438
0.0838113812481786
0.0834043265582245
0.0813722185051577
0.0793704902837825
0.0804030456670221
0.0809329769707384
0.0824371427787595
0.0799484066543511
0.0819941076761475
0.0802177997182814
0.082527195002003
0.0801290759673984
0.0808805800241428
0.080556827923199
0.0805155656824714
0.0804713300733317
0.083080325992449
0.0787922008871252
0.07891392041468
0.0822247424057025
0.0809943511670637
0.0777765584013591
0.0813028355376837
0.0792547426886588
0.0831720886381825
0.0801763823739124
0.0794862493501387
0.0782310236111138
0.0802253837023846
0.0815176694207173
0.0806297674020653
0.0798191250473603
0.0811838555129104
0.0781331086920518
0.0803036315534317
0.0786347210431976
0.0807507837374157
0.0782685684152532
0.080769845047102
0.0790766020606838
0.0789765577702529
0.0788821745139557
0.0786664989908417
0.0789681260109055
0.0806753090994025
0.0790711552764977
0.0797171905928447
0.0793374362374109
0.0784180015329614
0.0780773727436163
0.0791495653270871
0.0761790428424259
0.0779762179968239
0.0774427743452758
0.0783901909162385
0.076727747631104
0.0786663142876159
0.0768190465465706
0.0766227904315261
0.0759087353353648
0.0774896586079733
0.0771756300344452
0.0775236546034155
0.075760838068224
0.0780320378090558
0.0764435322870372
0.0773126440673214
0.0767609458845576
0.0768465350671616
0.0765916145341732
0.0758654460330933
0.0758130373855289
0.0757403689391442
0.0748831390750822
0.0745130272868333
0.0730103224912
0.0754111228567786
0.0735072234095178
0.0739811433182857
0.0739764158428395
0.0736291954621464
0.0727078569663409
0.0714589088302783
0.0698857531660668
0.0727701845580583
0.0723356201635152
0.0742106568231061
0.070998200884606
0.0734496438381492
0.069476361086191
0.0710788575059677
0.0716282888765284
0.0704851400077038
0.0709964276600232
0.0727825486489147
0.0729780504713949
0.0722789663010949
0.0680481190964903
0.068820100184648
0.0672471688495956
0.06941783422065
0.0686956502030665
0.0685258149464548
0.0659225769422403
0.0682850545430068
0.0676365421106901
0.0671136027309397
0.0657203701779959
0.0672102505675797
0.0656689456430149
0.0671430428084111
0.0662368233269485
0.0660229366138344
0.0650722985355291
0.0679983548822671
0.0635677908771009
0.0629992016254163
0.0646196405729583
0.065790779109198
0.0636415740024718
0.0642850904116215
0.0674895599920481
0.0739261499245909
0.0656967847775673
0.0649855247825024
0.0671113135095618
0.0661362980580924
0.0642005823879866
0.0634624812624186
0.0625776791311283
0.063487153176774
0.0624218469047014
0.0637354524267326
0.0631237721925556
0.063887404054484
0.0610048602386601
0.0639538063617424
0.0642903558825404
0.0646573625935982
0.0650213696181854
0.065279432725775
0.0610536624321561
0.0622501022084441
0.0616340833126683
0.06132788123833
0.0612067493475571
0.0635501192530202
0.0614935051445097
0.0661733474735031
0.0657498767032796
0.0639280958788491
0.060225297718371
0.0623911607498954
0.0634641621910715
0.0622363016535322
0.0608309165913073
0.0592277582848515
0.0593753384339058
0.0612326972632069
0.0596832449784779
0.0600052758502084
0.0587242102670928
0.0595358809456166
0.0568323459534171
0.0598740235936831
0.0570332828655954
0.0594944454507594
0.0591862687055477
0.0576468994458989
0.0590958679599834
0.0598299840107626
0.0585014472494273
0.0613390529848732
0.057369234223373
0.0620185809441918
0.0678615930605583
0.0617696170922394
0.057371462851226
0.0598276916615438
0.055875690378748
0.0566124159951317
0.0574790619238901
0.0575506900431738
0.0559359374719239
0.0582347809902512
0.0568247799776739
0.0582522681572443
0.0591235732601637
0.0595366819426553
0.0541131838492537
0.0601793745281504
0.0576042603971253
0.0580023307952988
0.0594984666332339
0.0582752599159927
0.0564935307804027
0.0674771957997679
0.0604502864411836
0.058386853665039
0.0582494819752787
0.0568862396256688
0.0680479284932237
0.0677384317723153
0.0554149185508946
0.060234901251649
0.0558936699629633
0.0588266584941407
0.057600925703521
0.0568882597296538
0.055705096205383
0.060034056383675
0.0573050795159953
0.0609040468105232
0.0565337355600527
0.0563317250969218
0.0574212923603542
0.0573145701249537
0.0555341266359473
0.0554566227761078
0.0553674132325738
0.0566725971221111
0.0555613701790451
0.0551097235988706
0.0551431594005504
0.0555260614816201
0.0566599971791891
0.0610739179277446
0.0554632715023001
0.0563186628751369
0.0556427634299509
0.0544184457563458
0.0618335902603063
0.0673161638207225
0.0570075942375007
0.0566911860010418
0.0562664981797908
0.0544428746461866
0.0576341272273874
0.0565622534080756
0.055654230511326
0.0556636090634062
0.0568377518982162
0.0559109742971509
0.0557062610887482
0.0560396084588854
0.0540290448743556
0.056261898587034
0.0554443490034912
0.0560119792629264
0.054882177518975
0.0555390738407863
0.0551684433450295
0.0560863402596187
0.0631340097815271
0.0698144011346524
0.0621854478652326
0.0625306861699715
0.0578167191832093
0.0565565596760105
0.0547727566537989
0.0573954907811413
0.0562141899841229
0.0565756870006896
0.0562363865088417
0.0557378470355599
0.0571367119432932
0.056509497171815
0.0555691213045098
0.0558011421428328
0.0543966898101104
0.0531523117515532
0.0569428472196557
0.0562398131003755
0.0554754694435537
0.0539112194882554
0.0559482111529402
0.0569079490072399
0.0624628523406258
0.0553018962340751
0.0546411949134024
0.067889760297046
0.0772547312605059
0.0601241645208318
0.0579624877782682
0.0571234871727363
0.0532757043237397
0.0565580194551994
0.0556189220507323
0.0598633747722179
0.0569028356248854
0.0562196137531516
0.0565399040786635
0.0616086793122012
0.0575445297664031
0.0541534165461787
0.0621209215339289
0.0780490141131272
0.0655813695830618
0.0588593559895297
0.0574226133290647
0.0621091563978317
0.0742178136847377
0.0665079992199302
0.0561407476579037
0.0619847793386703
0.0585168386388319
0.0594424351036477
0.054829621680107
0.0597086771244194
0.0649833185594369
0.0637626894627793
0.0595682354308451
0.05842958211868
0.059716345955075
0.0605407543323157
0.0596836575869042
0.063989107744591
0.0674380820239108
0.0652427601736671
0.0607265255447069
0.0644398492704192
0.0606509422529242
0.0616065286980309
0.0601142819014062
0.0615222466595897
0.065478075402241
0.0680592693958494
0.0641113114220731
0.0716601134067745
0.0690656578377794
0.062249808006529
0.0645900359277916
0.0719066476259782
0.0681567879793864
0.0619857899729903
0.0650491851242143
0.0795002253938783
0.0801556761760317
0.0714786531542334
0.0694646180314363
0.0612707781448457
0.0664867447991327
0.0589233735645078
0.063389353916939
0.0680361299782941
0.074823615098141
0.0609875316067806
0.0673019550226956
0.0643379577793089
0.0740842737664892
0.0691665295503373
0.0682001264959268
0.0662191652896754
0.0658225686861665
0.0758305092853607
0.0683822018033931
0.0614485800311703
0.0842055976111804
0.0901658867318965
0.0821922298487054
0.0756524591730185
0.0708455825781548
0.0852154504628682
0.0801721276546136
0.0704036238543486
0.0731607844053906
0.0710650450211713
0.0679250722850783
0.07148830434631
0.0916227138589966
0.0830883112942383
0.0714975674412882
0.073674346017512
0.0738878813142066
0.0881847786236571
0.0875644494214559
0.0725455285072031
0.0804237562164113
0.0764498396351154
0.0753265657299086
0.0932147135375706
0.100636655261525
0.0844813924958253
0.0953903003597795
0.094203769506283
0.0892124929430145
0.091336218640635
0.0843120227512445
0.0950193588994051
0.0983154531677716
0.0897197883128665
0.0788294049287682
0.0973967715557638
0.102335143168845
0.0963726207299988
0.0889376528244792
0.0919426149628307
0.0807787553518459
0.108159586744074
0.13960954804044
0.119900233018779
0.095415926759141
0.100967281767221
0.111772060670999
0.108322449183621
0.0981525708230513
0.100534507659204
0.0994278275739366
0.103039129548201
0.106464493978365
0.111571583643702
0.108279111809197
0.109942965973594
0.106474190876995
0.109249435892394
0.120537865061555
0.157988906335141
0.134346615506456
0.129969954901636
0.122962079409831
0.138501676264977
0.122389213939021
0.124898161435949
0.121093716925022
0.128933770997667
0.129514558637009
0.125250951036858
0.125980748167608
0.140336076103185
0.138861152860443
0.149489195144563
0.151239279699122
0.148115692090489
0.125939608635056
0.158752049773969
0.203362223785855
0.193617783762228
0.155061928516569
0.163476252468424
0.161438519403202
0.207836068973372
0.186321809293189
0.17030376166064
0.174376251186014
0.174673056282472
0.182559179274948
0.193193022007724
0.195332989816041
0.20752300763736
0.198630738992908
0.202714609743845
0.206611260232168
0.266563977098583
0.264300184562368
0.241229415817669
0.229604035883851
0.243889817666562
0.252109352354333
0.248996987216231
0.253863124243879
0.248216972882922
0.269138088807553
0.295916636038712
0.289998024408741
0.271476731430431
0.298209314879308
0.291938034214047
0.306426750737426
0.313260037737733
0.338931154619566
0.312960677988237
0.318394359368634
0.323389018868672
0.326697011588518
0.336701898310309
0.353662154059753
0.359437984983002
0.350987310553266
0.356556913051781
0.359159391843848
0.360779009966033
0.36391108916756
0.365133460838438
0.378235890644876
0.386391680689142
0.422724161234327
0.457021463974059
0.422444396525704
0.386659554298955
0.379236824941394
0.389519014748072
0.405127955018471
0.4114957204276
0.41304786293557
0.427645868345835
0.398509728333812
0.39125160815941
0.397355868502431
0.397535050997856
0.406060207539367
0.390400616980272
0.404214214737283
0.405296497759049
0.409916594555591
0.417004528080628
0.452358197054576
0.419632438454359
0.396240157726608
0.407487157478987
0.395082748527344
0.398588557815187
0.387239598358698
0.400578157045033
0.40161812142571
0.4003546038668
0.377742141282397
0.385663297824993
0.389084260164887
0.415487471073361
0.386262304264991
0.372293140942715
0.374090322241706
0.372825549146287
0.363213029436285
0.365803981117781
0.395960706985963
0.380897113046774
0.350884560093752
0.359934497527864
0.35182170777658
0.356940759141224
0.343347427192971
0.355871438170048
0.342041754057211
0.346193898464966
0.342811552644938
0.340836738145104
0.333928718178121
0.336892280838892
0.333900011551726
0.338171115484305
0.332018967275014
0.336105875134091
0.330226587696503
0.333154391856971
0.332656143139085
0.331234128028004
0.323436749567989
0.329020253541274
0.329776602434211
0.33148665936973
0.322546101359654
0.324701814489519
0.321756631620203
0.322806663781986
0.315378452497915
0.314905226949185
0.314847700628645
0.320414929496567
0.317999998485369
0.316144048518176
0.311316059727635
0.311349120882047
0.314613095375168
0.310786749947527
0.311345285430178
0.304177587305638
0.312272143175204
0.331663571661039
0.338591536303556
0.310364632009904
0.295609461381593
0.305530394399743
0.291119342804852
0.300781948330945
0.310176594387793
0.320251027914326
0.289404665221965
0.29299605706227
0.284763726589852
0.291956868449776
0.282883118606333
0.290446081359258
0.269341717281828
0.279595386036956
0.283904082854283
0.345560153584089
0.323399429058244
0.33110554435484
0.295773342115148
0.257481836113564
0.283224682914598
0.284326105744798
0.275028930215045
0.251505108873707
0.262887392220666
0.261670637941101
0.267687214340884
0.254449027036445
0.249056337883468
0.249875076929089
0.252128803325143
0.266916910242865
0.254596098611791
0.259820418217406
0.27248717472982
0.259957416988237
0.256811620577518
0.307277472036037
0.257359500429124
0.239242297791057
0.2351866251071
0.231658686010797
0.245894074914194
0.250423371320153
0.248827740131914
0.235617993158958
0.225323200218017
0.220183826563209
0.222503915626305
0.244134984027057
0.222688254250386
0.236313637138342
0.219692804879842
0.228501310255039
0.203568012132808
0.236045490845937
0.236617599382972
0.258437561376182
0.218053235185072
0.208313210663989
0.23073152715554
0.23383458778328
0.223098543652307
0.214781717322363
0.206122701455596
0.209694111349467
0.21716554663669
0.209238451744821
0.20440629446982
0.213168388179755
0.220653477970777
0.226422077055305
0.250128986853846
0.232786132190384
0.209237956567971
0.197349370768907
0.195250791773466
0.209586427668483
0.191970772730465
0.200701092226345
0.20431788325514
0.208780408406412
0.207763725308928
0.218995890885064
0.225534116335827
0.205508019878243
0.209346996937331
0.207284922753943
0.213624327548809
0.239494398160609
0.245843014072221
0.229436087794245
0.226880402873487
0.230618952317451
0.236889395883195
0.226038880395884
0.234654747958964
0.228528633623039
0.241737344153692
0.24357918510819
0.25256782884065
0.250947079617998
0.262212162838428
0.260553285079087
0.288945815645627
0.281158189179125
0.294175737473543
0.271596139223825
0.318252941909432
0.308381732306075
0.319003871877969
0.305760893997219
0.308288162497368
0.313712781848873
0.320371447060185
0.317671329369835
0.336338462320138
0.346000846071969
0.348422539179415
0.327522313380327
0.349121528189922
0.334041346660929
0.361889662627533
0.356651698450298
0.3779706560968
0.383912835024192
0.39700992303272
0.381841593287732
0.366255918945568
0.372336459075484
0.363390758877429
0.372171382441591
0.368626849961982
0.367442995937581
0.380455649470647
0.390355813840461
0.387945010906283
0.375155130636675
0.385654734498094
0.384999352948947
0.385730189653848
0.387167344137391
0.385719113691979
0.390841861883582
0.396816868208735
0.390195611695539
0.415686164521313
0.436613754224898
0.437014046512283
0.404543067903445
0.41615767999423
0.418906305544049
0.416043092004337
0.421153428944314
0.432960457408316
0.438833598044224
0.431482928917788
0.433022983840303
0.439147631814352
0.428901321297288
0.453637639964279
0.44634577578525
0.455085258489342
0.438125711120033
0.451244415023117
0.463604649943655
0.494204427749767
0.481001726745939
0.457890574826553
0.475721452290421
0.457617034247744
0.464765001464759
0.456454465141458
0.469319038556275
0.466910657724991
0.470006619028083
0.465580565444723
0.466068085984767
0.463350835506759
0.465173802931662
0.4740388203857
0.47942252351557
0.470006777845147
0.459090210243791
0.461690210894151
0.460774947095733
0.466406459799361
0.470656685658925
0.478486000375883
0.472174587896531
0.460786394560067
0.467175463798399
0.482127316759698
0.48056927226372
0.462238229411493
0.463146784443157
0.465760060284186
0.463730588403635
0.461748921435872
0.467571436167399
0.480764968019064
0.482292261387588
0.467815450472368
0.483801113927314
0.473278130386053
0.485993592808707
0.482495538709958
0.490836244265997
0.488761286881712
0.495374011776944
0.494608665561548
0.500225841931439
0.494426513716348
0.50656492403274
0.503320908786936
0.508207581781938
0.503617740904053
0.499966701982424
0.492819626014652
0.499598984590208
0.500958810660208
0.499199009878575
0.488184575788662
0.486702871910822
0.473175844642511
0.492252938536793
0.487401367509805
0.48672191593717
0.472043859198171
0.474767274712242
0.46043596455379
0.462446906147491
0.454538005225392
0.45527403283964
0.455422970133174
0.452024678004294
0.446733434383491
0.447918116482542
0.442541714886201
0.441100858302338
0.441347621467479
0.442903968616525
0.437980278071498
0.443391421459118
0.43907779024488
0.44005786297866
0.432014398871033
0.436689870488681
0.430840046127151
0.434914563104483
0.436646737838774
0.44805026547566
0.445129632586948
0.439953956425452
0.43800905805893
0.437545332553326
0.436357220409555
0.429717802617476
0.433255320110389
0.430478271112158
0.435740023778825
0.433416848374849
0.429264098776134
0.429656154952444
0.431799725569004
0.429343802838171
0.434196981368584
0.433582623224536
0.428282323245224
0.424848279578752
0.428618086969433
0.424427000210751
0.429488652701889
0.429946656874521
0.425594807279266
0.427829031355414
0.429001640535416
0.428566082167855
0.42625103035694
0.427441997852218
0.4265135369458
0.425865702294374
0.422770677076103
0.425236742624387
0.422705090980521
0.426736769941337
0.423639584162753
0.424411023508934
0.42534549892911
0.421035174057171
0.417910935716517
0.41631173336004
0.409295772095253
0.408677066087347
0.407480626655744
0.403778185475557
0.40104793793965
0.399582854528554
0.394287228094013
0.390918330967611
0.385746976987489
0.383196844144079
0.382866378660441
0.38137050916073
0.377074801635125
0.376978936822479
0.374963974549193
0.376220428427922
0.372248966133854
0.36693377663549
0.368207692515184
0.368398792459405
0.368736049055315
0.367176075781752
0.365897529492748
0.36635137147806
0.362888737125876
0.366947820875282
0.36675913220816
0.368995220423458
0.366248782566822
0.370775360531751
0.369050780029238
0.373686471229481
0.373121126969604
0.373550202311884
0.37592703342744
0.379493914675824
0.376626164998971
0.381066548977668
0.381266307059465
0.382670830396087
0.384763494695093
0.386277903469403
0.384556089692367
0.385219998664037
0.385791950255135
0.38860607140358
0.389019697262878
0.388894130425407
0.386604913354249
0.388082421190421
0.385220685958548
0.387060348706972
0.387115299522987
0.385964703928205
0.382959462029397
0.385690512929885
0.385037897099625
0.379944418842071
0.378883604008222
0.378170423702013
0.375933716936122
0.374600844152679
0.372193081537726
0.372355827512688
0.372664207449952
0.37226615107303
0.368428896057166
0.368546922002328
0.366289874902419
0.367173362188511
0.365086058160537
0.364504037651503
0.365257658831123
0.363456016897424
0.358660802774018
0.358117679670855
0.35786313845571
0.357122455904601
0.356618629873243
0.35501599268277
0.351787442303492
0.355174732683806
0.35677440036338
0.350752964825856
0.349628001681062
0.347277886261806
0.344217816543892
0.347498558228152
0.344472550823933
0.340906313252386
0.339456911686956
0.338842615412596
0.332389017985386
0.332623464344535
0.330618016054888
0.330163012831782
0.325761117422845
0.321364441378615
0.318402202502137
0.3196633207045
0.317553352472416
0.315878990842378
0.314539110735167
0.314728922554643
0.313638895694992
0.31024790949669
0.309776338937378
0.311819913009877
0.312900621425726
0.309826101236812
0.305618859610205
0.304870761999838
0.30328379895966
0.301197528348592
0.298851773974067
0.297312155416799
0.290060672241912
0.288361266033608
0.283773718189605
0.279390272938038
0.274123191307578
0.27194634580909
0.270937533919105
0.270029280443854
0.269244227360311
0.270192309599072
0.270951263704019
0.274203806871302
0.276559001497976
0.281365358218502
0.289924165998937
0.296025943043809
0.302271522996382
0.313225215159528
0.324044284903283
0.334182388388079
0.347842457970379
0.36054261177494
0.372380151490794
0.385232779330348
0.398330036075114
0.413768576375102
0.426166898472931
0.441549068121907
0.453635888641021
0.466679758375403
0.478389155884489
0.491664598315985
0.502463583822208
0.518074474870563
0.529398181571588
0.538656170729655
0.549348006199301
0.562854698440707
0.569910391311239
0.578569902166188
0.587696415505473
0.594184116670035
0.599311320096345
0.605703872116944
0.611620234597953
0.616395221394966
0.61754881259553
0.621372641491347
0.625524842965155
0.627817931823541
0.629033932734258
0.626737687279035
0.623611114624024
0.630830633045904
0.630578266950022
0.627398527720643
0.625672956727543
0.630646059552151
0.627257912841839
0.624825515594256
0.627837060455679
0.631710188975073
0.634706169008432
0.643086165519056
0.645482246285301
0.650898765466128
0.658610394780091
0.65837866684327
0.667279484699611
0.675313890490542
0.677860229598002
0.68823878774818
0.697614637713658
0.706094582654843
0.711320059522496
0.720891309683743
0.729403065713978
0.741592290646324
0.749744573048502
0.76564421989697
0.767550345146032
0.769622991809563
0.782821326987618
0.77956614733526
0.77911411593923
0.786857838391826
0.787909322508485
0.788710250787626
0.782374340928516
0.779965691495
0.774553567694758
0.77333556127794
0.768032760988644
0.76658563709181
0.767174724137229
0.774150631271353
0.774990691780298
0.783385529932134
0.794214145954728
0.795078576491647
0.809447114085829
0.831934166387456
0.837985536658743
0.848036059241088
0.858043817762537
0.872073838823721
0.886371803897777
0.895417491810774
0.898746458182931
0.917192858884222
0.930043884661257
0.942021339161953
0.954418266595964
0.971896864797872
0.981074065270693
1.00006276874312
1.02138760917119
1.03908411857613
1.06169931640433
1.08283158059501
1.09280347431191
1.11452955460658
1.12866619992434
1.14665759417195
1.15563141668246
1.18954358566943
1.19072181151895
1.20836360981844
1.23736018925932
1.2670051392241
1.28395916490474
1.263310414791
1.30600492076436
1.33552709933237
1.33655033867035
1.32827365316988
1.33083544607954
1.35567332349132
1.33238736248905
1.36373023683399
1.37066058066987
1.33964763699966
1.32940068026465
1.33102940354542
1.32759211875288
1.33869888381091
1.33592194899404
1.33978830571523
1.33668433620482
1.35103087625526
1.33066544079994
1.35548216823576
1.40979146476985
1.41067864339998
1.3931639854887
1.42195564178946
1.41889640405914
1.44204568425469
1.45093276751766
1.45815502710085
1.45026667923206
1.52563747911255
1.47622451477835
1.52808828257408
1.47592746954193
1.5428689408906
1.58695376012923
1.5626843291209
1.52943833056952
1.54925821985522
1.5202683222049
1.71058171103248
1.69417883025068
1.68604023454959
1.62858671076851
1.71296431972904
1.64653504893189
1.65110155480192
1.65960503347132
1.74190727145825
1.66806956633732
1.7502004680523
1.7666084590872
1.71074290538629
1.70370003124505
1.7502629809823
1.8257687907727
1.78495447099071
1.69829125704657
1.7173647729448
1.69047949538728
1.77677817160306
1.69657811946738
1.64793101768066
1.63985706095839
1.62565946259522
1.56369110224953
1.58030540549759
1.51392532088213
1.48187342253825
1.38313752166485
1.36572114459073
1.30175567438026
1.25782239966573
1.22566085436518
1.2246081996518
1.1883972657301
1.19345706422991
1.18273412153607
1.16361556115573
1.13054530194658
1.14992783716855
1.11277164587534
1.11720422483241
1.11377187352452
1.09635050469144
1.07270553121016
1.05093793392006
1.03654574334507
1.04450369722438
1.0129824933455
0.984664496436312
0.968035111427145
0.950165420195469
0.91673436297141
0.891225179097016
0.864386464398471
0.846107011375315
0.811615822813832
0.781112190376929
0.747264170984443
0.72084926943976
0.681282879171168
0.655447463152551
0.625692919759923
0.602742854143568
0.576675418891171
0.554729616429816
0.531218562954761
0.506167032270252
0.494507472493317
0.469889536707673
0.454204684140735
0.442530450335629
0.426963946498122
0.416109412527862
0.403538077704944
0.393997809722776
0.382289180632864
0.378901852055416
0.372478419776927
0.369356054409976
0.365445231186382
0.36420587922026
0.361371900780638
0.36221672695048
0.359485614185461
0.358631164052721
0.360149525858391
0.36031170704017
0.361350320772292
0.368327831950645
0.364292273173331
0.371274714414832
0.371699423716367
0.375095608799728
0.370487033328446
0.370074463832444
0.367978841852108
0.366551049842453
0.365023845156016
0.363645081075568
0.355746811998945
0.357861671087021
0.353064732452709
0.348881615486123
0.353807837439844
0.344935410150737
0.344173850989508
0.347490821301428
0.347078729789964
0.345776565906937
0.348813068397887
0.349959644936473
0.351758384919221
0.358865286065985
0.356274982297542
0.358340117705485
0.361192867519319
0.364682618941643
0.360050376228996
0.36103876030137
0.36784509791222
0.372258953009652
0.372576186288366
0.379286830999435
0.3734862947652
0.377640980512968
0.37648082845335
0.375640083265388
0.373127512486745
0.378670255596953
0.378056324531985
0.384265809281086
0.377410551792668
0.383434726298651
0.382948892457817
0.389844714495659
0.385331008350768
0.395693586509618
0.401179431575358
0.401374103767355
0.414196046790919
0.424135953277627
0.433466891116573
0.446216999557779
0.446738718880789
0.463837510001664
0.475384846277549
0.492547771546875
0.491441165691785
0.491431817164278
0.507942332059144
0.505089755197971
0.497019408729513
0.496676648288757
0.49555844243209
0.485579376288914
0.482558590854613
0.482063423096682
0.456044375332536
0.470120735045655
0.457235227462917
0.450539360718228
0.445989611130834
0.455121370312401
0.44973416470056
0.447511210351173
0.458734242826201
0.470423787832827
0.458918670734907
0.454094083735908
0.446666399303881
0.450600212519803
0.450179351053496
0.450385611846976
0.437204698444893
0.435612905746445
0.435319844875647
0.430112048370186
0.425670336280149
0.438162747609208
0.420027475646102
0.409414431252288
0.413049578861852
0.415539908871978
0.409571322183721
0.405875707182509
0.405271768919916
0.407704123519536
0.404057242646013
0.407714541054465
0.400159956768062
0.405211201167193
0.399826251134478
0.401410341368668
0.385533104178777
0.397239908816074
0.389082991426943
0.388791645677364
0.389513634338139
0.389158810096951
0.386562222836882
0.391607428163014
0.38528932421762
0.384282375394227
0.390423654872697
0.387839408789305
0.379044729963795
0.378467425300792
0.37816695443529
0.371866806189385
0.374304009217301
0.378958871877419
0.367687972683847
0.365639145666891
0.37207193184911
0.376905529094399
0.370563926408975
0.366544951305311
0.369463488351893
0.368005294368708
0.36594345514632
0.373024802322024
0.366436381152448
0.364591174997961
0.369353422400914
0.374536208161109
0.365299060857378
0.378541597210979
0.370330447728304
0.378983410645784
0.376323692271081
0.390787620429966
0.382371353521701
0.380702840148739
0.385961926976034
0.396334970322256
0.380881917721082
0.383287952967818
0.39656314318288
0.398068922352921
0.403169932331853
0.421214369374112
0.418378524921633
0.421989209804466
0.426408263567669
0.420777294659223
0.422973530064617
0.444584752285737
0.434729252715829
0.424627266830968
0.437717474459476
0.45616678371969
0.442120969222289
0.475513603131414
0.476139289583609
0.498343037324301
0.517955965818607
0.533188789689109
0.5349508980512
0.554042668620048
0.569004471934496
0.568238014872954
0.570689761523867
0.597394447310292
0.604654260254593
0.609416620093024
0.606787127797096
0.639256195577919
0.622646816950281
0.63304495454748
0.610520858791408
0.626643022559549
0.603030560910776
0.609106871242902
0.609136970960244
0.629050994760809
0.629936585589112
0.640881366539921
0.584649090617772
0.604694022191254
0.631170963436888
0.641754912351913
0.599909382796238
0.617632832487085
0.624967048515834
0.615871488951555
0.569052619747466
0.586248742692225
0.611714355801158
0.584718010945649
0.596170148503026
0.596058288433431
0.569211466984883
0.610195221242531
0.550770461180721
0.588876099433459
0.597172738083651
0.601055435591643
0.558768598783553
0.582674201945336
0.561567816636576
0.551760603086971
0.566853814192847
0.591368685425304
0.546200325119978
0.557574862133083
0.536444555090521
0.559486194398118
0.540064795492019
0.553571024469874
0.575412609013713
0.560788072982089
0.529512638229301
0.585037750011245
0.571504564906914
0.56231094275766
0.547884455488662
0.591763344333255
0.565998841885065
0.581887864978512
0.599511614485089
0.647099328913892
0.588043075639126
0.583487655421715
0.627800611136146
0.61301490117635
0.538774344647585
0.608061834542257
0.573016787337458
0.598207173238442
0.577979893865483
0.666397640501371
0.59412434142974
0.69534509944574
0.575296129509572
0.682303571808123
0.605040761131624
0.611433956152587
0.63104612385046
0.642919305881179
0.552941368897394
0.64205360883997
0.70723501729013
0.736940378812693
0.687125694160417
0.758708757296016
0.710875052168188
0.709577878176636
0.70773340083615
0.896359166981885
0.808024197514646
0.803499669511529
0.739086389621211
0.747024445432852
0.680159443391066
0.75169282331015
0.721217676086652
0.823334698059883
0.743723477271024
0.72830132308744
0.7127589227097
0.93191227415777
0.777734069593359
0.811620608041782
0.725214242430584
0.791246197524657
0.684425975815212
0.877653317941097
0.828923858598754
0.683714545245727
0.60062851422329
0.811715803405768
0.65810436061908
0.720225290872245
0.562556168190567
0.865239136728417
0.826715077075273
0.707146709787297
0.718954873146252
0.978210275627003
0.728070155711941
0.813154393864781
0.707251958479857
0.750160034684816
0.774594058532249
0.8224292392907
0.680150069421698
0.609266301265643
0.756534947606558
1.4218471611489
0.858333378277494
0.84749960095243
0.795482443286322
1.25264696687857
0.781331421610081
0.916085943869277
0.686349619609491
1.14880202224314
0.762601049413701
1.13499747038416
0.830882289155639
1.05575632883443
0.524975797799055
0.667581393583539
0.61066439955413
5
0.766938775294806
0.748141542448552
1.0973388771627
0.824328585249019
1.07570757770578
5
