3596
4000.36533379555
650.420452594757
1
2
2
0.0838968473434817
0.0733105963402764
0.0789879789501228
0.0763841494610587
0.0863460957259592
0.0820516473374596
0.0806202264472764
0.0691394753336764
0.0804189489145222
0.0759769226967779
0.0691529706723525
0.0731668365847571
0.0718105034733239
0.0695627989651727
0.0858549256381673
0.066229195146484
0.0812856724699321
0.0751559281506665
0.0803518408398767
0.0678341002285246
0.0750741909153389
0.0650781704677051
0.0694124756761621
0.0718140862737914
0.0799113393989241
0.0707459486791888
0.0782073044191001
0.0755997451931932
0.0717915930713801
0.0739938414903521
0.0808681393556649
0.0704468605191714
0.0733220468317503
0.076004685343231
0.0776655765305771
0.0753926958062431
0.0750050962828633
0.0693308739024842
0.079284459298798
0.0759920027661157
0.0834500084790643
0.0687639340557445
0.0829296630097672
0.0782984579590238
0.075893012655351
0.0755195114051948
0.0757417189448651
0.0677108617110514
0.0731899045906935
0.075206502822927
0.0813213618053224
0.0667439311348682
0.0885740840681624
0.0837259978095372
0.0745380335350393
0.086117142786757
0.0875779219428603
0.0716484993381239
0.0786686001633893
0.0684651863004503
0.083933214177034
0.0832619537834368
0.0707253645719317
0.0743969378429463
0.0738114125833634
0.0695100920955889
0.0732646969230236
0.0747662729104668
0.0769542879277534
0.0754961296310062
0.0633810968767048
0.0807634984669112
0.0952678042785529
0.0737972537011122
0.0793565612324565
0.073178888185142
0.0745784462144694
0.0697779078343512
0.0751054428316356
0.0703859366141638
0.0798050006032415
0.0712453459159558
0.0780708234300986
0.0691691423603448
0.0757421636373446
0.0885815234523855
0.0703460882673833
0.0683642369013506
0.0953353862480587
0.0827015162053946
0.0783012547911378
0.0715564582500566
0.0694772645409337
0.0648851632906429
0.0748584106460537
0.0688213284289399
0.0718628619165813
0.0690862076451827
0.0691036509075
0.0742807270824267
0.0805628015243484
0.0648192626782745
0.111715164435356
0.0750315191200883
0.117194395519238
0.0902346685878368
0.0570384407713595
0.103015269365923
0.0892514846513007
0.079350454161072
0.0727855431226794
0.0744034077286993
0.0734024640529781
0.0793167240890746
0.0614098039851371
0.0774757116140142
0.101526214266543
0.0710616959584345
0.0751903723432742
0.0734660935409517
0.0595708124308255
0.0798378411872526
0.105700884625868
0.080479356827234
0.0843972676483845
0.0692418273818393
0.0681275917306691
0.0894038465235165
0.0986207623649052
0.0726828055860257
0.0693869342403756
0.0650361791728479
0.0659856224011314
0.0578862411165508
0.11433929147894
0.0790810772121013
0.0706335708380353
0.0595406770912285
0.0814807853226567
0.115084259884306
0.0861008195902514
0.0712633036651648
0.0578915268986412
0.0654792087749857
0.120328327245196
0.079794989560626
0.0601842650265618
0.0780371940738351
0.0831731512641316
0.0652455324211232
0.0681470543780235
0.0555391693148619
0.083493163375814
0.0743061002054916
0.0380778369052509
0.0819588816933693
0.133007576512957
0.0729663766805135
0.126181763861802
0.0780212526612893
0.0801536893867097
0.0681109245754317
0.0650760395956725
0.0622855158944071
0.0738276873295982
0.0655680292377015
0.0704556569899188
0.0928286569576573
0.0705493090022095
0.063492467938253
0.098788800011927
0.0802355066982694
0.0603424260532891
0.120231774465722
0.0869211798951651
0.053453576195432
0.0991796238692863
0.0839578907359991
0.0631873945061609
0.0732331579228496
0.099304887840901
0.0675939487316608
0.0747846876707876
0.0625723874015919
0.0710735143078194
0.0783590979294911
0.0759265125668347
0.0685691076227287
0.0764837376285386
0.0572868592033462
0.0732897697648646
0.115121885765205
0.0995648075544143
0.072954576999377
0.0709992159295801
0.035771638863597
0.0953968049704653
0.106863557113855
0.075970362819811
0.0696710597491313
0.0667249639784522
0.0650463948623855
0.0625188902058738
0.0666325637800094
0.0644383489292997
0.0399078268142718
0.0959306775441766
0.0847089356045507
0.0706066270724207
0.0685386003516284
0.0713087733693985
0.0576827885446875
0.106736283266593
0.101213338699287
0.0709722329939275
0.0655793162367539
0.0599776564816844
0.0850248784509731
0.0887083311717665
0.0688357455044267
0.0726439107619108
0.0732602470394417
0.0730461885610651
0.0683430361319311
0.0672861633628881
0.0679627519135399
0.0701141431846062
0.0648891808770565
0.0699979466441073
0.0684306231512191
0.074896909290419
0.0688762849915582
0.0678217053501652
0.0720205552524189
0.0607771808726529
0.0701437997003493
0.0916507526121684
0.071564073863198
0.0710539739325252
0.06675908828736
0.0695443999050907
0.06543585248789
0.0697540081533823
0.0713947213770808
0.0698349227856963
0.0532563254495265
0.0966098466563758
0.0822152377834338
0.0666993177344699
0.0597649606684491
0.0902102015970665
0.0838408215396354
0.0731100804761601
0.0655960103838704
0.0720555533714694
0.0623448393418985
0.0628920331904146
0.0976397167369763
0.0772627886378213
0.0607608954711953
0.0832648721231814
0.0783206888218267
0.0716699289714126
0.069262506383424
0.0583754753035958
0.129669637641971
0.0864257560409156
0.0606040761603223
0.129469643341361
0.0904046817463148
0.0808282474740668
0.0670563408209917
0.0374150536805142
0.144050306801848
0.12934729705277
0.0781899901452941
0.0814385521790578
0.0896277262184208
0.0754333767770361
0.0733000883001676
0.0719126080306317
0.0824101138827304
0.0981727269884424
0.119036212269691
0.128613029704742
0.0647473878068671
0.0958855325245073
0.110140536000633
0.0832457300495218
0.0792451500136542
0.0758248158287328
0.0716586434685134
0.0940271287624403
0.101182654165473
0.0947445891241909
0.0884106571326154
0.0812715562525606
0.106960768339063
0.0932278041529481
0.0823764480822732
0.0945891703778164
0.0933684281582601
0.0854210884164869
0.0878490092359489
0.0831094555037249
0.0919783334745296
0.0802607572432204
0.0764953512542373
0.141464032532344
0.103761081481495
0.0919458261253744
0.121767090051971
0.0990180381024201
0.0929395147968771
0.0930511917848473
0.0904076858907022
0.0937479209051903
0.0863507828957247
0.0867942250876288
0.121850574814766
0.10666700546802
0.0969591826639034
0.101843344300756
0.0906404728751051
0.097046537905066
0.101220032504267
0.10337930918208
0.110064381306372
0.106608193307079
0.0947934368564878
0.121223856407498
0.13335543380294
0.0937174184945706
0.137460002312993
0.14808553314707
0.11886649079098
0.118234583144248
0.113920451062638
0.121129011545755
0.120516296516115
0.1291199022321
0.125352716958703
0.122081694934908
0.144156716557324
0.145827135150475
0.128188250029886
0.127613933393604
0.188855354836379
0.207694954388027
0.162147093442532
0.145803907304861
0.130440069758671
0.170757339123853
0.185837932943848
0.17795390244614
0.19302543919295
0.168136749142917
0.174638551147305
0.16869109382123
0.178960084455717
0.18107369920899
0.187076935349333
0.188956645859044
0.187926002443002
0.191333620333551
0.203287018484016
0.193439331935755
0.192373093311454
0.238427082964811
0.223763669260537
0.208314543257772
0.213676923743933
0.208509913938574
0.237076344792187
0.241172801959219
0.267535197625643
0.270549814584817
0.265439227470818
0.280615499825786
0.253907568718084
0.254720451823955
0.251408066815587
0.257939242193011
0.264203809467633
0.261829676784773
0.260552292731861
0.266098143035986
0.276759304166822
0.280706578056624
0.279430022139839
0.281177141428293
0.279286985752444
0.306181702808566
0.307390276859225
0.300434977393367
0.296165095402435
0.302083340432504
0.361760663842331
0.362475001057223
0.336490186020474
0.328802090867822
0.329299668998773
0.334137415315181
0.340212240398869
0.333760153286361
0.346748833303803
0.344200061668752
0.385955654555219
0.362248964185937
0.378647105414657
0.374914826203859
0.361257027707291
0.386297619067674
0.395675914217671
0.382147846898763
0.422827120543682
0.399703388524264
0.373065749601472
0.407250873345768
0.418273613737269
0.413036431624363
0.435372497009029
0.412059280468597
0.412976591383244
0.413241673621538
0.430873404864342
0.418840648097928
0.441510443996357
0.437146561583469
0.445372457817871
0.44871492773427
0.4595933103647
0.456279612012613
0.476033350995611
0.454308226403592
0.484188270848561
0.486212313240586
0.4789289967297
0.470508601245437
0.476022639108464
0.503834277692217
0.519872144763148
0.537514917728928
0.526694443449503
0.498973180983185
0.51491173801654
0.50227464266148
0.51426556040467
0.516242389463859
0.530739022736235
0.529035202333214
0.561970712048332
0.53606087953255
0.55659720073531
0.536228318759514
0.561719051111787
0.543438710164768
0.552219661190985
0.559548495688299
0.577091055752692
0.570641432812933
0.569470998572619
0.59845845732144
0.627451150782505
0.651721712703793
0.661234912618918
0.624085514947958
0.630502516911013
0.591070963770999
0.616249254861213
0.618113727618946
0.656144505674685
0.638322695196573
0.618469185912102
0.624545337229979
0.665907593022737
0.639931307814293
0.672168571645701
0.673476749322468
0.691282171897947
0.662308961559235
0.676357332495051
0.692333587350939
0.701567892194141
0.666083938345277
0.696584117939147
0.660220156020505
0.712486478990694
0.709871263890823
0.721610085975365
0.705680121883727
0.753218587454132
0.732155606410839
0.745997567875495
0.741803751174684
0.79540525585004
0.734126692317709
0.76173279334208
0.76296944964582
0.777080887141121
0.784093786378974
0.792484661676744
0.780765459813806
0.791692856183134
0.765904446573911
0.806288628998442
0.784254311290291
0.817279862573094
0.79753015469982
0.849519272901594
0.804218570225169
0.864016309230971
0.8378079680863
0.861891390239031
0.821480252088029
0.860747120431564
0.82320606239702
0.850370839612655
0.805930475045612
0.886577427758487
0.828780673928596
0.860850172404218
0.861999063427852
0.939152015124421
0.86481819900663
0.927881461976856
0.866741525533775
0.904039218147235
0.849060723694567
0.897692412242486
0.885055453789317
0.897539844381727
0.8589883415449
0.931935552459575
0.947381527651838
0.958543559566836
0.909296441747275
0.93559559505397
0.916416965633537
0.989732728589536
0.923404849129636
0.919114579098011
0.944548589592739
0.968895781815692
0.989599215537801
1.01310517468874
0.956190083616216
1.01753819845232
0.97954914295492
1.00446909030286
0.940051409016895
1.0408907082295
0.959106807486372
1.08223066421522
1.01097490227045
1.04200892568599
0.987423072926155
1.03895150078467
0.972196256313088
1.10967237495018
1.03746862110278
1.11458793782769
1.04441344613509
1.05915652748013
1.02429423367147
1.11902787939758
1.03398850954228
1.06451833631291
1.03149704385044
1.11094000006613
1.00022782656796
1.1180562083874
1.06613962607557
1.17174593862859
1.05720668681702
1.19234281561077
1.05729674674168
1.12269404717912
1.11680156111366
1.24987074221096
1.13457115251212
1.18803782631243
1.12269963667287
1.23632864449852
1.13579773391519
1.26492518024897
1.11471232966734
1.10813613294842
1.2274580107807
1.34317126240959
1.16637822726282
1.25769545978233
1.18482644724084
1.27596200039474
1.17145700196607
1.27383534702421
1.19269963026948
1.23257914513354
1.14724336183372
1.24851460222351
1.18417383474844
1.17719021496975
1.17162244754776
1.28845065115184
1.21252392205
1.38025826723861
1.16310689329181
1.20674931932324
1.29437406722954
1.32480915218757
1.17876839274786
1.45037444621236
1.28997840255518
1.4482497435893
1.31273206073609
1.42283112509493
1.2706428335228
1.33532277388163
1.23703117164014
1.34020083657903
1.21441948218848
1.3310281983052
1.25519638132351
1.40636400226522
1.29141944888125
1.29085143414015
1.25888114217139
1.45411299332633
1.25361834747797
1.399815055539
1.22162821976362
1.43261972065335
1.31055365658345
1.36954154552871
1.40324325862644
1.42671040177784
1.34994605899396
1.40851521821161
1.31255362385015
1.52358811025251
1.29935800646255
1.41917657265508
1.25195028168526
1.47044662861568
1.34375486241861
1.63095764793748
1.27904588089757
1.47771335207439
1.5484081218086
1.55269688890562
1.33420251854731
1.48286615884359
1.39887541428564
1.5093342776221
1.42736968307297
1.54525080918903
1.57181388890992
1.8358435938752
1.40996379493046
1.55355297038857
1.34513341286082
1.54533599280578
1.36037047269475
1.52642359765925
1.4958102088149
1.53295226789247
1.41905976937833
1.44564859320971
1.35548031005503
1.66157072553196
1.51089538158227
1.65842219267573
1.41864025235796
1.51362475154021
1.39066620066981
1.44808814504748
1.45518484078444
1.68522899487799
1.49623045882356
1.57601723121652
1.4778531997389
1.688105336284
1.45667226806666
1.47921099296414
1.49130101344788
1.55602056853196
1.47302762091197
1.66589480201672
1.42958677103215
1.46393846442761
1.56693993461227
1.52418843740964
1.40365970197055
1.80351442822167
1.41941586950185
1.54823546745208
1.44585594738879
1.5771154605883
1.42647187260788
1.68498646414417
1.50590931596338
1.54696643412074
1.40221793825348
1.74527048346478
1.39343658794905
1.56273862032037
1.54432394588417
1.74621205905747
1.49003285959442
1.52347305477893
1.49606241388155
1.54033473979868
1.45405529278551
1.58624783930806
1.49221617060613
1.92518757179138
1.49381177335901
1.56732732508094
1.37240184483272
1.46281455767286
1.52645917298478
1.54592499181456
1.50567067670259
1.71551872167609
1.51061461856606
1.49089228821402
1.48355822933078
1.7355749871974
1.36188767870826
1.6903412666378
1.50686462644879
1.78678147707852
1.51690104814184
1.5312878814966
1.4361742735073
1.76778281619606
1.49790830059809
1.71282296121854
1.39653192294227
1.57974942037169
1.46342749154566
1.65180935899888
1.5479760516256
1.53801577554737
1.56596206646846
1.59748120232485
1.43047196636107
1.68914206002448
1.45767371950362
1.52436935747238
1.37018168551727
1.51069869502478
1.4846551111013
1.49287954802523
1.46121702642005
1.68032350816246
1.50383817484185
1.51074208939465
1.37081478264839
1.64375668846184
1.43006575872148
1.67346820275401
1.50360363980835
1.65420403293229
1.53086871374774
1.72907889561762
1.48320750607992
1.7908496468926
1.54263155280806
1.73945389006669
1.58286455651409
1.62727506247018
1.50016232790136
1.49918974934561
1.54872286334628
1.7629145766521
1.50550031049089
1.6090656494532
1.43892544564421
1.62741948826638
1.47934395032823
1.69723678578292
1.52288079539023
1.78034422104218
1.50764157622336
1.5685245815909
1.41163559768132
1.51031191598124
1.51667012808745
1.57121099489991
1.56723880198974
1.48087591425804
1.44500885996723
1.50291248912977
1.5537289851201
1.66793154432257
1.51526020913925
1.57994996853013
1.45586912632316
1.94048131388175
1.47260900270071
1.6272364352006
1.49796048905435
1.80199320876249
1.36599217709076
1.59734772531534
1.56201469247425
1.59968600093122
1.427328911173
1.51338955845561
1.51254803010096
1.45292929220096
1.53368766301048
1.72063351656867
1.48891808741605
1.44556929076708
1.55419376462952
1.56997267200381
1.41339675238374
1.58783287444634
1.44020291307829
1.56833287400491
1.45509341779702
1.58281178292119
1.44594962963426
1.60508722989219
1.51661676761694
1.63205642035924
1.50610524181248
1.51155445529127
1.64725199222471
1.61460432526667
1.51406386263155
1.47854258183194
1.4447642522785
1.52484167745144
1.43583310850971
1.52539246510229
1.39924798379538
1.52828904055318
1.38495598820024
1.51498223856898
1.34792550352639
1.479666489095
1.38036617010973
1.55781189785901
1.41266093877579
1.50061552937834
1.4295713620257
1.51433631682858
1.43130787403423
1.46584724069065
1.44413446957875
1.5154064075168
1.38402695005621
1.52562969804609
1.36494169685619
1.50996961032102
1.36615553968
1.45719093465037
1.43711619989032
1.42597076937255
1.35038665207427
1.45863484633488
1.37670271172506
1.3946384339748
1.3021474841062
1.4607884850866
1.4194865148687
1.3996432218722
1.32577771399692
1.41321038095099
1.34454399172556
1.4651556617944
1.29426248506162
1.39355330558415
1.32274580147604
1.29543117168504
1.25038456212355
1.3664127986147
1.27972477316492
1.27875243356121
1.32648317619556
1.35957510820989
1.27471078621015
1.42133229524909
1.25015962022078
1.35216668384242
1.26663560821799
1.25854725814641
1.21253447928181
1.30406389191304
1.18694814524635
1.29092259302303
1.23357973283449
1.29174454725211
1.20662592823297
1.29028336477001
1.19189832435351
1.22028756294423
1.19279310081661
1.247007999518
1.16205132370724
1.17748739318822
1.18792036087369
1.20861045381097
1.15677322899392
1.16850502409179
1.08918093136936
1.2003859561079
1.15928894484922
1.19939338598552
1.14092575553569
1.20595288651826
1.12129211755777
1.19300174280778
1.08721797198244
1.10643456105282
1.10613783230063
1.13172276316409
1.10616502781507
1.11043181401598
1.06325613728895
1.12286987709402
1.05768990433536
1.11523725769413
1.04247151711736
1.08354767372799
1.01884580767191
1.08337196641491
1.04619231977289
1.08399862196314
1.03342260314492
1.05629581936196
1.0269831010847
1.02358167635254
0.986795856831134
1.02498950078704
1.00272806718306
1.023653705141
0.970635354682143
1.01833492436389
0.964025031479814
0.971521678283858
0.951107452122775
0.987655914089798
0.913314757394553
0.961528810659045
0.948558601949578
0.990226161505049
0.926033334981602
0.947016385974984
0.903583756014639
0.942317312756075
0.929551793622491
0.965305469492869
0.89858782419717
0.928691510656421
0.868135174154595
0.91202253177299
0.885434322828376
0.916555153569586
0.883049886256951
0.914248157553667
0.861325170035059
0.867116319589182
0.8608177015371
0.858075230679099
0.84117968852591
0.856988366136989
0.839150485960036
0.837931035271539
0.823179715998906
0.837243925235451
0.806501214366308
0.826031839338969
0.809803221449336
0.836165524618066
0.795573243049104
0.828852409707366
0.792021344234898
0.811401323706186
0.781980807393522
0.797760811926216
0.769381359287411
0.77718020476486
0.748288586010782
0.774622525431957
0.765476881837069
0.769758049995863
0.74649878396674
0.751967355777121
0.722506624370604
0.760287824580102
0.725618448337903
0.736302723735512
0.7216974001114
0.721574996783539
0.708461233641238
0.723099878644231
0.713865202042976
0.718400402383609
0.693066106660906
0.712169172807724
0.6993470533965
0.69768439120347
0.688915447885258
0.689353419190927
0.657590240346191
0.673715525539648
0.674420304549941
0.67242619040717
0.657955114174075
0.670197663448281
0.647437999343993
0.665805899814301
0.641958040089745
0.646483580241043
0.627554653371692
0.633556966043209
0.626467050037732
0.632867570429879
0.621775817087764
0.623376409062428
0.616312124116371
0.623002115997702
0.60892097684964
0.623870606264338
0.593118284495053
0.605694985063234
0.599324554278606
0.61419817772304
0.596399952892836
0.609670760585908
0.575561949432272
0.582592359768368
0.57578512211107
0.589351521475019
0.563432564541087
0.574031638460353
0.556071835463544
0.567211124958604
0.558907336297782
0.570829492670185
0.543676471842605
0.561140440861076
0.530702049331094
0.54604088217422
0.533312698981077
0.550992861358413
0.534211261813367
0.541369869270606
0.517450015776323
0.528498748351738
0.511190400128878
0.535271574947581
0.502005294063024
0.52443389793912
0.516563601614175
0.523670995178406
0.507423803615469
0.510947943570044
0.504558168902349
0.505413444003038
0.49888740322326
0.503891208656834
0.489728936832459
0.490392808414589
0.487442850319346
0.490519115485226
0.480814220348427
0.483404207455167
0.474444337738331
0.482978411033584
0.468728394790094
0.476668973483348
0.470990547562238
0.483198336955259
0.462649676692979
0.468824411090539
0.461943808946132
0.471831740112152
0.465308613094495
0.467412978287496
0.461880611779738
0.473263140098562
0.455620482615651
0.468795350188555
0.460860360945332
0.469638856581189
0.455835444770125
0.475581184832569
0.450255641346764
0.471034086822498
0.448777131609966
0.461953097134024
0.451546536159253
0.451470481823166
0.448214255251462
0.460754618140399
0.454841653913599
0.46333506486075
0.448528613245713
0.464210730915599
0.449968060914883
0.459636309560308
0.449055846797687
0.45837956869334
0.444320639173361
0.457305131766936
0.44778467722315
0.457891825946508
0.451900837100225
0.453383400633618
0.442672284093022
0.456447611459456
0.445888477222868
0.460239827278382
0.442333203694377
0.454434654401418
0.444766282599545
0.45141413432377
0.447774776091937
0.46122973171674
0.45171089226424
0.463128773488062
0.447784737992564
0.462730873419684
0.456324766164647
0.46372421412749
0.450950236834301
0.471950436992087
0.460613064501244
0.471325877271305
0.457196438468415
0.472656942826848
0.468572199271761
0.476411943514531
0.465518133729622
0.479968912927547
0.461145002990778
0.475243713421525
0.473174868017619
0.467142151907915
0.456671858257183
0.473283729563692
0.467037688362007
0.473927872008927
0.468672487489821
0.480147428552838
0.453850823541998
0.476599640464795
0.459307690090277
0.464361029194749
0.456780339870712
0.467314772477143
0.456993139314973
0.465864693187604
0.453858244419111
0.456895488944204
0.438265942705436
0.450894270168975
0.43728984447463
0.446850116561184
0.441678595360842
0.451450044289803
0.443889384480273
0.453401511356395
0.441601785908432
0.443471184177662
0.429692256014922
0.443628589291104
0.433019284817606
0.43738863985377
0.429231143500055
0.433418001008006
0.430082066922289
0.436257639312926
0.425821989587081
0.442802342895176
0.425136181997303
0.434634026546332
0.423239389093027
0.434115714388621
0.42560546696459
0.438224048717469
0.416499973168442
0.434376444147903
0.421093427143978
0.424060301970927
0.419109957861822
0.425120193743898
0.415965918098127
0.42574101658457
0.421131130580377
0.42520839914362
0.412795402959027
0.425050620338687
0.420294448610669
0.425392273463755
0.415465995881686
0.422941808492577
0.409530732612144
0.416111067479743
0.408103460348784
0.41692282208708
0.406583354608584
0.414247737564238
0.399004471433277
0.412362029516976
0.395741506016105
0.403988749149895
0.39746805719761
0.400567368063081
0.387681162530803
0.39916566984314
0.387005395882694
0.389549493746712
0.384525559221324
0.391962100680389
0.379676599437744
0.377052862907312
0.373525699831228
0.377636052516663
0.360337708338556
0.365910571618163
0.352506996418133
0.372185377212709
0.354103695932257
0.35810078307457
0.343967862437091
0.351991058769062
0.33453652425856
0.349173484196642
0.337250504305004
0.345488622183635
0.335152973811491
0.342571989559931
0.331172732831548
0.340968440337632
0.332413145882606
0.33090976416404
0.325099456936666
0.328843143117077
0.315044170839092
0.318997575643345
0.311811490906278
0.317226236914527
0.311552707920337
0.314978865695173
0.300405019919028
0.308499737795377
0.302917144070453
0.307653600456917
0.303172788175995
0.304988666845812
0.298281532818311
0.314260721860588
0.294838910735778
0.299101087290956
0.287678501355401
0.298446335172569
0.292310902474904
0.294812439001837
0.286663607382918
0.28634663861281
0.274484144668881
0.288138271527734
0.275621640525861
0.282039169853014
0.276333224061705
0.284732375077849
0.271740483236789
0.275666033626926
0.265024514944804
0.273867268318225
0.265749939383601
0.266739748417301
0.26155784047222
0.267280118833562
0.256277381069034
0.2652242341702
0.257716114878512
0.266383339442061
0.258403980327397
0.260430566273051
0.249563467822818
0.259325310620179
0.249646377032826
0.258569586965586
0.248372533815883
0.252810874543104
0.248688289168754
0.252759185803499
0.241134661242902
0.246090927502132
0.242089803125782
0.246752859122155
0.237550603153396
0.243680229665447
0.238987236891005
0.243132597324261
0.236470906421589
0.242694018017774
0.235812812900277
0.244375879467316
0.235229858282831
0.234542137793627
0.231329814831031
0.237576485213352
0.232234939842171
0.232777605641107
0.230284237545746
0.233956500528336
0.229421371009966
0.231008125154581
0.22277196750847
0.23270120192239
0.221051648527056
0.22925911697128
0.221167956353995
0.228339560351476
0.219068462659151
0.226406213793039
0.219515396570317
0.224061461209151
0.21895913125573
0.223563517766694
0.217948163572209
0.217163818271629
0.215834743797449
0.217046535460733
0.214751961600229
0.218412117003117
0.214635307585908
0.217457118515687
0.213613735537878
0.213896415608113
0.213621521160409
0.213737129884131
0.210249079064754
0.209580188629766
0.201344001076961
0.212666989883121
0.208836491581919
0.208702063444853
0.203547120227689
0.205944212650939
0.204032602331915
0.204363610767809
0.195100152310125
0.20305642302736
0.198253534935212
0.204783809600475
0.197588534377836
0.202771955579752
0.197954173505553
0.203540617460635
0.196157303149221
0.198837190766804
0.198456754934371
0.202402885762018
0.1998201143004
0.198090949613705
0.194150968054556
0.197917835224257
0.191622379511225
0.196968562514079
0.194195826708795
0.199184583255168
0.196148425725042
0.198788276221302
0.192687181904869
0.193679596198841
0.192999672253876
0.197196513763787
0.193161112435403
0.190876624458393
0.193292417328794
0.197117956326382
0.183613554439601
0.197091137647283
0.188339521115823
0.19299742870365
0.183595089025019
0.191201554399284
0.184409883108223
0.188517835197862
0.181702165670346
0.188611267561983
0.181231485593186
0.190476524322595
0.184165850853632
0.189511835897905
0.181705777933085
0.186590359530246
0.17757343317682
0.181738737255508
0.175355446109769
0.182266591923589
0.176461411768055
0.181286619168813
0.172792861955969
0.181616750025256
0.173964416081794
0.174176783240206
0.174703418351292
0.178004700617096
0.167821848244694
0.175746210261867
0.167558308035485
0.171457652996572
0.168390412699882
0.172933012747592
0.168425734674616
0.1702315032261
0.166706903370714
0.172728862282269
0.168320331089384
0.171118631495729
0.164597242457868
0.17143390308319
0.165382572366691
0.167790435880671
0.162879185355545
0.16583238610931
0.163189652914327
0.163315830061574
0.160116885477105
0.167395955541915
0.160269221689388
0.162015241566882
0.156289763058991
0.162150177562453
0.156415603132956
0.162616158056405
0.156662585392049
0.159860730803769
0.153207957049601
0.157563585482446
0.155143760354367
0.158001841402918
0.152093979098399
0.154746611957301
0.154960048707951
0.158073296011202
0.149100379088481
0.152579371960124
0.150085177184762
0.153560056190443
0.14506532239648
0.152090688110432
0.146597997229465
0.14735805262388
0.144954948489187
0.148813287284429
0.142145242111229
0.147060582844066
0.141815657680311
0.146017738587566
0.138983298586061
0.146002659699811
0.142505585132814
0.146075843512259
0.136599749539345
0.140932303394946
0.137324507729407
0.138311411387946
0.137669606150708
0.139616044015952
0.133727255125629
0.141519128350439
0.133107683154271
0.137860323773158
0.133383632174755
0.143445134890528
0.132744579566159
0.137525760950797
0.129592790051019
0.135215112287356
0.130294138021571
0.135165880871058
0.130838763868007
0.13527036164697
0.130930030675139
0.134990829806071
0.130918106093153
0.13398732312797
0.132933357524401
0.137262135255718
0.126800093769134
0.131014632936272
0.127394690919591
0.129295649511885
0.124709365624634
0.130433033945111
0.129459749182616
0.129570114853493
0.128695628958644
0.130123088410447
0.127207936074924
0.129412884563319
0.123570758551455
0.130867639829338
0.124478692065998
0.127785509820614
0.12449118665454
0.127414486838018
0.12286001007472
0.129849879366128
0.123650704162112
0.127106622745207
0.12247468836092
0.128071530733954
0.117874637531547
0.127069845762488
0.123685625210382
0.126197241249611
0.123122736544505
0.122290427439976
0.116774588785585
0.122990957156639
0.119114226795255
0.125432421170666
0.118389997303425
0.120979605983195
0.116099544888954
0.12261363900742
0.11837328906427
0.122364754838602
0.118347111507746
0.123778231486602
0.116295511318814
0.120385058184641
0.115664364465601
0.121313389076325
0.11599002409758
0.119419638567109
0.116453392892985
0.119659014038908
0.116086345525876
0.117317568407879
0.114779374482673
0.120208916016736
0.113601075467287
0.11852352702444
0.114026534872891
0.117120836347449
0.11519176442491
0.122423746008017
0.112612616798546
0.118739641144886
0.113981077789334
0.120399450579643
0.115748686057912
0.121024564367486
0.112134683205148
0.119348099494715
0.115730638638851
0.11777732403688
0.116133309197288
0.12030592182238
0.113454637549577
0.117452703472472
0.114061375616092
0.117574340644911
0.114005219533238
0.115369750342037
0.116228369842368
0.117451178154209
0.115204351429345
0.116404678157034
0.116028898574609
0.118290352559106
0.111073277792577
0.115837566598289
0.110520733881847
0.114550158150099
0.111915579992878
0.117204598450109
0.111249190454465
0.114106803305943
0.109692411660828
0.11433567523643
0.110757929559789
0.113438191327362
0.108872362453121
0.110708619289364
0.10684681096405
0.112848871106897
0.107583895317765
0.114858462250889
0.108608932792314
0.112175630531542
0.108140080359978
0.112796809506917
0.108816914903641
0.111918538470974
0.110498399303779
0.11082107172328
0.107434560069056
0.11400222863544
0.107357498549387
0.112265422276748
0.107507945592555
0.110527062935932
0.106519526472925
0.113594062849408
0.110118058582981
0.109358837625699
0.108719863409704
0.112362998305426
0.105727223319649
0.113011635638767
0.108745061286789
0.11221472689329
0.108965742765792
0.111248587869252
0.106948255337254
0.112755063355534
0.106820401650965
0.108938667669607
0.105310153404542
0.109559792173575
0.104680237648808
0.111351339336959
0.108273414196775
0.11104668551621
0.104155775241812
0.111147975877765
0.10509643749821
0.108317516534967
0.106310629716519
0.109207995006448
0.104607437219336
0.108465554790808
0.106304428541434
0.109387788565178
0.103145198880353
0.106563657124267
0.101960809543395
0.107954390393653
0.102905206875205
0.107357863443408
0.104599601214478
0.107654396174276
0.102961965984288
0.107376712052511
0.102229301825726
0.105722889469995
0.102083027235811
0.105497738692147
0.100060587824321
0.101979358498283
0.0988224465977734
0.10670147483556
0.103373176051393
0.104702377921625
0.0994264448375176
0.105119736391903
0.0981042987042177
0.104961067463701
0.0994666672309879
0.105141152560152
0.0985198098724509
0.105169429864093
0.0994815903679993
0.103391018896088
0.100323658337912
0.103925933481342
0.100094528408094
0.10179584258537
0.0996470450413306
0.102548883466104
0.0990231456414472
0.105056889650655
0.0989531135237201
0.102619302224944
0.100240011021352
0.102551511544258
0.0995997232175195
0.102008659544276
0.0994626067109079
0.102994303676764
0.0999586297120258
0.104946119327818
0.100721690501625
0.10172124409468
0.0980450274364111
0.103148067064577
0.100525408854327
0.105278070182549
0.0997512490107045
0.103208556651562
0.0991825316250331
0.102756821044498
0.0995540342540171
0.100722026827531
0.0967216376285582
0.10094495857906
0.0970654459267984
0.101037596345105
0.0975190962691351
0.102305717241393
0.0974854898509568
0.0988952116581015
0.0965414036542048
0.101771775964846
0.0960268503061272
0.102664778330914
0.0955334456789488
0.101457571495808
0.0959464916715559
0.100524991637089
0.098580962773874
0.101223764274381
0.0941785921953529
0.0998523224051851
0.0928996804419061
0.102026397669349
0.0977782096521622
0.099296765378874
0.0959476192624707
0.102199467425626
0.0966779335639697
0.10361724732588
0.0963991216713026
0.102357164375522
0.0973161290218676
0.10266945209712
0.0981299376598771
0.103448841469194
0.0977589628211781
0.102739347180319
0.0957495914029192
0.10242180004198
0.0975939836264357
0.104410784280575
0.0999677063132084
0.102015375687204
0.100308730826402
0.107691471825812
0.098379222059563
0.108927234999888
0.0998143757399758
0.109573398761601
0.101519343434848
0.10464942837907
0.0972103523777994
0.103109027357532
0.0939143519657176
0.104208671643938
0.0960667738430016
0.10742296560561
0.0966853754562847
0.102043042057252
0.0951959637135991
0.112546135913674
0.092420057350887
0.106827266178061
0.0953785596573595
0.102121161125263
0.0960840500460533
0.105056364188581
0.088353640610488
0.104995871376148
0.0931421288963637
0.115280097081197
0.0931202648559769
0.108084682183562
0.0962720068981046
0.108281990352225
0.0901451570263921
0.109459622235132
0.0943281306527935
0.109036338663807
0.0893221760859196
0.112194404407992
0.0868575816365482
0.114514994552897
0.0896689983499901
0.113677418438556
0.0882534846611275
0.118787095926148
0.0869254196359226
0.118956675086077
0.0824825140156927
0.114520392245431
0.0787590947442971
0.120984842023007
0.0844096617179839
0.126199998571531
0.084652941636853
0.129061795827067
0.0793336988743634
0.126063514848733
0.0854391073594672
0.13026879597753
0.082734193946685
0.122510803975818
0.0923623022196012
0.12715013426442
0.0963034353913005
0.115297607852948
0.110251819157981
0.10714396087445
0.109209489371591
0.101174795444205
0.123480868824337
0.0920218277474626
0.125893956723034
0.0931828718408588
0.120461143830901
0.0978604159710553
0.117778346522428
0.103415930838576
0.112729471726512
0.10931038799613
0.104133138821824
0.112774333029229
0.104645488010192
0.104513065736115
0.108029435298247
0.107809865902152
0.109357330814471
0.107648179307571
0.110971770992972
0.103014939220975
0.108875524987806
0.107782549179574
0.109019700765372
0.107020941534873
0.108561547736406
0.110560000963386
0.106424681245138
0.107145572156289
0.108253109615522
0.107162416363371
0.108819781586986
0.110234389117969
0.109349031504214
0.108166219111546
0.106844814040104
0.10976374582878
0.109231209318435
0.110825081376628
0.111231800131365
0.109949207829619
0.110381340453688
0.112783059216255
0.109092594951651
0.113647511624158
0.112838375247622
0.112806122577951
0.112220379829028
0.111792955857364
0.112475088374167
0.109520386091606
0.110850124274323
0.11250524667979
0.113175594423918
0.112055736500667
0.111491005894871
0.112459192305287
0.11568089911566
0.113746859891181
0.113614400320857
0.116573989394745
0.113451552579354
0.115440049771364
0.116693890563113
0.115527524409914
0.115552254040096
0.114930579782817
0.115680878851072
0.117309987914762
0.115920393288713
0.11598597700392
0.116187659069958
0.117591917684221
0.112947418295857
0.119175649078999
0.117230473805778
0.116567107939774
0.118463433206675
0.119150037219802
0.117087690342189
0.118232425105829
0.116596231059665
0.11883529145623
0.120156849183307
0.120151315055488
0.11874504436118
0.11871278157665
0.118240467563316
0.12065294862802
0.121514971625599
0.121833278392373
0.118487028588813
0.121400634710655
0.119339795623815
0.122603951891454
0.121422748923431
0.121867367973027
0.119926151569878
0.12212450467955
0.122378437297742
0.122611272925434
0.121253551464922
0.122683374658465
0.12334195908864
0.126239653255775
0.122147182482233
0.127457124283235
0.126137115291571
0.124456047831207
0.124992484138685
0.126326930673308
0.124814386646408
0.127159486204276
0.124946070869931
0.128243059758963
0.125294615911954
0.127957937508989
0.124032879714595
0.12866769776517
0.128100088207166
0.129880293072701
0.127844894545067
0.129294757717813
0.12872315555088
0.129966866364792
0.126244006640179
0.127346563781736
0.127680797055428
0.13090694351308
0.129452130993077
0.133443529658687
0.131292797343741
0.130030659203965
0.128767709017536
0.131933004415307
0.131536326915529
0.131287717754398
0.130815294451691
0.131223588867544
0.12739394415267
0.134162216849931
0.13036630078479
0.132309124549649
0.130824850754003
0.130684689837142
0.128765844702266
0.132770748120298
0.130302164796681
0.133456422488817
0.130814691700623
0.134898552422883
0.13460042990938
0.133940819078618
0.134931975306432
0.134205940993637
0.131988963027346
0.136109968104811
0.134579646181128
0.137704550278096
0.135344791040227
0.134648137669336
0.135227749141319
0.137498013345511
0.1351679680865
0.137122165994093
0.135315580770211
0.139071436605449
0.137288854829539
0.138257272442103
0.135604581977307
0.137537179244045
0.137749594599795
0.141229565661126
0.136925853188112
0.138959849436957
0.137143985469643
0.138405883293685
0.139154519701692
0.138966386793633
0.138680699457494
0.141748270386362
0.137427912856821
0.13981981623894
0.1362500961479
0.13919292682253
0.136540745664712
0.139425241149298
0.138150276629845
0.140813072445092
0.13876111746483
0.139533621614536
0.13655331329183
0.139335388174607
0.13627524362489
0.140592917116807
0.138222158496359
0.137893549366459
0.138090660491134
0.140722866949683
0.137762546820005
0.137115887742865
0.135623129298619
0.138758005714289
0.137889213805601
0.13954202435276
0.138530122556004
0.139426801363202
0.136927440172997
0.137862443320439
0.138092661424718
0.134982111492184
0.132973593667019
0.13697952745828
0.138007395268847
0.138473168755263
0.138074406745971
0.139886254705928
0.135133360244202
0.140293746434044
0.137848211643651
0.138141589869493
0.136916365760954
0.139460278216806
0.136450741685493
0.137214022931056
0.133886926764091
0.138229911439426
0.135691967539555
0.138613678483727
0.133656872823133
0.135734868398199
0.134648869848523
0.139012017983892
0.134243308515639
0.138474375335689
0.136478449048592
0.135577998935886
0.135407552593098
0.138397511367864
0.1358143736174
0.135462371829749
0.134455906071649
0.139923689457543
0.135559523987229
0.134381726064988
0.133829493185599
0.135879519965445
0.135220759495714
0.134950803804071
0.134235676818084
0.135299305534416
0.132865744430722
0.133743009328936
0.13171616468457
0.13579409983329
0.134246122851181
0.134460067982258
0.134319273048794
0.134196817038422
0.129941224931901
0.132932951343845
0.132237095048357
0.134125146675257
0.12970080109014
0.132337109180559
0.130101928050361
0.132491318942866
0.130975942337128
0.13135939214541
0.131229299547924
0.134791427308461
0.129853309408711
0.133040527214054
0.130439345858121
0.13001096712143
0.127895256052841
0.131674184381785
0.126115823435033
0.128039079277245
0.127325342369605
0.130613995126322
0.127085433465019
0.128636774550005
0.125751131189522
0.127109653682958
0.12654697655626
0.127357490812464
0.12659305478336
0.128984451488305
0.124994639868298
0.1270392185568
0.127620378351343
0.12870132795443
0.123586867007275
0.126159137784144
0.126174007720103
0.124995761612303
0.12474966973225
0.124558292705808
0.12283948509138
0.123035006211181
0.122829150239328
0.124689404461726
0.1224771813224
0.12092127036702
0.119605761238521
0.12171430693264
0.120796783950608
0.122230864156732
0.118772962097261
0.121082253803632
0.119480933017034
0.121049715084724
0.116287810048793
0.120468176544889
0.118450447723396
0.11876726555924
0.117112753918802
0.116976394070092
0.119038894825953
0.119022506472056
0.121235844529313
0.119697116421032
0.11413521981514
0.114530628195213
0.112935988305074
0.116092077404431
0.11330599614049
0.115138866092088
0.111658414360714
0.113137296343636
0.114204384753407
0.113027456455622
0.110392729065633
0.111724947030628
0.110286320982397
0.112080520248888
0.11171499947662
0.112362436989397
0.108793219848808
0.111630044305907
0.108559149497499
0.108382855147797
0.107564070777786
0.110743074285945
0.108639079464796
0.109196696397369
0.111392035166563
0.120186759792204
0.110342492755602
0.108223004927014
0.109007243406755
0.110668645830292
0.106582592044962
0.107876045778185
0.106546544266451
0.109101566369951
0.105232729044155
0.106859833763905
0.103186277024664
0.106037914672542
0.102655270027247
0.107236700266716
0.105920220292528
0.105861667804972
0.105209176322712
0.106798559428944
0.10343084164266
0.108355611176237
0.10318538161632
0.103911438771835
0.103887077468471
0.105261190182242
0.102118345600303
0.109577233833473
0.104575528514746
0.1037375192341
0.101817113308621
0.104098907455375
0.10174063326956
0.104007723626662
0.100050293734682
0.0985506600898302
0.10060898488914
0.101265467701944
0.0991760535038958
0.10136077440409
0.100625863520328
0.100715162928118
0.0963935245650347
0.0989263175665318
0.0966916674039268
0.10019256091505
0.0962387982464476
0.0993765820249975
0.0969960906223589
0.101256244231544
0.0975438828101544
0.100633853157717
0.0943539023048187
0.100228137838077
0.113116905491452
0.100079931587063
0.098844649256262
0.0970651671189881
0.0952223216097
0.0966615116888333
0.0970754867909745
0.0965711001841548
0.0960380657074581
0.0950585901190097
0.0957076469944702
0.095467906143399
0.0956284076340909
0.0982050317558869
0.0956609112989797
0.0970501264039907
0.0956549291595238
0.0953655749440469
0.0955095382568919
0.0959301399784323
0.092795803616431
0.106044511830275
0.100986517367316
0.096134614615551
0.0971099044734629
0.0923342049878597
0.111360186053002
0.104314324561564
0.0923323916962271
0.0987311191482829
0.092073679799597
0.0942026071312874
0.0938080412927813
0.0937516204042648
0.0908734738273429
0.0981982228701495
0.0917254669790505
0.099716046045573
0.0935627265677413
0.0932926010274434
0.0930174334680364
0.0946112210639901
0.0912677974828691
0.0943325775818909
0.0929882583249574
0.0918559308775765
0.0908580466915427
0.0920614280604428
0.0911750218303435
0.0927827838617119
0.0938108914467115
0.0999236819848033
0.0934644981884391
0.0938472465557429
0.0934930985848862
0.0918997447054458
0.0950225476396815
0.110283161054455
0.0915406707149635
0.0939759411246683
0.0908237460953329
0.0937085719941987
0.0952028234482745
0.092308803649913
0.090466157109196
0.0915890883552403
0.0911022942726585
0.0926322153836558
0.0909469734553369
0.0931096285499094
0.0921012851547983
0.0936278279339
0.0927386374418363
0.0941351277590976
0.0915241659133425
0.0919617534250646
0.0928719266254878
0.092599851551434
0.102309499292418
0.113456173349516
0.100500800006549
0.103239801477647
0.0948851877103225
0.0933353081526684
0.09059726537935
0.0949714487221712
0.0918414920529556
0.0965879186746786
0.0911967525904486
0.0944522898746066
0.0924720315332273
0.094977823355079
0.0905821579819559
0.0935987882408993
0.0894213951580119
0.0912712424964899
0.091217491628946
0.0938238804933039
0.0889984168229156
0.0946000057626729
0.090565112819104
0.095989550084765
0.0971473229993049
0.0968272536380199
0.0872895662195846
0.113917596051973
0.117803953289716
0.096615884096507
0.0978376183180816
0.0930266981035257
0.0915563197662707
0.0921119883368518
0.0930143585428118
0.0974584857603396
0.0951390268141071
0.095323457636061
0.095453780548655
0.0980850563734895
0.0955502126579112
0.0911289158448512
0.0988907564453064
0.120636910751947
0.102222161526641
0.0979952112133083
0.0946400580942274
0.0987134526291832
0.119748405023958
0.102317928066047
0.0967245782365663
0.0997745505051783
0.095447436522373
0.0971867712089105
0.0942499777915036
0.099570646289159
0.102060013257999
0.103815117080319
0.0996942080077157
0.100126752300761
0.0966764548363738
0.102219473644819
0.0989836380491568
0.106394051606314
0.108799124640653
0.104247926948321
0.101282199011428
0.104006081193504
0.0990660104703668
0.102730796476716
0.100153374905814
0.102076369756752
0.106198535853978
0.113866962479667
0.102721804625081
0.115673097242849
0.111090447188091
0.102898334205194
0.106512682307326
0.11138617985882
0.110344908620732
0.104583005423662
0.104837914153715
0.134127870576717
0.11512428614867
0.120362629370223
0.10805350213801
0.108539665253224
0.107650368414105
0.106290574405971
0.103590026854547
0.116011486673976
0.115067946475234
0.108511723075748
0.109246938703777
0.112115318832105
0.120441140543622
0.112705046432231
0.115165599115041
0.110457401591195
0.109317939793131
0.123190867934677
0.119586237998882
0.108836345852594
0.139695532634406
0.138230038339813
0.130508673564045
0.124084754219251
0.11286544362227
0.142939219652678
0.124544203867288
0.119097529497958
0.118781192662074
0.119747747868992
0.118205652593322
0.120416136017182
0.148110183300261
0.13313247451204
0.119053763874849
0.127992333994343
0.123749484374224
0.14776996378125
0.141760067441122
0.129242684368769
0.132420701039301
0.134698741077294
0.127450813372764
0.151597580690405
0.158693682174151
0.139421704329397
0.157926590303413
0.149776093706699
0.150783206005709
0.146947884933996
0.144410868732564
0.153612831572225
0.16072364987848
0.149761142282604
0.141408638010787
0.156931839411457
0.174573232840364
0.156154728496449
0.155593995985924
0.155026221013767
0.147769828372227
0.178457437078232
0.217749275917499
0.192079693264569
0.166062898355543
0.16747346413453
0.188022070504043
0.177244504914698
0.169363672573963
0.17431872606353
0.174028079153535
0.178508882720058
0.181527641787505
0.194286778167654
0.188371544720746
0.189718667276801
0.188605418497254
0.188395802246737
0.210255746013533
0.248953621664435
0.235019117664379
0.214762502020773
0.226106859146906
0.236026842384914
0.219328008321124
0.224861917824448
0.220991384842058
0.23084542710997
0.232948691722247
0.235723022897643
0.234743302377789
0.256508428461406
0.259707164815357
0.259661548842142
0.275194029389914
0.262899487530207
0.256967741884306
0.268341926226641
0.378464499848339
0.322696935052826
0.28889164267787
0.300237611149415
0.301122963851181
0.385352824023523
0.328089706462409
0.316622699475533
0.327763037565901
0.326924326610434
0.332989915069233
0.354654432200303
0.358137534252985
0.369485109729497
0.370134246755024
0.369193688309466
0.377762795792336
0.47390279689989
0.450640340800874
0.425815049651008
0.410939647635739
0.430853462459032
0.437855009700074
0.43743238950387
0.450123459995867
0.449164189385842
0.451401036771191
0.51811282274497
0.483902254734073
0.477410488519004
0.501871744178843
0.511541696168689
0.510921280290949
0.542545669786355
0.578450094118546
0.538966887943523
0.545405732803576
0.547186474027911
0.557679540237693
0.559527781545825
0.603751269639242
0.611157738756879
0.591512443648793
0.599009571895883
0.597448155697238
0.615956679210904
0.621946176668697
0.628637305280287
0.638887075384367
0.644953349107634
0.707922599914473
0.819120799524283
0.706677266453379
0.655398434567086
0.656589138020413
0.653262328898355
0.701283985415265
0.703891483048887
0.706397799903795
0.739340097942662
0.678865090225848
0.689286542650896
0.691539301058979
0.689353804382945
0.699789973999011
0.69612847514977
0.694906793761452
0.708642776600402
0.713275170530052
0.706815314753083
0.788908377751842
0.713473630708516
0.693497763599312
0.6888760563173
0.67938173620579
0.676310179476974
0.670099835685364
0.689055012511061
0.699305276271317
0.675977659366734
0.664534990317746
0.654502012250566
0.683458113104557
0.687366954856544
0.643125410227963
0.632506734461371
0.624874050153817
0.629756137853697
0.602669568741275
0.606483652575713
0.655100972709917
0.610158102216187
0.577028587739333
0.580365020804128
0.565185154836442
0.567016016130676
0.549222910213858
0.557194898044681
0.549756337379954
0.542684522452192
0.538246061293091
0.532643111192705
0.522129562552835
0.524786839858025
0.511162484298333
0.511115745793558
0.50039869117456
0.500947493527496
0.486395105634216
0.488273890859967
0.479352180124008
0.475301223414084
0.470695741756168
0.469906511045601
0.472353328694953
0.466338511855362
0.451602861377217
0.455746949137479
0.448305234593946
0.453763120992815
0.443501510264146
0.442425098218769
0.435794389055274
0.438457434398533
0.428820743114513
0.427093222431329
0.425195838599821
0.42547323526479
0.421913388425698
0.415745306490191
0.411063305468871
0.410623420048798
0.410269383235921
0.442310260792711
0.447733901311091
0.403438380494802
0.398394089044285
0.401664613992961
0.3924657945831
0.3927626734786
0.41899270422734
0.425886786464695
0.389942776752336
0.393236227578058
0.384837608016314
0.390756386611108
0.388401118738224
0.388105823088676
0.37126044266331
0.37161649666224
0.374784026595586
0.463834023390112
0.41992940294077
0.459741482093827
0.395394482058617
0.356463739583238
0.369119739925142
0.393978053066882
0.366489229862689
0.349532692376464
0.360076852783122
0.365754798260591
0.365061451278784
0.349248912379435
0.3452933371345
0.334572018179692
0.344088691453786
0.367162316908276
0.342690385284662
0.351094240273187
0.367174390045333
0.35101466353584
0.360083776453104
0.404144213899437
0.355942337403927
0.323171107245868
0.318487210045282
0.318805001549074
0.32670037888945
0.352434684641542
0.333993067850416
0.322666817306228
0.312362460862028
0.300900382405969
0.307409259625159
0.326849795636968
0.315009420768748
0.313298385499755
0.316926451139824
0.312797276878415
0.288346872471239
0.328039314867064
0.332099085867839
0.350717309633676
0.305303360196216
0.290889310698603
0.312547247765604
0.328752732650696
0.306126320992033
0.299221011229829
0.282261552800356
0.286450795613656
0.300141809258093
0.286915337792688
0.282941266566256
0.298002476384765
0.298421857294173
0.321001096080472
0.341500345451484
0.326051774023676
0.292000617340018
0.272071912622403
0.267454506827206
0.284272531021401
0.268407939892712
0.27208121776174
0.276347102738232
0.288427205316589
0.274316936577967
0.302770327796019
0.293396963660669
0.27027020887926
0.273992693320325
0.272066040328798
0.279375790575345
0.309387015792424
0.308705750697282
0.296585487817898
0.284118106895137
0.29745864355463
0.291785556377136
0.285876626083352
0.290805653484955
0.289937452620711
0.297533580421493
0.30007948797273
0.304978245641649
0.301622726866771
0.30827447994683
0.308581489631132
0.330170556882873
0.338346979131094
0.327810942306869
0.317754361204711
0.369414377877885
0.360516917569881
0.360258752748457
0.341499581232535
0.343131872006614
0.347013630039821
0.349709099444478
0.347087312075945
0.361385891068408
0.379687509697017
0.374029334479775
0.355714834261218
0.373735813986383
0.367691196963155
0.383959849707395
0.383709888920538
0.410158578583315
0.421394629191607
0.439892866275796
0.400732964452221
0.391317440376259
0.383997646263336
0.384660876694535
0.394529509034635
0.382719285604427
0.38199377955529
0.387833103233448
0.405623547040461
0.400330793954427
0.386711045039996
0.393521807346091
0.391331029586129
0.393413818101747
0.396580767386713
0.398028793020287
0.4014954781785
0.408145017266526
0.400745632323474
0.404170145056132
0.435388984805036
0.440557000755361
0.405432447090157
0.419272935617429
0.412809588711644
0.415368097201945
0.418283650256821
0.434051065249576
0.4320358151775
0.424680639671997
0.42422487984149
0.429042903988064
0.426434401192485
0.446895968457402
0.43982651695294
0.442224197522804
0.427208571005568
0.437934930890872
0.442881922077534
0.482218701565348
0.457394644551011
0.450340831651432
0.454756115189584
0.439308958431206
0.442589171303788
0.435633939924597
0.448820986792937
0.444659448065066
0.449914208959522
0.445360014973352
0.444044284800058
0.443812525197384
0.439503565922282
0.443986622724685
0.454399091097132
0.446194218378854
0.434479477166795
0.442612354805535
0.43745662613429
0.44075288143734
0.454562200422626
0.46221583380978
0.446694985160093
0.442014146532309
0.443900149345948
0.456569162819699
0.455754954378398
0.434641272273392
0.436790985032466
0.443929598935883
0.438615683192162
0.43781822374255
0.440684359709961
0.45565667194803
0.45730403140467
0.445262510905129
0.44883905863363
0.446133343929397
0.457518623621312
0.451456369013637
0.458990561216945
0.458873503842411
0.465439926712481
0.462217443511209
0.465998724986941
0.46636400274731
0.473930668260878
0.471374918056431
0.480368286730204
0.47005221710367
0.467958077982127
0.462755564358561
0.461924434013797
0.466261341666271
0.46133301231079
0.45800753936177
0.457204677754978
0.445395631324053
0.455697254608772
0.462712828720366
0.457044800042884
0.43937214362006
0.450033589885956
0.433233119055317
0.438296926366882
0.432870371303338
0.43526355160471
0.428629903261455
0.431605209308325
0.426913861275211
0.427465429433054
0.423616115594001
0.417866981610767
0.420285446553181
0.423016527251067
0.416013120588855
0.418862260273536
0.418492263505507
0.421197822511523
0.414636381658135
0.418291218764966
0.41210838328398
0.418469397163624
0.423322336781936
0.429296399619429
0.42180198047711
0.422732304559738
0.418908746234733
0.417756830306228
0.412694093275278
0.410779065034328
0.411426289996847
0.412848151251902
0.415409542261991
0.412519255183724
0.410217747478833
0.4083215255561
0.40939574180271
0.406169309090745
0.407595885872829
0.409257520555845
0.408044552256296
0.40323559851369
0.404564515792167
0.403603541711851
0.405501554370686
0.406419547487755
0.402581958482343
0.402548998511196
0.404793206264354
0.403273179391258
0.405018667869586
0.408941068516141
0.40288783298133
0.403373892889815
0.398994036540362
0.396963712030733
0.399079963642474
0.401538039259408
0.398788439336006
0.398913409565235
0.39850524321872
0.395213104344019
0.391147228018158
0.392843257337887
0.391691158922058
0.388141050846635
0.384353122942733
0.382941281173285
0.382099512768325
0.377340435223525
0.37657219306432
0.374163404422449
0.371840652551506
0.371904378829794
0.371494292392773
0.369544858292801
0.367080238420676
0.367620177721756
0.3679396399341
0.366546221225537
0.367187475597028
0.364370754021932
0.362895532726792
0.363106831045275
0.359607418802322
0.365724009110365
0.362783800008789
0.361824807984391
0.362511756173425
0.366185111479342
0.365866715300825
0.36828391761723
0.36404389325505
0.364300954915532
0.365858287533382
0.368906636211574
0.369319099049468
0.370371200248934
0.369682198575034
0.371179840271574
0.373308729300332
0.374422888483226
0.377682570139299
0.379958076123792
0.375094511229572
0.378734314966745
0.376346301647149
0.376536296017552
0.377068823460598
0.378563990166174
0.377324860700087
0.380343152406055
0.380019445681871
0.378508453991086
0.375316511009019
0.377417820847372
0.376769532377684
0.374549310501021
0.371975046091378
0.37480358858478
0.372391695566212
0.370471678159634
0.371571562238546
0.369408217161769
0.366184960015294
0.366481344234544
0.365071531623746
0.365260179192061
0.363994349736001
0.364105894372872
0.362982109642494
0.362847639053558
0.360072680930504
0.359767709377278
0.357164987528727
0.356526838094294
0.356470987250845
0.358809043395435
0.354292601339481
0.351990004806311
0.349924730731951
0.352002594027116
0.351767559594777
0.349409552223523
0.350556540483009
0.35421571748624
0.352222395671536
0.348205287701243
0.345984868152376
0.346100130634788
0.344348644060428
0.343670896369877
0.345013823892543
0.342224320208141
0.338573977618147
0.339376549697303
0.333685445474727
0.334253432902703
0.331749648240459
0.331397117022787
0.329090515774493
0.3271363813543
0.32477725321367
0.324881226554681
0.323389126330484
0.321690533607545
0.323917484116403
0.322227191218473
0.320689197445909
0.32110883075298
0.320286044681834
0.320295867483119
0.319805970224596
0.320176434255277
0.317068999800006
0.31353245522867
0.313801072499274
0.313335450776471
0.309910862811368
0.305533918814437
0.303892527403667
0.302307047114576
0.298633504886377
0.297758805246143
0.296979725798675
0.29509224368473
0.292053938608831
0.292473910997088
0.293179714177035
0.295449638351632
0.296083842531694
0.297734337530325
0.301309987285089
0.304156004993736
0.308594001995736
0.314004367604102
0.320641682389356
0.32727210843117
0.336078610920101
0.343612862588821
0.354515998867461
0.365762944504942
0.375124261344915
0.383663973584193
0.396381462361709
0.410091773688087
0.418236928302602
0.428464364167272
0.441701727257172
0.453062132870963
0.468220913870087
0.479094043095134
0.486524435093326
0.498652590027027
0.509608847389585
0.52351591336011
0.530311282409502
0.537428932881024
0.546330533082215
0.551925149949584
0.555113394446987
0.56427565267879
0.571764035800631
0.574306769384994
0.575796088870304
0.575249197465153
0.575235263531507
0.574264087853746
0.569677399604538
0.570933827888894
0.570382970175165
0.567580016586042
0.571469810564334
0.568445968936448
0.561857399725564
0.564629327988401
0.564201196584242
0.56267601717114
0.56375783178782
0.564936043107384
0.564436031181714
0.566407322466299
0.569624536226465
0.574885623407598
0.578297408490982
0.580803217214474
0.584921169195395
0.588800560644948
0.594249783463456
0.602090705065384
0.610301491471811
0.616470674187795
0.623747068548
0.634623434815846
0.64694681151341
0.659648284900617
0.665359718797406
0.673720637543235
0.679582766667842
0.686130645228135
0.695429118714039
0.698667695533091
0.696566100575987
0.694549773331865
0.694817795507652
0.694877140474365
0.692303786103575
0.684157643208641
0.685700096938513
0.684802747079623
0.669027957579109
0.668868636420607
0.676076607118428
0.675325464797213
0.679377963521069
0.681455169356829
0.689942211641946
0.69950034811386
0.707327712951992
0.718135192996246
0.730891802862232
0.733249156143745
0.742872245410263
0.754034543374952
0.760689183779493
0.773735557618059
0.778670356209876
0.788939978741033
0.798226391393033
0.807194315072752
0.82132507119564
0.833677246905802
0.843047770459733
0.856681328859089
0.868085824778885
0.878847983122812
0.896625295701678
0.912267491922902
0.930269304479244
0.951560775711929
0.951054998821866
0.983943757244863
1.00648480419748
1.01498681403537
1.03677521007228
1.0469319628053
1.04646526545424
1.07143655188443
1.07762065112102
1.08909199564639
1.10406793009327
1.10131835396525
1.09949430240022
1.10473244914257
1.10720441747083
1.10237587010379
1.09105836975074
1.06911114080326
1.06607749107621
1.0847002928557
1.06267389026621
1.06128362973495
1.05481879153266
1.05810621994419
1.05620652301477
1.06468377055934
1.07519074908167
1.09682706460464
1.0994371073724
1.07100797716593
1.07910147798302
1.09521090151832
1.09718134572331
1.12137100204307
1.11625129580916
1.11989286189421
1.1273429991965
1.14180693780544
1.14494385070484
1.17697715343287
1.14733541518394
1.16326845233682
1.17860402513005
1.18710490072263
1.19034086517521
1.18609803748476
1.20979556328386
1.19638968101861
1.18749603717035
1.19509661736413
1.20456341151429
1.28322014358608
1.31662058626893
1.26619699039428
1.22670378870433
1.22141745451636
1.2153850449537
1.23787719277995
1.22438824153373
1.2143043388225
1.22256881007457
1.20970093547255
1.23359728288177
1.22117813764123
1.18074539058729
1.2005586759586
1.20284025775332
1.18995669653068
1.17649742404302
1.17319255304713
1.14781739133016
1.11269443373043
1.08371208168926
1.07683621481337
1.02225590565147
1.01010577842854
0.968793056026965
0.948056077664005
0.918659923479902
0.880821179456958
0.843787930179982
0.836925522562045
0.81166075644706
0.802897385099828
0.788737388188686
0.786212009541209
0.78009563358777
0.786489130990492
0.774883302447938
0.769794215859076
0.763238297592971
0.755261254797888
0.746023128222372
0.745959820195021
0.734803390831166
0.724331200424538
0.716156394805207
0.709507756634786
0.700116647434935
0.691758894011282
0.676956792182013
0.664104798080707
0.648224588954894
0.638787610709182
0.62275548323928
0.610515318347655
0.590498411007246
0.575026130715141
0.554391386422244
0.540040350399989
0.528414771409946
0.514019147161633
0.500885156262225
0.490961090940228
0.470800286343743
0.463141628313075
0.453983155731408
0.44490837294639
0.433363715778419
0.426396979645198
0.418807309928362
0.41453395642915
0.405571974159309
0.403331622995077
0.400021164705967
0.395647320828164
0.38886339330056
0.389282866184026
0.384301040464312
0.384494458287394
0.382646190892921
0.386384643130552
0.388523203423153
0.384746995026486
0.380578103626522
0.382361988303042
0.385219178582868
0.390868578574511
0.388342606745353
0.390484688588134
0.389241441861282
0.392313348021426
0.390252396061341
0.396631681579275
0.402749884808279
0.40080984890749
0.399284661581846
0.402305537817889
0.400488945308099
0.399138889901943
0.40175666541837
0.399904972916835
0.399329015291423
0.404106242461826
0.398367102991208
0.399741994676281
0.408121680957432
0.404474313188621
0.398439536420876
0.401477389163762
0.402305107729941
0.405312844391069
0.409877996488555
0.417456061989447
0.415057636736677
0.419312598451559
0.421865321649145
0.41821486992767
0.421010909284768
0.426917433173098
0.424558252926836
0.429323382226962
0.429679285457945
0.433465981777799
0.436387319303615
0.444333720370879
0.440762009132733
0.441958881609366
0.451861471317896
0.444203708811592
0.446964488729418
0.447146365956974
0.443304507720609
0.451099896419464
0.452755649816144
0.458606211527234
0.456954447476979
0.463557175645614
0.468943887990132
0.476641481565166
0.466682455793429
0.479074786902115
0.47875480651761
0.486683258590592
0.498844888785094
0.501468943187766
0.51911946295341
0.525887185608344
0.516002560082058
0.535680576343553
0.546061711780512
0.548452619845313
0.547718307085382
0.54806379867869
0.542254828916522
0.545871471159519
0.549392252864292
0.540512399106666
0.5443573007962
0.552425839815172
0.538476100361266
0.546833122097553
0.543980853276802
0.550201207953776
0.551387593087095
0.548269314639107
0.55179073095656
0.56244738724863
0.558207650167819
0.562214458797759
0.55640713477869
0.563957171164331
0.561049049766575
0.561308734917639
0.557139293221635
0.556361128607604
0.561525159168553
0.570388168605654
0.570733757681394
0.572168009639912
0.571082280397576
0.583379945308686
0.576340644638481
0.582355796038386
0.570244542067005
0.572446209442446
0.57992265162188
0.577054098674826
0.588728726544404
0.601651277472248
0.592951347907561
0.598141197744769
0.587468651948743
0.586690654570818
0.59945641880239
0.595210539223443
0.602430203764838
0.595486248987211
0.592245031476505
0.600855988230446
0.605447127674674
0.626314956227175
0.609394756097632
0.627018176817962
0.614388579140307
0.617088687905972
0.623603750396613
0.651785778990856
0.635461147476051
0.639417426127979
0.626856304051822
0.640507280955694
0.641524554815256
0.640576191741201
0.649299110166412
0.661238422835447
0.65554689673695
0.65164063313229
0.65633562239097
0.671925848431694
0.654283893460024
0.658559874108698
0.659355836700643
0.670659313595517
0.655096835284764
0.662371128456429
0.671389676742045
0.685215785376515
0.685078225014966
0.680835162689321
0.706728311302052
0.705671762495783
0.682923408275159
0.715666998581204
0.692764991294644
0.700257040936177
0.719679232921489
0.72925377540901
0.716592089082443
0.722917399849356
0.717105857599594
0.74194565362697
0.746817723982865
0.763729773122872
0.737840381081958
0.743617228447759
0.735301183979949
0.765981812618397
0.739917083340532
0.765709483468807
0.782210592002085
0.774126866865195
0.765334557780168
0.811520356320523
0.81034847602774
0.792796903826831
0.792280076905138
0.818804904165699
0.818159664245353
0.877859280835256
0.872947842733436
0.840526082723187
0.840875094687693
0.883490082612476
0.856377222944895
0.887851048688082
0.880101420194727
0.946798852060767
0.893229662427263
0.957672444000456
0.917571003572746
0.941658090661931
0.922401558338474
0.901036208470701
0.976936749155267
0.958390407930449
0.916372231447544
0.930303815288354
0.90282230709122
0.951693335487556
0.973550471577997
0.950576252433545
0.873911651422363
0.956744075999854
0.896786840853508
0.96537631621708
0.943536070495972
0.977591893059786
0.933144953006494
0.94028898583773
0.895040903238563
1.01967845657044
1.06811883041592
1.05352774282364
0.941094977242455
0.992155139933265
1.02169792298707
1.05754694505568
0.898332200618344
0.994376823375742
0.947543807911714
1.03253304763363
0.966296694728467
1.05785797489295
0.897492945028305
1.06367420065151
1.02702199973438
0.96679135730992
0.965729474703775
1.04388450702137
0.980618562702532
1.10319663192877
1.01809772484327
1.04186966093658
1.07104773675856
1.21813704955287
1.10767121918466
1.04292208900484
0.927182377214823
1.05457492219878
1.05134795501567
1.05992489110825
1.10046109534632
1.25010716575428
0.94487340038976
1.01962310610699
1.02896880754796
1.28793340487245
1.19171923872951
1.0718432382652
1.06767951832886
1.18502843366877
1.16222783261668
1.17006795986935
1.04100039279577
1.29330276364222
1.02685590891583
1.14259629851463
1.12995591551817
1.06780646548299
1.06793160457327
1.21790328398343
0.934016767316865
1.37833486841336
1.1614066147806
1.31760715980093
1.04703226404257
1.73343736795362
1.34552975263425
1.43620615293219
1.33802733066154
1.52528116640418
1.31926602770027
1.604555968594
1.19797071549923
1.41839410576682
1.07904976400726
1.6243242917687
1.13896024946424
1.79220069569046
1.42625649309051
1.26018899851541
1.1394015643483
1.22450775686779
1.08830263046605
1.52728044796695
1.17768531720301
1.25552345447694
1.3477707454332
1.35085896361947
1.01034564189412
1.1992411347645
0.904837599523298
1.46508649927746
1.01544690967083
1.17737939997159
0.895380576336713
1.4821282117324
1.1716013689713
2.4430912452257
1.05970507016789
1.33204876729189
1.10034639596525
5
1.00112666723102
1.30300440625602
1.1384907493721
1.55959884255949
1.22399247330397
1.91158824837131
1.21355340081244
1.40262114810315
1.34392609562239
2.06025019199541
1.63872032114876
2.63731542106704
0.969550845169596
1.84697501049344
5
1.1541205973886
1.16487167907981
2.01293494816731
1.30982886863832
5
0.870515176363046
1.07611918907652
1.52820318912526
1.08769256454162
0.91651593965762
5
0.86928657313734
2.12054996313847
1.06195117652204
5
