3596
4000.36533379555
650.420452594757
1
2
2
0.0862642862607347
0.0737315335435186
0.0778595846546259
0.0738365661433989
0.0768481476778123
0.0753356516232236
0.0798589824531574
0.0703556434128992
0.0832534534575249
0.075320846610529
0.0825044664960539
0.0698812598090227
0.0680192214660091
0.0681572800916358
0.0847991481176237
0.0698746640484721
0.0778648119331923
0.0694591199760192
0.0813860745359396
0.0580837885068493
0.0769301595543372
0.065352538470877
0.0729030635709548
0.0736532022557797
0.0815263914006776
0.0729210556866515
0.0766371326937786
0.0646450797514221
0.0751594814253891
0.0740079446745699
0.0785806789775602
0.0706581683668937
0.0806176925219915
0.0735852256448783
0.0830104836728574
0.077449287127515
0.0744928827441365
0.0717843613138237
0.0787647066173808
0.0695614954026376
0.0797631443609923
0.0683555369934836
0.0855227899099563
0.0712443371175649
0.0765014413674172
0.0782468248683206
0.0817133023326058
0.0702068136117288
0.0788018030787946
0.0695115015124816
0.0806604433308583
0.0690740693859594
0.0869268286892081
0.0853326778161854
0.0761822335862703
0.0859267590038195
0.0809382421559204
0.065487976646847
0.0740012671797833
0.0682652488103982
0.0903281942424778
0.0841349727744486
0.0773825508408696
0.073888447332686
0.0685976178197516
0.0729842700679443
0.0755956939467645
0.0757115628918885
0.0745099390617087
0.0691963043528457
0.0783066918942841
0.0798877830293143
0.0896917174918075
0.0813256654831526
0.0852946699858408
0.06985662729738
0.0751125283380833
0.0680834618002766
0.0693990669263857
0.074005112366317
0.0819470708515883
0.0676107548057119
0.0779208132493801
0.0622205036091724
0.0751334573456592
0.0880324806056388
0.0743884917410747
0.0688774033681288
0.0961783370929934
0.0765090698472105
0.0786376907660948
0.0713716613845202
0.0730866720966065
0.0666421793296651
0.0761521956331265
0.0741543969672138
0.0723514102632168
0.0619947386960615
0.0749605118435177
0.0757813849112672
0.091165909241612
0.0562485891166525
0.114482324800777
0.0690349647918794
0.111462393885896
0.0861508942770947
0.0638750504015799
0.102647645427269
0.0798282577486055
0.0793582072954601
0.0706031330599632
0.0736456239596724
0.0754683606256868
0.0797029464720776
0.0642524969370182
0.0805608539957239
0.104117014945391
0.0742230327706974
0.0846008426553742
0.0778935260763822
0.0652520673905079
0.0839554224031955
0.112509145395253
0.0758469924269832
0.0928542779619635
0.0684941153662557
0.0777378219999368
0.0929263687273294
0.102710454557284
0.0712648340743213
0.0746712992461651
0.0643133823945296
0.0664811835693294
0.059209996509081
0.117020523111462
0.0738408824003998
0.0744866442662306
0.0653628670935048
0.0869652328414987
0.115196152655166
0.0867111201458247
0.0652888586713335
0.0680590785967327
0.0679051841142374
0.117258831124734
0.0800701870637102
0.0651024957229643
0.0717447678106136
0.0898672528925393
0.072378192774194
0.0712756973113187
0.0583650622603009
0.0920537386086208
0.0752633884706753
0.0430485152523026
0.0885242760259345
0.149449964824288
0.0634740838951
0.124860288463377
0.0726835192298969
0.0925664926722596
0.0725587248881773
0.0739173291709778
0.0674830030013991
0.0795241232751011
0.0658890263193589
0.0724153000415551
0.0970708127496168
0.0772884588464218
0.0650713867176307
0.101654196325353
0.0830519371093278
0.0664113531840255
0.124235491351681
0.095000114495588
0.0617903223652504
0.104686098127181
0.0813248343516647
0.0729765921420063
0.0693613646809314
0.107623136032546
0.066754965182777
0.076152375112561
0.0683511222345258
0.0811401618066407
0.0834887994024628
0.0811658524383902
0.0663734314930644
0.0823818122364088
0.0560637298335362
0.0808820726437876
0.104024608759345
0.105065279417459
0.0738718504892825
0.0787629694552698
0.0419809958123235
0.107769924719944
0.107724509062416
0.0779452252845758
0.0779065567726789
0.0767420729900564
0.0667892995068541
0.0692396001644095
0.0670013550237551
0.0762338273287562
0.0520461637721376
0.101705230410288
0.0800072740326092
0.0751468289641062
0.0693514948195984
0.079189836888601
0.064532351593563
0.109224617946546
0.0998593972051145
0.0785626109536293
0.0769971930804334
0.0652146478732159
0.086662836190634
0.0948851426124036
0.0762733038349499
0.0776337215989228
0.0678960096338172
0.0791455381573345
0.0666241230434103
0.0700438617520257
0.0759686623478157
0.0769529326268972
0.0688045081565122
0.0751298919301372
0.0705041624626593
0.0792033594600302
0.0737401841847811
0.0778749091065668
0.0742373574050244
0.0655892048612962
0.0742325603059157
0.102155813914828
0.0765708665051714
0.0808017698327286
0.073889878110818
0.0805879709222346
0.0694517578481619
0.0756736989242838
0.0694698870918565
0.0772569975071049
0.061203679801891
0.105402209724236
0.0766921626632635
0.0719511656247267
0.0640500447171018
0.0930408290472639
0.0867964031242696
0.0763260323094012
0.0747978302382001
0.079488065007553
0.0681394502318547
0.0714483609239817
0.102429509282936
0.0864337448709656
0.0760978900936607
0.0886065981573214
0.0821016936134311
0.0765771512230931
0.0768902975196515
0.064329257552672
0.139352546315295
0.0926493214806295
0.0762706682281309
0.151587725459306
0.0926959401163821
0.0826066901429222
0.0781951109950975
0.0571998038570389
0.151781223492997
0.128114546093723
0.0794387317515601
0.0838828673275888
0.0908115261159579
0.0779449045423296
0.080931275756558
0.0900000663598909
0.0831477225808522
0.109306078826361
0.120239764367378
0.135239722390987
0.0670945004801899
0.105190947124623
0.115409949753948
0.0885417732006543
0.0826135517711836
0.079406409575857
0.0809232717731016
0.101960108451414
0.105649553766877
0.0995238610036765
0.0861151589352282
0.0800815927532157
0.113872114370056
0.0945996720246728
0.079617628387921
0.0955118607161542
0.10158512804837
0.0878517097698728
0.0913887064959511
0.0845950220273749
0.0939919279625217
0.0860278211498798
0.0856001345776246
0.14898471506911
0.104133795911361
0.0911457902345931
0.121826734281462
0.0993050550402209
0.0907727020355041
0.0927272657495797
0.0926070076916615
0.0879939966687672
0.0846837608297605
0.0911024514420413
0.116211974789573
0.107416716529384
0.097896239008986
0.0965146009750099
0.0879280258490122
0.0972506243177279
0.0943809352390683
0.102056962381075
0.103256356153499
0.0997237121848157
0.0940119886011259
0.12709975955602
0.134491732119336
0.0900338434250792
0.12475154496023
0.147969574658965
0.104927384037514
0.107953138960908
0.0993122880374616
0.11417917521842
0.108854012789765
0.120954145533689
0.113966730685969
0.109206565026786
0.13266511887809
0.133424388811902
0.111357134670218
0.11999442211264
0.16387599751089
0.193500797963023
0.13917096446308
0.12692522388578
0.116776377768636
0.158375723977717
0.173483338929324
0.153124981964147
0.1634659753778
0.143969161598498
0.148715099559091
0.144941172918165
0.148655232285124
0.152323475838324
0.158276303350897
0.154004722018078
0.155376919862697
0.160420206480394
0.164101720635037
0.164060453691451
0.167126041595461
0.212123108770841
0.192786443935378
0.173360059361732
0.180666221334869
0.174577366389306
0.203714865533767
0.224596332701205
0.218823665303678
0.231111776663912
0.221219955812855
0.23924475035538
0.205125216023415
0.20695011729061
0.198652366984504
0.214954879795088
0.221748927502071
0.217255998034465
0.216030092419582
0.226541490342083
0.226020346692893
0.235607157365552
0.233214456917192
0.237917520525903
0.236857873182918
0.255430690996403
0.247715135849028
0.251361384232852
0.25002639428537
0.273543613723878
0.303192635168377
0.308212895637913
0.275412530538229
0.270829383028576
0.278268341005366
0.26403091558624
0.275977810682385
0.279176331874766
0.283330221464454
0.288613703224169
0.317493307630174
0.316576437267645
0.309464854612354
0.315314635009604
0.300748332145837
0.322623065000215
0.324244167844567
0.321849057874041
0.353326579666305
0.335614080664705
0.31268626974
0.352581002694627
0.357458954351395
0.348857619976793
0.357225087374401
0.349589789568437
0.352710179584461
0.358584842211975
0.371462822274697
0.356857425206914
0.35698062550013
0.381773789265616
0.386186578167179
0.377074290203834
0.381472235177482
0.384255016957233
0.400117625140887
0.391981489423858
0.410329022101472
0.412595200911087
0.402673224479901
0.408366776176415
0.403842367790946
0.42860477302436
0.430694136793834
0.446374030353576
0.467072968138187
0.433901469819327
0.424628668773744
0.434625864011955
0.439227825706437
0.437608524785289
0.452619461233712
0.459004371506033
0.465909276868722
0.469647457345401
0.476061944500607
0.482967238721695
0.493501779467818
0.477150848529365
0.487194823539124
0.490104029284265
0.495677070222577
0.50069157871739
0.499143319923618
0.547703439024213
0.530217126718339
0.535229925660138
0.564124085359525
0.521010418715605
0.542175434589452
0.537069108143237
0.532682141770663
0.549736343628347
0.556518659950297
0.567367885446502
0.56098404340828
0.554737877053952
0.582931170062316
0.59587720326296
0.595353414891425
0.577536851477287
0.5811356189493
0.590333144043974
0.599455805756353
0.581280479716432
0.58718366332047
0.597283784605256
0.616050268971482
0.627401412251803
0.628836658231286
0.624892547778445
0.63215201881547
0.632472038563876
0.653648026418962
0.664183961038527
0.652170086790028
0.630180108082286
0.666435069832488
0.659541469418401
0.679667719371872
0.680211331695224
0.680001689289602
0.678703433457113
0.684271360927565
0.675433034552655
0.684972273451343
0.68858272945075
0.712538001076335
0.73458611234876
0.715440505736652
0.699538931413964
0.741720114674074
0.722159430226774
0.716969446976219
0.714106787714615
0.762056684302357
0.763620335915317
0.755936687071406
0.750483555320366
0.789735863393212
0.775998840001353
0.762893887483608
0.749482705097965
0.787068066741101
0.788070215147248
0.801739743805893
0.795108715023721
0.835610343387401
0.818066551669771
0.843876467988865
0.809486208415087
0.80549900145022
0.789638322802326
0.811964254941581
0.797519219940904
0.822076569606892
0.818103382190567
0.81636421179782
0.815839227445745
0.829800225607384
0.858930246005917
0.885758860732875
0.906814421619713
0.901065605674571
0.867211687238405
0.887409921474596
0.871833145271265
0.902825802964227
0.890704996655
0.867185885974439
0.891562490305778
0.909216638680766
0.898063010866102
0.939168405094293
0.906979576900456
0.938614738609278
0.949830633129927
0.989000679883898
0.90576872393126
0.945968535998142
0.958840953572636
0.963320553771562
0.966265131490124
0.960998892779688
0.955818956561121
0.992157302338468
0.962862489951533
1.02926714403592
0.938283590235803
0.969500703301828
0.959456590964363
1.01580265862387
0.97937924083286
0.95584149859122
1.01517077794973
1.10776720013676
1.00755631712487
1.06501240441405
0.963846189831042
1.03926480742428
1.02666134334014
1.06316690500912
1.04593485606329
1.07002178471471
0.992014149812478
1.05175926006538
1.04550613703429
1.04634500595551
1.11068215412924
1.1079007612964
1.03058911428659
1.08596671900911
1.12858350339626
1.14871738281624
1.0618919540913
1.14326942126494
1.10671986309425
1.10953254499668
1.08578527166942
1.24187595230725
1.1845351231287
1.14568536988397
1.07525502483956
1.11371997369884
1.08670182984909
1.12523169681308
1.09529857024451
1.16466908858464
1.11404052101419
1.19596611737697
1.23874855316799
1.17895000163695
1.09212651260217
1.21665486045962
1.17805809896714
1.16076839868974
1.15883045885615
1.27095042755015
1.17332252712377
1.19251866392444
1.21321454949424
1.22231221942542
1.16599780608482
1.26782471084428
1.22904317621047
1.3482097853065
1.26059654510509
1.31744858383089
1.20317950462735
1.25349349406286
1.25129694459297
1.24289711116532
1.21488574490283
1.28659706324312
1.31781417528056
1.30058557614063
1.26689472466167
1.1878958319147
1.24887534767593
1.24683892072911
1.22523277405041
1.31151601262389
1.13462141267683
1.24305714907964
1.2204749654754
1.38794956076599
1.3267630220959
1.34870934880894
1.26235531437768
1.36367262608904
1.28036136754405
1.23451853236727
1.22925554374572
1.30007023907802
1.28054290441149
1.61420653976907
1.28343276871356
1.34100673749738
1.34341191544544
1.41242828843045
1.37537040160265
1.36999516121216
1.34662784238171
1.29402627412975
1.32139221959941
1.52404802857708
1.43781118104212
1.56718359768874
1.43189033947983
1.38664802533753
1.35107601334032
1.29842501313926
1.33654755191701
1.43966928997865
1.30290292855525
1.33663994524166
1.34730104303877
1.40522929827054
1.43294940731752
1.48020450748922
1.32313905379643
1.50748757927699
1.46860814413283
1.53809418553913
1.31303141258533
1.45412344454019
1.36905106210382
1.41281357042631
1.4343474165524
1.36564983239044
1.26200811134776
1.41446323981901
1.46465178739
1.50472190029197
1.34054994956147
1.37575227292371
1.38720059695372
1.36425160783222
1.31723676164799
1.45432061060729
1.43945171293591
1.53745838923789
1.34620678397868
1.36489719253577
1.35510785952362
1.50812501546027
1.38398136230945
1.44281361140756
1.45846596952579
1.52319626337852
1.38779534523922
1.48821079556936
1.37949532551574
1.47981021321265
1.39761491048795
1.42967750324623
1.35957079710711
1.43694818189296
1.4044040788726
1.466652783612
1.45300956025972
1.49696818804373
1.47352324547926
1.59846864437796
1.41204100910939
1.40111833451344
1.37548391357196
1.54309995303354
1.39077646639574
1.43853083447204
1.29538518351741
1.38746708776422
1.37155347974244
1.478811093999
1.46303338819051
1.43023552657964
1.36394283183761
1.41758076267833
1.44777849129104
1.50001954693631
1.40011572090111
1.43104369710102
1.41859162646722
1.48039652999514
1.4278034673963
1.43049971946257
1.36618732464324
1.57358852466182
1.43727865092597
1.48867079810745
1.41315464187422
1.42463651625858
1.31544686635982
1.52004974328174
1.39622039269053
1.40999326027984
1.34978725946022
1.44636697757903
1.3789683139056
1.37992556565809
1.40857120841044
1.5467527301437
1.41854614093028
1.47309794897972
1.36840846387272
1.44255551433504
1.54908692434287
1.42622957900624
1.46676062908381
1.48304350280087
1.29493370691042
1.46158562765033
1.45233159182012
1.49772218620313
1.37096747332464
1.44499422056222
1.34328765565971
1.49850129371397
1.36066378230718
1.40791696698763
1.45169695824529
1.50467338276777
1.42210145425967
1.4190001812729
1.42907497335522
1.53319672083022
1.3647340622107
1.41219779423106
1.38117569105158
1.43296627005032
1.39505428143349
1.42081559275067
1.36381488606017
1.40948224750893
1.42914672907002
1.45290132911428
1.4085605703312
1.41705564025039
1.44734013155001
1.52086836547249
1.37568595878816
1.42151607749707
1.37061035083927
1.51484233854775
1.35008402026239
1.40823768837272
1.35542485650708
1.46232686802393
1.36283357271882
1.44519624993386
1.3781336971805
1.42598097064634
1.37102931329309
1.41721467211118
1.34934901083773
1.4334912602197
1.3609588976005
1.56008205386663
1.30877764319191
1.39560574717706
1.32693438901975
1.37186972506227
1.33235763679564
1.48410053446627
1.5135287890754
1.46488147175745
1.32345572711148
1.36298256786389
1.40136850492754
1.36687226245753
1.33021608785971
1.41755486912465
1.40058169915322
1.38273204175865
1.34763673456809
1.39004426194584
1.32219096186031
1.35671615034469
1.33567078410981
1.36733518810285
1.28749764672788
1.44666420770398
1.34843484248382
1.41312591611533
1.29037214833334
1.33607574511836
1.31324568397668
1.37196917210032
1.23013747671434
1.29658761257542
1.30618745434093
1.33717909831573
1.28097250363806
1.35049098746052
1.28188196547548
1.35351745968308
1.33350656913361
1.33067088560115
1.27008414248655
1.27212875335432
1.20542041011303
1.2955208480398
1.25454976571513
1.2506816429551
1.30291547225303
1.2983012309839
1.20104471851688
1.27651813640289
1.20742425257607
1.24957075428481
1.23909451958105
1.26583979080789
1.20831213463289
1.26538977125668
1.21908975958052
1.24322591279161
1.19761004967788
1.21182472197669
1.15442136971839
1.22577415701259
1.14311868902181
1.20308303174827
1.21297196527494
1.20018052135342
1.11824414865167
1.15163358635059
1.15369099810626
1.13727762235782
1.1201260580067
1.18763319856162
1.14331332155915
1.17865616151355
1.09458919549927
1.14586524956149
1.08484969447525
1.14274086008336
1.12425153181634
1.11957543802203
1.09921178723963
1.13699549341421
1.07996949571873
1.11464252911193
1.04613322052177
1.11967921464566
1.08545496590059
1.07059456241609
1.05372632753041
1.09229660078246
1.05965641701181
1.07172289123188
1.03712247537869
1.04968857037803
1.04466416761889
1.04414008167517
0.98503650749939
1.03396209536967
1.00070102512105
1.03145592733341
1.00309773532044
1.01424830456761
0.990386394213207
1.01460616750369
0.966409678710181
0.972611522317812
0.970113860524012
1.00858973457105
0.960325250497441
0.967995042858367
0.930230095591882
0.968758651545112
0.955348729028123
0.946815671067214
0.937151616060321
0.952650261333378
0.939420505161384
0.944377148975679
0.912167404475986
0.921801409091183
0.902446306769435
0.908610126360956
0.872493488334942
0.89218963775007
0.886017236722091
0.890591298254744
0.859016818334536
0.885206871130038
0.874656674850653
0.87303412006529
0.860970881868118
0.867038584192412
0.835107904469277
0.872617211887165
0.833628642668199
0.843630546278528
0.831749314065324
0.864085670308679
0.835209926286527
0.822622153399197
0.815298861494152
0.837828485572806
0.807738404027463
0.828708400982336
0.797114717612752
0.801448837509559
0.781207368308309
0.794047693087846
0.7970015885739
0.797923901981981
0.775106036914124
0.770251678022257
0.765880978393265
0.779406517096525
0.757545918575833
0.758375783600227
0.734946490385762
0.752399842883854
0.733683752479537
0.739503401789921
0.711299237629024
0.740303578678501
0.718811887555425
0.735425542342968
0.720894709606993
0.729990147406886
0.696514752083318
0.731472327504821
0.705723642185225
0.688284495735801
0.679838388562599
0.708940694680331
0.678213404211925
0.689295160230616
0.686100667761683
0.701463521496469
0.656632699600796
0.676659765853147
0.667017787564855
0.671350145643259
0.658549664796742
0.67741482653708
0.637011926156037
0.656530937864784
0.653590636505167
0.642479761470824
0.633722476393213
0.637836622083348
0.624098902001573
0.630501221792949
0.61126486592209
0.633099315678552
0.613962716994819
0.616767210519288
0.601334902124471
0.606819314800652
0.601227055097071
0.607552025353148
0.590267047811172
0.597600519532591
0.59267568359621
0.596021577913852
0.582296752692962
0.587806580200119
0.576938198103421
0.581929326503254
0.565144341795319
0.565993309504774
0.55034512198526
0.571678182946181
0.562545115209901
0.559802405281031
0.552153960002759
0.563325049319686
0.543251622976683
0.548708490247159
0.541447717336715
0.549973923253507
0.535295785403165
0.539961644959717
0.522417116902022
0.543104992030304
0.524899859241015
0.535167410201212
0.513426732030822
0.524148414273609
0.511880146589981
0.512393469203315
0.497667373218874
0.508766996970303
0.492359230843708
0.504734092540297
0.504711767409949
0.510762697274248
0.488256166951606
0.492368041296003
0.48833153823906
0.495985428443938
0.478678942088575
0.48324749252893
0.473119746213097
0.481276376759955
0.47162347630974
0.482490815830069
0.468983097831779
0.479086217344866
0.469990731724114
0.477984668426457
0.470330259804659
0.465495644203424
0.456238356952408
0.470072281681806
0.461346878842521
0.460600941502344
0.449327303911997
0.45468398498399
0.444523932289627
0.454463565380756
0.439951532473527
0.451267955372141
0.443271488213561
0.450883233817758
0.439961488684829
0.445602106715998
0.439423060254107
0.449677941686024
0.437401409241817
0.44399375256301
0.440703930254046
0.44949021689092
0.442772386753517
0.448637546199418
0.435925580310752
0.446236712838461
0.440151240333054
0.447902654985469
0.442978380709442
0.443546343981991
0.433606465011678
0.445504434067881
0.439710252250257
0.440931366722821
0.432923094163308
0.442646760875048
0.438554712727414
0.45367329316416
0.444615581567476
0.451337411430423
0.437677370729836
0.445655169106329
0.434309425794606
0.450516662651764
0.445181020588195
0.451383595776386
0.43997806204856
0.458497770521904
0.43947698670808
0.450952851500158
0.436681026026005
0.448788357883314
0.436005807220223
0.450930807079533
0.455096692699694
0.44967191523706
0.443278201897722
0.45769009766594
0.452976665577678
0.457605576735075
0.450596665521924
0.46490732057923
0.459496003484873
0.477420291788098
0.457251640542438
0.462994724834099
0.464923011217535
0.47060745357834
0.464152163859696
0.470940540891825
0.479764444984108
0.491160762823322
0.481600641277851
0.481690558888606
0.473270127015858
0.486132464372634
0.477447222927344
0.482448543678231
0.488128608458085
0.480251765246906
0.481445102753121
0.495616825767541
0.477253278415389
0.496761022981049
0.48342742245939
0.497428772967777
0.480768917158413
0.493459894627658
0.47898018827905
0.48212238606625
0.485341058516854
0.493137761658756
0.470325880670417
0.484798663316609
0.471833079113962
0.474139339386016
0.467963558470628
0.468743081091394
0.465410407733978
0.481757676490547
0.465593865724993
0.466404485703407
0.460616421976672
0.474910776003804
0.470034892637177
0.469322222132873
0.460562408830744
0.468157918410136
0.459601546278911
0.472849472032134
0.461291942269947
0.468880036353609
0.460747194591698
0.467624206700676
0.455670626407575
0.462695290626847
0.449276240732384
0.453794123749411
0.46015199905413
0.462910456577705
0.447138321108678
0.458410251133779
0.451413271180689
0.464112616014562
0.448746671737126
0.455611724944276
0.450662786817732
0.463319528935676
0.456861722912384
0.465382494403852
0.45449865243772
0.461191349779658
0.449076785592298
0.449303956617419
0.437954341536446
0.452492230232961
0.452086091869728
0.451566126174088
0.444606487879885
0.446936817857741
0.448092375406147
0.449227330322788
0.43378567698254
0.439660286652097
0.434885630749085
0.441656107776108
0.435120892263003
0.438894714480105
0.425748703165553
0.437440422488094
0.416757899756543
0.425992477715282
0.417669610100059
0.428428959880954
0.413945646729682
0.42437267666266
0.41013117420886
0.412321963133465
0.401149276417179
0.403989075732099
0.390893314100725
0.397504215241134
0.392975684897275
0.398611665903714
0.379240660683551
0.395837809428137
0.379730468257598
0.385701925397775
0.369976101098514
0.371296865280442
0.370520623155258
0.368861247795158
0.362245268032769
0.373059127875697
0.35652743905713
0.371243911872359
0.363015290940565
0.358517489713005
0.349430988353426
0.356717445943834
0.34471067396036
0.347056469921871
0.33820910630973
0.344902149002021
0.336347078429997
0.341137333243522
0.329748205047173
0.338844902356241
0.332525498015458
0.334134031946133
0.324386395770488
0.32936253257544
0.327836422165249
0.330890737837513
0.319392514966037
0.329924691945993
0.31643815197803
0.321593936617565
0.313043028292882
0.324665982428215
0.315983958235451
0.317205215368712
0.304594876317713
0.307623076804809
0.30624736646526
0.304810996634688
0.304112794300522
0.311675107150915
0.302452765952144
0.30369936703301
0.297371219946659
0.301539981090321
0.297089371600503
0.297279690788867
0.290433745701231
0.290919767881198
0.286547668787029
0.289375867482129
0.286698718099775
0.287300984382296
0.280584836518383
0.286024640388828
0.278197315325154
0.281990433304475
0.279799141963445
0.285947738719658
0.270648030860798
0.27781209372728
0.271540931982042
0.274009692488465
0.269086569147853
0.277844769259212
0.2639284971268
0.268868172354618
0.271007634939874
0.270964033498734
0.268026456445151
0.266295723774005
0.257860148745053
0.265412335265952
0.258750520288988
0.265669409427313
0.250491872280284
0.262327431203056
0.257672382325227
0.26350040381725
0.259029772719104
0.2591560972279
0.254505856108652
0.261339103489765
0.252079239311407
0.257836446053928
0.24979378760616
0.254452471223972
0.24549404931224
0.253700015112201
0.248469150271289
0.24767806335124
0.246227333780571
0.253782663703997
0.24131174323188
0.248647789795187
0.240667849075832
0.243497958605155
0.241648741939211
0.245209447816007
0.235586946181895
0.249705112948958
0.238511476522631
0.244260370532832
0.238081084761165
0.243930379924617
0.232531229896276
0.237916955560022
0.233972081038908
0.237873449675594
0.231386257799888
0.235262328052717
0.22937252391344
0.237829912190154
0.230325210274244
0.230931660144805
0.226722108192579
0.231949303575026
0.227415571397787
0.229698924607527
0.224713930379462
0.230745893072369
0.222685662243168
0.228363181702861
0.227861144701173
0.231130719498383
0.224691543264351
0.229864252887271
0.220631687580291
0.224668319633144
0.221059383504691
0.226431803859593
0.218852333138064
0.227473874148702
0.221601567365945
0.22118688768698
0.21736489454916
0.220798656514923
0.219662042522618
0.226135903741032
0.221536537963759
0.218360187340379
0.212052087604687
0.219521398490038
0.217893110839767
0.224204575856287
0.213486485498779
0.218050215584534
0.214512573824466
0.215327636525127
0.210445179589849
0.217993093236871
0.210300347437794
0.212888760223327
0.208747667011401
0.212855022775291
0.211873075216314
0.213615524554399
0.208179631964882
0.208886261951174
0.204919801181191
0.209647536294457
0.207427961587813
0.212249078805572
0.205095840593554
0.210592117663803
0.203733122153008
0.206119357774914
0.201508887357269
0.203300914615068
0.199418635345487
0.203888201415464
0.196575658939763
0.20017022439783
0.196360396304584
0.198494707216845
0.19517356442707
0.196187645718871
0.192438608864215
0.194858899380871
0.193581852669466
0.198357722025335
0.194867997108132
0.194740427089325
0.193627316433151
0.193811000128521
0.188759101237471
0.197374089052089
0.190284128096285
0.193585172525595
0.186436013035065
0.187076132299826
0.180358429347995
0.187804754274864
0.182263185561214
0.190595376212036
0.18385853743262
0.190546656323586
0.182805739662118
0.185583386680731
0.182626744553806
0.186204183795716
0.179749672653082
0.182361313553818
0.176154784410035
0.183724159337547
0.174598553678907
0.178469082131362
0.175124708885357
0.178020647128332
0.174295860940258
0.178632615823106
0.168493614457353
0.175664342745221
0.173375389729358
0.175749611646409
0.17224914134979
0.17561448311987
0.170366374369082
0.172944164558382
0.163092757490415
0.172344215616641
0.164800394569134
0.170054541415239
0.161985949325507
0.167784467634192
0.16444166980204
0.167838800508603
0.15793537890494
0.163223260361635
0.160814783383416
0.16219780215988
0.158291463074736
0.162377393621494
0.15649019634552
0.162142003669211
0.155192755703744
0.156816593933416
0.154025459129893
0.155965703504345
0.152514917570936
0.157248158125676
0.151341367872688
0.149724700050286
0.148649980371624
0.155065347268601
0.147922148202442
0.150786652046346
0.145578476444685
0.153941005479771
0.14810634213126
0.149621656352024
0.145043064443778
0.151466732169781
0.146145073446208
0.150030787584199
0.142682839503798
0.152088125373703
0.143190850178772
0.150738449791112
0.143220834062438
0.146009984816436
0.143484428172236
0.146085041564823
0.140398754792198
0.145079575758361
0.140466672533841
0.144845976494701
0.137839054474321
0.14705326113972
0.139188155535603
0.141428287429891
0.137079787376321
0.142695971565007
0.136123862368885
0.142138369147235
0.138959283409134
0.142440566997698
0.138471355995279
0.141093875008864
0.137578712554888
0.139164289522825
0.135085477153334
0.140403419193163
0.136836325043711
0.137835839756163
0.136325995256484
0.138147143780037
0.132142131646299
0.136004789706503
0.129184054712293
0.137236081823859
0.132757613904228
0.136992733334376
0.130803754920164
0.131161116315042
0.130474898505349
0.133617076567787
0.129009439753205
0.135314490647131
0.132057562213432
0.13702779498003
0.130240117105936
0.132917433199965
0.128512277057801
0.130980729309077
0.129648428666654
0.132405144389985
0.130894781315541
0.132200776002105
0.125251620821404
0.127326968431134
0.125027725299707
0.132115006677063
0.126677922518665
0.129977516687204
0.126628195469373
0.129028153073752
0.123459049954586
0.131727824563133
0.122118184976683
0.128501011756867
0.124936934271311
0.127414306845787
0.128909500842046
0.128979761508463
0.124709672647616
0.127197345425601
0.125731318620595
0.129622463572146
0.124711832440969
0.125132758785461
0.124530038894174
0.12556693680083
0.123915057696021
0.124995653085436
0.121524537233044
0.125146414369188
0.126131893815262
0.12633542784947
0.118161589991092
0.12287301593177
0.120168607451739
0.1263456256204
0.121306452673611
0.126513353624214
0.120784027326764
0.121584462945846
0.119415678837978
0.125569839067076
0.11890100681272
0.12246934130383
0.117208620026821
0.121716948230045
0.119043222233261
0.120216895449916
0.118470496412794
0.122907924426996
0.115877597530665
0.12012826246558
0.118148050802727
0.119499987640779
0.113621959406538
0.121120194676052
0.11639047193975
0.11778627343074
0.113065414310651
0.119146780297341
0.113895145310525
0.119776844641679
0.117101306010814
0.1165231192681
0.114523190737604
0.118303796963146
0.112449948150815
0.117088036675728
0.114083776464007
0.119485181887452
0.11363696361429
0.117708180922223
0.112339224236559
0.117232082449545
0.111311651923304
0.119524167784551
0.114207501097863
0.117357196621146
0.11453857443844
0.118854753462285
0.109885806493174
0.115542154066234
0.110584052029103
0.117747211134972
0.113758645235197
0.115182940223799
0.109794142144341
0.113091985999546
0.11260994775485
0.115848854050836
0.110582332694333
0.113235220942032
0.109803257156044
0.112615086042464
0.10748235749741
0.114154106727636
0.108768521424424
0.115504702829744
0.110164847597776
0.110997386054772
0.107098383619606
0.110922272481819
0.104565360841469
0.109358392268934
0.108355190418263
0.112151377815832
0.106099744110299
0.10989980801021
0.107476984132744
0.110248268663344
0.103887834218891
0.110380805918009
0.104042008915753
0.109536966300265
0.105400465812733
0.10794540342782
0.103648993853686
0.107332518137838
0.102751270186002
0.10646474089115
0.102472433094625
0.107741489623826
0.101602235318721
0.104097519144276
0.102602292556402
0.107539551394303
0.103211153044569
0.107489184589725
0.0981682165594145
0.105287563914046
0.100060545793254
0.107211956258909
0.102289947803072
0.104914951234751
0.0998039132190183
0.103558135537038
0.0977180241755848
0.105420687000505
0.101953225149049
0.105117723719303
0.0986392099483704
0.107579706649171
0.101234291132859
0.104790376964662
0.101506272371493
0.104595845997549
0.0966226723450389
0.101696823436691
0.100220502421617
0.103187297480505
0.0970441933566863
0.102576643698731
0.0957043230186913
0.100064661634962
0.0969896141948733
0.102488441614375
0.0979897189940248
0.10230132627865
0.0994697034768355
0.099301443205218
0.0959065998111296
0.101513838827073
0.0977715031501059
0.101305334583194
0.0975189938029639
0.100684720258387
0.0964367282816665
0.0994844328130203
0.093707435496125
0.097033696656659
0.0954525523416007
0.0989515845505651
0.0939438331689237
0.0998245796029005
0.0935209816615073
0.0959518268740328
0.0930738506665236
0.099756784953177
0.0912455112251248
0.0977111759975268
0.0913945801135724
0.0985804663364066
0.0944248328997321
0.0973309086030777
0.0920575374566608
0.0987054166866954
0.092792341482946
0.101071465635287
0.0948020620841467
0.0993328156518127
0.0966110305069474
0.09815642522787
0.0950619662422942
0.0987016082746616
0.0946963225855477
0.0975099857047331
0.0938739099317603
0.101591333973309
0.0950926711202269
0.101518957340963
0.0961783021910744
0.0998312286343142
0.0963048100659052
0.102674223552857
0.0935018771133028
0.100473396186401
0.0948515847462804
0.103923286923522
0.0951607091665637
0.105608072100455
0.0942452071058573
0.0976483961715127
0.0865481657620207
0.0992641680027058
0.0891883356375762
0.104444622559753
0.0919903274349765
0.0964292276244748
0.0924417463513702
0.105653793857541
0.0872364162386554
0.104713918318732
0.0882259955436309
0.095559074949271
0.0905762141818579
0.0950870661579254
0.0847295226462453
0.102869268283696
0.0878875926471861
0.106065595220668
0.0874860786581116
0.100485513068973
0.0946396664930049
0.100178045372834
0.0873532043243806
0.104029012884715
0.08833092686153
0.102550923005541
0.082444031120583
0.102905110022147
0.0786361780364388
0.106076620302232
0.0786161707644222
0.109107004396254
0.0823072768681353
0.109285785545844
0.0815981243081037
0.110831188535161
0.0775865253902722
0.109753668625356
0.0713491665773933
0.112418415577792
0.0739132458248533
0.12075461273117
0.0751312952444091
0.124993992268612
0.0663942054728814
0.122387489907479
0.0725105675293344
0.129915478065525
0.0698535711323196
0.121559569341702
0.0768706672604242
0.126706993295176
0.0792989575246552
0.1138517001583
0.0958011513077069
0.104448627691083
0.0976575864755535
0.0975327284221704
0.108183975086816
0.0874554270083759
0.115490770624071
0.0868126906421655
0.11179279453911
0.0874766684635651
0.110971764050127
0.094433192148366
0.107645937455288
0.0995643746383939
0.0991011604113875
0.103428639346222
0.0968765327224662
0.101293440424129
0.100445583238513
0.0998427437308153
0.0984734921227171
0.0984652496094376
0.100667073017041
0.0944017179475852
0.100853873051241
0.0964706250790889
0.099088407662857
0.0975074711067166
0.0970337345743122
0.0980813644192185
0.0977305483810292
0.098776974874302
0.0978637232556201
0.0957118564552089
0.0968377714148215
0.101118466465965
0.0995834115886985
0.099242239386969
0.0983964003414785
0.100692059510483
0.0991099897157484
0.102019587263808
0.0995965883035632
0.102389993427728
0.100386771949866
0.0993260225215948
0.0988660891560621
0.101923783531777
0.101165770605582
0.099852249658502
0.100254820910521
0.102645004224366
0.101861243984471
0.101471785941283
0.103019540264467
0.10127346824661
0.100150125260069
0.103138175543928
0.1012870000112
0.1043016887747
0.103263635475201
0.104124161404396
0.103222582328283
0.105018209218121
0.103221175231461
0.102912422851066
0.105108216349851
0.106090071600336
0.104673686720229
0.103767264025357
0.105358898196689
0.105698513772426
0.105046043902724
0.106283015565661
0.10524101225209
0.107534301467007
0.104145956947722
0.105028988551063
0.105175852673406
0.105107169716055
0.106809618592543
0.106774938256379
0.104221524847924
0.106542185784156
0.103278881427922
0.109564125413318
0.106321231419632
0.107974463796966
0.107660549408322
0.106916932060028
0.107050548788491
0.106573901942589
0.106349605545028
0.109379228263203
0.1048358703881
0.108865206038547
0.106934025422877
0.108664448849725
0.109240457688167
0.109726837684487
0.106602917274438
0.111173307297421
0.109662156752761
0.111116318347684
0.108929081450035
0.111567944579257
0.110223008176735
0.111434455065501
0.107814042559201
0.111945804741721
0.109681345741419
0.112156001754447
0.108687342297038
0.114924351760283
0.109847291076663
0.111968521498731
0.111112008858271
0.117050995699038
0.112500008983552
0.114638122545752
0.11369304562046
0.113788230719593
0.112713509001865
0.115102509451537
0.111484348787061
0.115360868068266
0.113252670576002
0.115898268020839
0.113906534009912
0.115500450282585
0.112512461504028
0.117260195572909
0.113795028177807
0.114948106479995
0.11637036039822
0.116624205944908
0.114439441533526
0.115428677301652
0.115234792113909
0.118437696536286
0.114987952067363
0.116669025349554
0.113442115140354
0.116540328336872
0.116335248405578
0.118352130503082
0.11543660689604
0.119437492206737
0.116904961754167
0.114472165425629
0.115353422997778
0.11796803824066
0.115452050728448
0.120438766628558
0.118221469989511
0.120770510603812
0.118947395206748
0.120440260607217
0.117342594843961
0.120555671007075
0.116667568929327
0.120116962723096
0.119629407096109
0.121441082484309
0.119045125676709
0.122617634586418
0.121413051119421
0.122668417579361
0.118366349033044
0.121960368833094
0.121470160292972
0.122224568128587
0.12160805728821
0.121565845070476
0.120415488382534
0.122676010841641
0.121337583325558
0.123169509128586
0.122102583809373
0.121580044007857
0.122539076463578
0.123314687048969
0.122054369343752
0.128414807601541
0.121208143374824
0.124028254734854
0.122658383431876
0.123788245991315
0.121653185777743
0.121417685021194
0.12183050513761
0.121040379547582
0.121435633475236
0.122746335842428
0.119830663346506
0.1226211263987
0.120414411112323
0.121466835021551
0.120603351909847
0.122478821129287
0.119692030326726
0.123172564814309
0.120690155391157
0.121910012435578
0.120207762901444
0.122598846782325
0.120972550208334
0.123296089807985
0.119997241527125
0.121079791297089
0.121555039827537
0.121101612554873
0.119920040520928
0.119856813680198
0.118640123004892
0.121072892473094
0.120626624119103
0.123071567871951
0.121669613774021
0.122109683091097
0.119601077187744
0.122803976949101
0.119728546677788
0.122315208464691
0.119655872051676
0.120837135876732
0.11867152217709
0.122019378429948
0.117303035270034
0.121597589271572
0.119755241435672
0.120083892330609
0.11775032946852
0.120629702033504
0.117808681463398
0.122382070117515
0.117256692660997
0.121455382526548
0.116539539901656
0.118495174503682
0.118475258163788
0.121926740545251
0.117522279827166
0.120082003917274
0.11658366159916
0.122469378599477
0.117511610863963
0.118926305772032
0.117852359659805
0.119108013835572
0.117510844124831
0.118244304479255
0.117401957586269
0.118486670479256
0.117210546480827
0.117648649275295
0.114909250957019
0.117832329819588
0.118534586450921
0.120824038651471
0.115949848264367
0.118807009834648
0.114505341819218
0.116876994877449
0.115923681493199
0.116731695190414
0.114657506609727
0.115800022580903
0.114976944473475
0.117479167950711
0.114504027630289
0.116870140444747
0.114940819461182
0.117831615022785
0.113292621981435
0.116457566174535
0.113353461313971
0.115201204910062
0.112466487345282
0.113928631852856
0.111601495258639
0.113175370619178
0.11183329071151
0.116321409750772
0.112316605220938
0.114357457799193
0.11066614914015
0.111641480741374
0.11099846096343
0.112919603272509
0.110531622938831
0.113008451127364
0.11049022391309
0.112881805707101
0.1115531502508
0.111517705366137
0.108937650096359
0.111284004577064
0.110382265014679
0.11000884119772
0.108057706338339
0.10859996627028
0.108757809475411
0.109765776709051
0.107997698330342
0.111029201577897
0.107206086543416
0.106894805751865
0.105839622369413
0.107849327102506
0.106753270647701
0.106356350513686
0.105351227182294
0.107680620997957
0.105453029253937
0.105276348282129
0.103603929393082
0.104557716457786
0.102536865077383
0.103205840825492
0.103584755954089
0.104397027307583
0.103852029808059
0.104565011859538
0.108552387034461
0.103571597804222
0.100399678608417
0.101235337569781
0.100435257777529
0.10074715721657
0.0994257626539898
0.103779391144567
0.0988974018763523
0.101669062483394
0.0993892839273285
0.0999851372034002
0.0993716428964588
0.0971666148263197
0.0993995505530772
0.101984945557571
0.0983716134119235
0.0971822184480799
0.0962413059043477
0.0994272123797952
0.0963800176185307
0.094638008666604
0.0950341335710626
0.0960436888633284
0.097067123650084
0.0946391392209556
0.0991964051219318
0.106335746827733
0.0965833515220562
0.0976968094882411
0.0956373288889768
0.0988280135222297
0.0932072160377241
0.096254269103166
0.0940864929849594
0.096501334761461
0.0933143208158059
0.0948546778019184
0.0923909586042108
0.0943590061127185
0.0913410924767111
0.0945357293370397
0.0930745132414137
0.0944067963386725
0.09405374462603
0.0945844482302414
0.0893302300354856
0.0943231318530139
0.0904984944234226
0.0917504630595137
0.0918077862924165
0.0927165666980056
0.087181511188754
0.0963316254674857
0.0931619294751297
0.0939178153844325
0.0894533300271803
0.0906607518414479
0.0879425818679459
0.093700506136526
0.0893379454499456
0.087944729159701
0.0878892688176377
0.0906982839216217
0.0873095180474576
0.0907952656139705
0.0883841211525476
0.0882923886632784
0.0855831055560096
0.0880098210430827
0.0852499827589017
0.0878933767454098
0.0860000924253502
0.0875198249235973
0.0830842743934053
0.0874259657577016
0.0858922060937246
0.0909281962996288
0.0826217874517436
0.0889617408729588
0.1022590811072
0.0882149621455111
0.0868831893394709
0.0870002933940377
0.0833588510842805
0.0839661349018854
0.0852466932334811
0.0833924166201222
0.082755863063685
0.0841622952947545
0.0832501476577494
0.0851569916684044
0.0841807628496577
0.085755441374907
0.0827040328031162
0.0856660035702849
0.0828981420020987
0.0838017140914772
0.0868322893608289
0.0834574917976584
0.0852678585130778
0.095281969120959
0.0893443527838451
0.0850123641178197
0.0835494405577284
0.0783302874603289
0.100620311014676
0.0907908258573082
0.0831951545924865
0.0853944822829758
0.0806847417960678
0.0843220525626964
0.0817465496239329
0.0831353621476192
0.0817635313991394
0.0910771304293603
0.0803629482656775
0.0868303328563973
0.0806370144040756
0.0821309571942747
0.0811403510140177
0.0825478910236933
0.0800552022272238
0.0822450957082499
0.0806530085268165
0.0821599545467043
0.0790402152938
0.0791486508780034
0.0807456787868814
0.0813894143853211
0.0822881159999452
0.0872511947388574
0.0816451803907347
0.082923763076039
0.080762013185592
0.0791048091127501
0.085167417906809
0.0989627514894424
0.0768711155428367
0.0832356357552963
0.0773951460180283
0.0809320822237893
0.0807448702885709
0.0823625864276292
0.0775222575668896
0.0817138829354936
0.0780471329582071
0.081006539335471
0.0816288327617792
0.0823537814917892
0.0780657068167274
0.0822461214805307
0.0799939787235644
0.0816192637231433
0.078732380115618
0.0781465505233933
0.080072288265582
0.0822156796684338
0.0943976925581264
0.0999779995736856
0.0860338350603383
0.0921889325204249
0.0820797149885903
0.0839056538275093
0.0790426331761349
0.0824386169514961
0.0804446627045064
0.0854308583440756
0.0769923941881705
0.0835860156865281
0.0799365093928117
0.0822232446297596
0.07786051825143
0.0828375621083367
0.0774245808631854
0.0809401231066574
0.0779427953660372
0.0832229742594293
0.078175281681025
0.0840872764283009
0.0767264823082402
0.0852785007206303
0.0839079383112974
0.0874991336209981
0.0736350852077006
0.106952680975606
0.104470623375162
0.085482321003575
0.0868272940507915
0.0780468059377147
0.0807414139980425
0.0809623599152873
0.0811017986276244
0.0877469636553542
0.0824176468505806
0.0823983786817458
0.0834205834736371
0.0859343989960192
0.0824957984791133
0.0798367527489911
0.0885911664632994
0.108124629022891
0.0885240824415111
0.0875757640135607
0.0821907185673764
0.087020338282336
0.107650147592652
0.0896190328002273
0.0869717445730836
0.0880209885874859
0.0839601068091541
0.0864944379363435
0.0826228566167731
0.0867765104951205
0.0924664023597418
0.0917140315794065
0.0839901756405422
0.0864654132170496
0.0829272096411943
0.0900536357874036
0.0872637026439433
0.093803359095674
0.0941108685237994
0.0906853240080805
0.089110084583687
0.0931714227372882
0.0861329450686352
0.0889001628771511
0.0861975494213545
0.0894490034568215
0.0945075289889909
0.100639613325834
0.092092205736865
0.103233853682525
0.0955474405102412
0.0882281523186068
0.0923778721774894
0.0976096779635766
0.0970842845369091
0.0902805232842901
0.094237426665922
0.118554629824604
0.100300438311379
0.109999891529088
0.0931895804446994
0.0968516696558075
0.0922619857772691
0.0929971535598014
0.0898623721356395
0.103457965453146
0.0990509132931326
0.0965225395830513
0.0955847274699392
0.0989931347860308
0.104389789036774
0.101047938739545
0.0985071849393942
0.0963090647777313
0.0960655323564148
0.10740700130476
0.10315977850849
0.0927766073107426
0.124864165033433
0.123810567021814
0.114238899161591
0.110375527127281
0.09959722748468
0.130301905792621
0.106410386210575
0.106483442055844
0.101679355315869
0.103332645922559
0.102048714179432
0.104740561560059
0.134287975851921
0.117022019767849
0.105280408206786
0.113219456584042
0.105152583047057
0.132487093789344
0.120820908606422
0.111671426224941
0.112689935287794
0.117287745179363
0.109864653162556
0.144312133965009
0.137066897913502
0.123241259118056
0.142071811756721
0.13013753206236
0.133282013398859
0.130670768980259
0.125862927930662
0.1364755186377
0.143024635963858
0.129612608297246
0.121912962856933
0.138018561676767
0.154191307226695
0.131553617177848
0.138272978909844
0.13203035087491
0.127231899035201
0.160720201441758
0.189401829101469
0.166248693624038
0.145587747997476
0.146454027013224
0.165470165900422
0.152347801806648
0.143327186047811
0.149081795340792
0.146677037190219
0.150034152402822
0.153866057704138
0.167277503814864
0.159084624808773
0.161027481511165
0.162258773715051
0.165144973804434
0.184987462888422
0.221013591402951
0.205257932359087
0.183927751297726
0.199605167954194
0.197392156134661
0.184605238539443
0.188309717957607
0.18633936814199
0.200120803762621
0.195261421625629
0.196757818465683
0.194593816708246
0.221052476311746
0.216545687574978
0.218469691390201
0.233078775038602
0.217125339065369
0.216181629616631
0.224015881268381
0.351852332961974
0.274476902949725
0.244525346964099
0.255395539302597
0.251781267285821
0.322442288219456
0.274953567122359
0.265900430179092
0.271085342800363
0.274942096707253
0.282808915305843
0.297448172739817
0.304817908220599
0.316638463940807
0.310126848625508
0.312873721473129
0.327678731474589
0.405242394141725
0.386928480117982
0.36429671787009
0.347685765149964
0.373347017234081
0.384476200643439
0.373172665611165
0.383193074791665
0.388495486705549
0.394825350345037
0.456239267066918
0.42071165574726
0.417171152821854
0.431651933744208
0.448825187462508
0.446279899048806
0.478850000186902
0.490469756172853
0.463204371174823
0.467827223012686
0.475317837374545
0.485047193851836
0.486176891830365
0.532264719402443
0.525685633547557
0.50981772263774
0.516791231383578
0.520361737640578
0.528244676038116
0.536920986450128
0.552805144602789
0.551869768966274
0.578452728315235
0.614701631049755
0.696490387127417
0.620803615540643
0.573702842044424
0.573201476261124
0.571168266151559
0.616607595354757
0.606295861502641
0.60816617800081
0.623941506552867
0.593179110498254
0.601288291642381
0.599143244733588
0.608826471129069
0.613003567215973
0.599511051201056
0.594920055975991
0.612236660960103
0.615153864297344
0.635687233154222
0.683459013764177
0.610872491317138
0.5934740279477
0.593309714774538
0.591161908590165
0.597446385441439
0.585120561847321
0.5873332376254
0.602846214266344
0.578988276248863
0.563537996434393
0.566370460187819
0.584972757087672
0.588637415391579
0.55527339435978
0.543154093882364
0.534089843328511
0.540993134187872
0.518980487791327
0.534665785543178
0.574869035804204
0.523690899623439
0.50248111032522
0.506044782733592
0.483629178249204
0.487546911400521
0.480497659123718
0.484709066978953
0.475667879948276
0.471213129698727
0.468378954788653
0.465001778375062
0.450632131016254
0.450960859405221
0.443061346820545
0.446142894824781
0.439362968403658
0.438448889087006
0.427378350214933
0.42828480557009
0.426504793090486
0.426200490944157
0.415228487500547
0.419367379990046
0.414712756244957
0.409367316802534
0.407911936720086
0.406874954888765
0.406267787973015
0.405157959584236
0.393059649256564
0.399187880999882
0.392540828979965
0.392316990603505
0.382551223208159
0.383043183839757
0.385298352700657
0.389488546617912
0.380384000360198
0.376369298462149
0.376164861717499
0.377465723836037
0.371942461426857
0.408211767982504
0.407099713543397
0.369047245724122
0.365500479045375
0.364546354147436
0.356681814149604
0.357500814619177
0.387626955367154
0.390116062238418
0.353838257010788
0.358149632270012
0.348702037772027
0.359911766595234
0.353150787227637
0.346238058532746
0.337374955403369
0.344999473307815
0.360966349985411
0.41829076084124
0.375886803070676
0.424646045983266
0.353122545893145
0.323209337504324
0.338780150135724
0.361098635218666
0.32958946431191
0.318199790330136
0.327533145391096
0.338158385160558
0.332638933642361
0.315617470162649
0.311619635221399
0.307754437598942
0.317837316874278
0.335885815970449
0.317727848761608
0.32503546624408
0.340167456509273
0.319169211231474
0.332629205543107
0.36980314107147
0.319973762492639
0.297176318945692
0.289553464143657
0.286353207851882
0.298601245057098
0.324282428465809
0.296652450763623
0.292370172954748
0.282985146099137
0.271513029901486
0.282368696642549
0.297564709682705
0.28655726292394
0.286493885329862
0.290597460740379
0.278398173745587
0.264163501755102
0.292518407181424
0.295348410849804
0.322873981518749
0.271544437421346
0.263639979145585
0.28464175159892
0.300522541748941
0.277851279378837
0.270704305716553
0.257362190545217
0.26175222622424
0.274923389603157
0.258627830977643
0.256423779221158
0.267920700370763
0.27520450856992
0.304255358887294
0.307400050625081
0.293105381611541
0.26194297524442
0.244970306824672
0.243102616784257
0.257054410279013
0.243325612059337
0.245511448566646
0.253245702095968
0.26227682232456
0.250878815667935
0.285476475881949
0.265524838798936
0.247735032694445
0.250366096494042
0.249999408470883
0.258638896206888
0.287601773398672
0.289712998272403
0.276850853087509
0.266550577554851
0.276996543580504
0.267347364823813
0.265649455907803
0.270948206127808
0.266827961765361
0.272381501240535
0.282793878360085
0.287819326659414
0.289889245719073
0.291816706193242
0.293009398686609
0.314592906398449
0.325099415791827
0.314852673733578
0.31645571054733
0.350489107008116
0.345001117941308
0.347404191708088
0.326842928203176
0.333613507281238
0.337063313893786
0.340959968660864
0.342002923325284
0.357025574440738
0.373044263331408
0.365269794538239
0.354254324700274
0.362967682950073
0.356176458505687
0.380314978175647
0.386673950306042
0.408901340434727
0.416005419445357
0.432707836802972
0.398015638647034
0.390420109194987
0.389485580645869
0.386705976581097
0.393880334420662
0.385471514493108
0.38048957814825
0.384166174100102
0.401556372329118
0.393929480060981
0.383814724019994
0.3929995538205
0.391022142890525
0.395920150920041
0.39804117442195
0.397693259103142
0.400401612312997
0.403804683113197
0.402666231323338
0.412895322802227
0.45049692836485
0.446626274545808
0.411513407698529
0.422659908344697
0.419343373270827
0.42237740367976
0.423707572171881
0.437415629423382
0.438455934720062
0.429893963608933
0.436961405428896
0.438594378392433
0.428742576372734
0.451698618142218
0.453829404815564
0.45173087984054
0.436072691807778
0.447485541970097
0.451285532468955
0.489983685765432
0.465833682341974
0.461156240770578
0.464810466850684
0.453212872347099
0.4548869794923
0.454934455067306
0.458569167943803
0.455231012762643
0.462515769412976
0.457426950053621
0.456609493293553
0.453371613094425
0.45492500218089
0.455981008193162
0.465016151328855
0.454945483431246
0.445803602600836
0.449467846223627
0.446441609508695
0.452688698904002
0.464565835849162
0.472339199077787
0.454670180414154
0.454742012052161
0.451617490705096
0.465417888234662
0.469214673146695
0.450353639585575
0.449448879731118
0.452561019965242
0.45020282970542
0.453453665886134
0.455446834136579
0.47159871303955
0.470128501507154
0.455728225982117
0.460173677721191
0.45964067905613
0.468577893589036
0.468588703466168
0.470312251353751
0.471324178411583
0.477245074675421
0.474126035645681
0.478801777747716
0.478934273092012
0.491671364334715
0.493029379848014
0.494822704257139
0.486620915829513
0.480363504870877
0.478537949529892
0.478361638882549
0.479851942089581
0.474142362238287
0.469441772233028
0.471187625488355
0.458818849799506
0.465553872708084
0.473900598605599
0.469627572765952
0.455038034780795
0.462228440046127
0.442955007615434
0.450172187542366
0.442091583521434
0.441018882867395
0.441828146171524
0.440898339526133
0.433354613372811
0.435045620078362
0.431135924196227
0.431790445466962
0.430110685963354
0.429686215121328
0.42600083133214
0.428166446483589
0.429129467180382
0.429943834011032
0.426111848005648
0.427492257844209
0.421299808300311
0.429284189798112
0.427819623816563
0.439192796585773
0.435361168741989
0.430598314464027
0.424705041531395
0.425806394445855
0.42264738469746
0.419024899958722
0.419563415572754
0.420045036140493
0.423286778319236
0.423868425494772
0.417017348676248
0.415011212656213
0.411993718412488
0.412255198633478
0.416008341942003
0.414597614122837
0.412871108720514
0.413178907753968
0.415885178955263
0.412212554740893
0.414334743933604
0.412553417639447
0.414698431215829
0.415721068291548
0.414777559859173
0.414019730550129
0.414210105174487
0.415032847039049
0.412282868518287
0.413587977658653
0.40678123783191
0.408822906209622
0.407124977186033
0.407320935447637
0.407652047273561
0.407791903010141
0.405060622599362
0.405851997062117
0.402562945404893
0.400662684414541
0.398927922491424
0.395303898863017
0.392334822506253
0.38980003297615
0.38913034476874
0.386373859167068
0.381482385161037
0.377802274752895
0.375298022294569
0.373643535990145
0.373305085449557
0.371098158330409
0.372278804679897
0.371508610146368
0.36770561775283
0.365869919046213
0.366151076463209
0.366449692129729
0.366051873907525
0.365346203100436
0.363516527218458
0.364796100512465
0.363798919197473
0.362955708581345
0.361436748553597
0.36574769366162
0.366444373904338
0.366368259898369
0.364169724040702
0.369607825058727
0.369717092422703
0.370009605487941
0.370803597446473
0.374168623421395
0.374613580419658
0.375422211488521
0.3762209591772
0.375576174099908
0.37674836580569
0.380219850506474
0.379800035288062
0.382202826268338
0.381040002939726
0.382979543670656
0.380487055371005
0.382589529023257
0.382732257819641
0.381682779111667
0.379512043023059
0.382301898113749
0.379150904245093
0.380694158422472
0.381170439026362
0.380471022539087
0.375645968683813
0.375656828069139
0.375542444338711
0.375921078732328
0.374385195431489
0.372489330970021
0.37147667611063
0.372320784129332
0.369567926005609
0.367672312776532
0.366421778371148
0.36685137916487
0.363832760739469
0.363405640365428
0.363812040764354
0.364093727110782
0.357878773786035
0.357929471219616
0.359612633425525
0.36011549572169
0.357479438189207
0.357554449202517
0.354856424779626
0.353599990003573
0.355988263880385
0.356051288305233
0.352570160667794
0.353127646188169
0.35014316291208
0.349475760920781
0.34894814793324
0.346416790987516
0.346070513476403
0.345017807139594
0.34232093583753
0.342634602904119
0.338305047376233
0.336267923587478
0.334842921510489
0.335329801928997
0.331770115088779
0.331087463349918
0.327920245693893
0.324735200576304
0.321142955333483
0.322552398766469
0.320315489042702
0.318308971597319
0.321363891920878
0.321495309292842
0.319349552781202
0.319310383229358
0.319899990460527
0.319327077358125
0.318803850833498
0.317139560781848
0.315067023308189
0.312263354361851
0.311109156132521
0.309842104891377
0.305390565224764
0.302421610434993
0.29738054905163
0.296841687064085
0.294928040115038
0.290619936573778
0.288989239689305
0.286443556779972
0.285189376215458
0.284135092892866
0.28442285490777
0.285624198402239
0.287330167904438
0.29020999347776
0.29247569101594
0.295987565571836
0.302587825796691
0.309255539031439
0.317356604267477
0.324659608008864
0.333891934564177
0.344024877162187
0.354786012566852
0.365715659777523
0.378030601536683
0.388265063256064
0.403031748493526
0.416831148786021
0.426986626923618
0.441036865568166
0.45396157094933
0.466516984797394
0.481264548998036
0.496226479769114
0.503316983101135
0.516731785206827
0.534614256607303
0.543247116346648
0.552670814333556
0.56463612269806
0.570276832651604
0.580976790632107
0.587008075043708
0.590490529024685
0.59972647373883
0.606099170820825
0.607259568957335
0.60669764263165
0.607533374333763
0.608607457899666
0.60832071724961
0.612638872805999
0.609479812338444
0.607628074778006
0.603745184856683
0.601308428948556
0.602799913603896
0.599282562102624
0.596583289242224
0.602712413543953
0.601974035206568
0.601847456866492
0.604185475200179
0.605693068715123
0.610177946132564
0.616294855403336
0.617454602012147
0.619840743717386
0.625195140785416
0.634211171802589
0.636408360885309
0.643972882291687
0.654331465359378
0.662887667292379
0.670568494269999
0.676683285985755
0.693863521794023
0.70768219846158
0.713704853317133
0.71933264969781
0.728924304145123
0.7336442399941
0.74284526169608
0.749257029166362
0.747984901534888
0.757162596974195
0.754308258607075
0.751874982026154
0.74749100566813
0.739732185469154
0.740661323998332
0.735708978550319
0.730212540152231
0.730180411412059
0.727353342740827
0.728895997886516
0.73094157743328
0.737671388644476
0.74584262124153
0.75227850568599
0.761740636676413
0.77906738839216
0.78358960248061
0.791222376216698
0.806192203975933
0.81696023138951
0.82319616698229
0.839234031365214
0.854840468840836
0.861605612205821
0.868084656926423
0.876816216199068
0.883375522447101
0.893973720742886
0.913644229222933
0.925128232217931
0.936432077029593
0.962605026309967
0.968196497197896
1.00163135869525
1.01827504475073
1.02698402478522
1.06944248074005
1.08262453005867
1.11105983194922
1.1300189241557
1.12672723998553
1.14731362521715
1.16550150135934
1.17273355464194
1.18160274976864
1.20897774552943
1.20399411993688
1.20687093339554
1.23653211706375
1.22335214081566
1.21576533348752
1.23256976859343
1.20899840353701
1.21878601446176
1.20794873554522
1.19802845628718
1.19736616680528
1.19792302003816
1.19225360399699
1.18966544361804
1.16760403713363
1.18705230321151
1.19589524146618
1.17106936079439
1.1927736111461
1.21909710950713
1.20826707385232
1.2293311613169
1.24246361778744
1.26023513787828
1.26531588243104
1.26287196415025
1.29028439648978
1.29425340078715
1.30304103542662
1.31978607345799
1.29443089075333
1.31870320441274
1.33270264092251
1.36023898786707
1.35166311537505
1.36042879774672
1.34963279569786
1.32911913531382
1.34755679391933
1.35661563567531
1.34913330774936
1.43281906675225
1.4726936651403
1.44043595723979
1.42610222480822
1.40885694139246
1.37924241614746
1.39773888267335
1.416611899788
1.39857815137706
1.36384854090058
1.40413331233794
1.41050587945191
1.38961858562519
1.35911742703434
1.41354527698839
1.40019130230807
1.36278687052366
1.36593075485713
1.3556252032545
1.32027117471579
1.30463066021497
1.25460630474043
1.21948890118721
1.21278916198811
1.18143466462197
1.11849427365032
1.09013966042205
1.06631322429649
1.02131474067003
0.98580232911083
0.957242203064529
0.923897396016083
0.919796406168946
0.895825805271605
0.887139714269841
0.880534570976434
0.872132500665318
0.868307098863428
0.873767067541242
0.854018106043873
0.850074570324734
0.842398241817105
0.843399780470271
0.832217688720444
0.824484248938621
0.805064348169336
0.800920128493767
0.788793885976117
0.77358802860397
0.760236021799025
0.739023859867172
0.719520746830291
0.708887352119849
0.691870212580425
0.677299017075596
0.656456021117855
0.635393506508959
0.613550282746303
0.590429625381351
0.574281367153454
0.561930218526436
0.541233096218684
0.528728512903251
0.506214021102843
0.488807563022135
0.479235721786103
0.466579619357378
0.452975255024195
0.440991508513727
0.434728487514947
0.428671767254056
0.414850998442085
0.410017417705926
0.397488316815578
0.39416546205216
0.391005841906891
0.382930214383464
0.380154600591774
0.383404685344187
0.376846461785941
0.375030057713374
0.375538797102121
0.373239196967317
0.37243627501692
0.373726635042493
0.372476611937593
0.376757230182523
0.376479694761161
0.379211184910985
0.378282552941667
0.381109567054275
0.38051053824437
0.383946235914114
0.387620810198456
0.391231339153162
0.387990011792674
0.388527615196338
0.389054377823728
0.387157166344473
0.383500693750919
0.38402242540785
0.385550224036571
0.38814907084132
0.381602808344181
0.378527145944209
0.384019812257288
0.382818860644639
0.379941575806869
0.383656341972527
0.383257062452182
0.382913628889652
0.387627759460146
0.395568937577178
0.390264759583525
0.397771376402626
0.402241071149689
0.401113118022009
0.40302366550091
0.404826569985102
0.404320970119209
0.408923965928417
0.406924749764966
0.411042298988359
0.408250685081499
0.416408156180515
0.417324432332459
0.416022778818811
0.416424516772178
0.419330949039887
0.413715743462572
0.42062766723346
0.417416429660258
0.417546337016821
0.420501178845896
0.430003226130089
0.428356755221441
0.434594103906985
0.439055754546934
0.440051392478133
0.440165088458747
0.448363517870472
0.450276555339278
0.464265189530429
0.471035337432943
0.474649200438192
0.484784864643711
0.495412709859995
0.504102110871416
0.514318951314102
0.512942717996603
0.524318330167667
0.523418240191172
0.534008713449764
0.514973644811499
0.515914033423513
0.514933080049357
0.506207147254072
0.506091997659062
0.515758775900512
0.505866699220247
0.507988948609533
0.502935621897068
0.500396609759612
0.513624543270831
0.513274696784643
0.504730218173086
0.505994358905103
0.512946949279286
0.520174825587802
0.517721515466779
0.522087795330752
0.519543723646848
0.529525579553758
0.517617448002762
0.514733821070817
0.511334458224761
0.51197530284408
0.512494933963182
0.506323579220856
0.497487114340111
0.519736243280012
0.514889289175136
0.528256336935157
0.519694738051853
0.516931622715676
0.527132436357731
0.531270380691736
0.520351992043077
0.517730262519725
0.522860226692876
0.530686448498295
0.519304689722621
0.527692907349533
0.529269164616319
0.523269076207613
0.522353405342257
0.533360716837482
0.516451545761311
0.530772985026779
0.536294108838543
0.545432810828398
0.5381118354514
0.537546313863277
0.541286767958106
0.556482777617266
0.543151290616541
0.547272877915968
0.550584225545613
0.5508158003722
0.551273294472947
0.55544302979256
0.547042625425784
0.559164526671869
0.552765740403009
0.551650396144561
0.544829281372585
0.570658358195036
0.559944893609338
0.560505149204954
0.564405000652774
0.558916703704565
0.567342176366828
0.5603324734592
0.56183112034436
0.57345687434111
0.572920311836887
0.5930136349896
0.570141538681106
0.575138257937937
0.577374079127916
0.608296420505337
0.592079810917332
0.591560846371445
0.592829247369796
0.590784164852497
0.592031169852682
0.615367417525738
0.619778488052684
0.623166052940701
0.603757465938527
0.63007387224534
0.611418014449339
0.63734075291029
0.636340048803129
0.641349454187562
0.659776735792875
0.647324980249884
0.633730099557626
0.660743627184584
0.664475276967172
0.691031945111337
0.658477259292392
0.680403793652662
0.684992748452857
0.693958017686259
0.692552198489252
0.721069759744596
0.726203345020758
0.739152700056469
0.756201694688187
0.747107728949303
0.729519562238366
0.77809222080192
0.742987027571222
0.785107480478573
0.778478193826263
0.8039392038301
0.832915606024043
0.853719396696775
0.820433280784109
0.872383642456978
0.840398010507207
0.828362771105868
0.798604428794766
0.797387498499289
0.802064435504316
0.842221687372452
0.866088156919753
0.86994916701135
0.85324729735122
0.870307010309645
0.826392350710214
0.912084189719523
0.802209296333447
0.834506204285404
0.847751632320668
0.849331153467081
0.846696665624523
0.931897424762138
0.860370639013124
0.876541617822476
0.7823796271833
0.867493659918144
0.83707274658786
0.901906349425697
0.835664096286514
0.943499930112981
0.820970561895093
0.813379762508974
0.836820338276276
0.909650017116305
0.809792114376953
0.878976899544064
0.848460923898067
0.84083516880497
0.815194285192687
0.865798947925452
0.868189781798854
0.898966079019252
0.878792163335343
0.915293278153812
0.837291383109963
0.885474885124477
0.817114954614003
0.866589682654918
0.887845412279327
0.914032324221946
0.907391745975844
0.8992687862625
0.820576372966133
0.895387799437333
0.904254766775059
0.950219669287851
0.894641633440941
0.878173757560785
0.922960406233277
0.967396851640222
0.933618445796233
0.939537647236215
0.799580028309404
0.987272674682585
0.944585108434665
0.97175674997122
0.8999172008807
0.927282790115258
0.98341417458241
1.04922141705104
0.981204327742419
1.09735632773833
1.04010616397875
1.05472542861915
0.905543997903336
0.97148295664171
0.956766885452287
0.95239336577023
1.069273074152
1.14736991315391
0.963105330052604
1.11318463691145
0.988537622460263
1.04016274807959
0.859655171059089
1.09503799781637
1.36073092059579
1.33931760953558
0.947986646078963
1.01812231220854
1.17008395971704
1.16597543695037
0.96587325979066
1.25618203843106
1.04207691306983
1.25202711630881
1.05362310432767
1.15078212544572
1.18134668902503
1.99012690776863
1.05602636997277
1.33531783628116
0.945807662700093
1.56016600403576
1.23833950030693
1.28257918282916
1.01846169524321
1.31170204173666
0.932355415471917
1.01877612895205
0.955388647260304
1.232711321807
1.11579866006693
1.35510756479197
0.831363126340651
1.38051685159368
1.03651729657298
1.75340596220403
0.954863377351062
1.66365070726631
0.827325093217115
1.22006135334902
0.891800085165943
1.41137587805851
0.965592246983393
0.838181859535005
0.527925169028812
5
0.904633562713024
1.68532210137082
1.13948135565008
1.85120535825183
0.867246556134956
5
0.795008045717796
1.107657081314
0.979416610184258
5
0.816030522816827
5
1.84389250653125
5
5
0.617732690165549
5
5
