3596
4000.36533379555
650.420452594757
1
2
2
0.068421223476614
0.0544464682883603
0.068284451178477
0.0541207423686353
0.0588371246170971
0.0586006663232238
0.0664118030332391
0.0515246325468179
0.0669703975573372
0.065588913121223
0.0661984841737448
0.0555318566981395
0.0573506901860982
0.0499299711051243
0.0700202139151571
0.0503834542304427
0.0651159788823918
0.0537347538255732
0.0739722764972289
0.0469337874161376
0.0657467457787554
0.0512464730617943
0.0614538555871036
0.0582313271452007
0.0719088057183685
0.0532506114889043
0.0613822460541728
0.0599440235634434
0.0608666933709607
0.0567964510417445
0.0664809242647706
0.0540623165068139
0.061790988707363
0.0566029135693257
0.066030800752559
0.0554358891562279
0.0569073334700408
0.0595558744873247
0.0669700912866884
0.0566531042214701
0.0690770497773327
0.0531265202762389
0.070447935174097
0.057604085375452
0.0595247523034256
0.056930171265603
0.0638649364404865
0.0503197818504557
0.0663208760609161
0.0601777505739789
0.0687550283389862
0.0551500573813203
0.0828644104166823
0.0686409096970209
0.0634867848619127
0.067878328895214
0.0714705635479913
0.0482682858387807
0.0635404849524782
0.0536279989082177
0.0823383326899867
0.0721613836357093
0.0628582004598562
0.0631015399992573
0.0579033386966591
0.0568411068365209
0.0568427174347081
0.0595679249277118
0.0558404807015942
0.0567245323425834
0.0584315216493963
0.063524990061728
0.0761186842270207
0.0614977640162689
0.0713949725790829
0.0565032438236662
0.0595820640477882
0.052822990041342
0.0571041263842878
0.0597720302130387
0.0706563779975886
0.0553508950190682
0.0649145069372794
0.0513055073398866
0.0632556827062341
0.0716521460863171
0.0545559383998016
0.0481078796938135
0.086261549353784
0.0681369959027101
0.0600177681511136
0.0490733295905838
0.0573013291130927
0.0550471497967595
0.0648430447638507
0.0562146340691675
0.0540463301738503
0.0543561018546675
0.0614305713641351
0.0546267013059597
0.0761583726771575
0.0412412135263661
0.105925046492513
0.0487087378749158
0.113225793053259
0.0740747863275132
0.0440117496390902
0.0903253847533121
0.0735175962242683
0.0704355200547513
0.0540223073346532
0.0575899519786858
0.0578924093006744
0.0680326139595453
0.0522768024650051
0.0699460881438294
0.101429149421416
0.0589881906331453
0.0658327169189736
0.0578255280138576
0.0462261789886838
0.0633404525068074
0.10050386504348
0.0578858310553983
0.0774350463027259
0.0523149096933572
0.0601936397024049
0.0737360907940871
0.0936893525981763
0.0538865771197136
0.0663616042912428
0.0452758318667189
0.0551843678060901
0.0403055110005431
0.0991437279592919
0.0567578016177687
0.0590799230771589
0.0361035873925361
0.073768470374348
0.104935754745225
0.074152473649982
0.0541692117373142
0.0570827878252801
0.046358659785775
0.102841619347014
0.0705744672823875
0.0546925972840916
0.0590485948129276
0.0790653637404411
0.0535658587782752
0.0636579042117106
0.0375926815216814
0.0810205508311012
0.0657113045945808
0.0279339727659079
0.0639576398394567
0.143535218279231
0.0373588022527219
0.131265266685899
0.0499717495416104
0.0753354897792526
0.0486769727198085
0.0579193740121515
0.0471528281159397
0.0685414438570128
0.0496676792292987
0.0578387528077464
0.0817074150375948
0.0626768079633376
0.0432406628378544
0.0879760161268362
0.069284441266428
0.049680491868346
0.110282140875257
0.0757641228244509
0.039012069105593
0.095759792277222
0.0619366382854476
0.056923936709814
0.0519641269453154
0.0947924619683866
0.0496234536240946
0.0651185297145146
0.0435885633769402
0.0592156511803506
0.0630347906805259
0.0664618895196686
0.0528610082740289
0.0662804519359767
0.0340012565177767
0.0717420289087362
0.0911003743869394
0.0930389131053457
0.0502673864151012
0.071088619823783
0.0141599270434851
0.0946664088239033
0.0891123573087555
0.0641732651772426
0.0539735087669204
0.0586851175959201
0.0453060716322855
0.055071205967037
0.0477333985604363
0.0565988399250861
0.0210219202129846
0.105116882745336
0.0642757095271088
0.0638180744254384
0.0510415604178477
0.0615955636168782
0.040526687472653
0.0968016848426219
0.0846378117771958
0.0601505577328144
0.0567549327965996
0.0513735405332065
0.0652297369814335
0.0799665055474892
0.0580885511898707
0.062712011973367
0.0488670294862668
0.0596842742573446
0.0474464800083069
0.0547383330420187
0.0527034715098796
0.057267190801796
0.0485485353779941
0.0555863121396499
0.0488179852155974
0.0675667588137356
0.0514394631968855
0.0558530284184615
0.0538654831422646
0.0472586323261149
0.0510136660587534
0.0848837493383977
0.0512793114060451
0.0612017797329792
0.0496548573175304
0.062313538648571
0.0478982474963072
0.0576515344697279
0.0480390985377024
0.0622992416895819
0.0347554856173073
0.0995753293678445
0.0589567334920756
0.0635703395842415
0.0402731213275401
0.0785582018482078
0.067921824634303
0.0661917756660911
0.0532688747940323
0.0558345215396281
0.0482446395978931
0.056351294251672
0.0844813662888047
0.0642196690810765
0.0510732792207651
0.0713907466024574
0.0619098421006671
0.0572985232909799
0.0575284909118017
0.035157490152512
0.120399618111767
0.074233178809754
0.0356683159063145
0.133039518984595
0.0754694925129527
0.0663258532029191
0.0605843771974726
0.0279285600132021
0.148908538480808
0.115345559047034
0.0579706945324532
0.0671071800317934
0.072944991673554
0.0567745168499903
0.0569966936868718
0.0714354421129875
0.0573385867150749
0.0888978948942056
0.0821442703803424
0.13082423284237
0.044522991642673
0.0910086378271457
0.0974250219136736
0.0704585049376268
0.0576334405774511
0.0607852633565487
0.0544940704274998
0.079643851182923
0.0845182929767585
0.0764343480303148
0.0706040573360019
0.0559847141912771
0.0936415101500686
0.0754201307906955
0.060922715373826
0.0725190205149274
0.0735870482025742
0.0583420115866632
0.0701336205773991
0.0647921785415038
0.0700272153946314
0.0624272313938406
0.0446897943361972
0.117312015437233
0.0803927322373188
0.06604291422678
0.100151897482895
0.0772205167567277
0.0669428469627998
0.0633933031575982
0.06303617394941
0.0654994551947231
0.063069916250508
0.0638686818534595
0.0923873377418257
0.0745742291856075
0.0611738399930405
0.0685364172937616
0.0550140875734608
0.0699650828839154
0.0671806863620532
0.071930837014536
0.0669798566946659
0.0737917346881782
0.060182446910025
0.0844158178660054
0.10314263635985
0.0509229572972571
0.0943436079500515
0.11490863889373
0.0623777035852128
0.076250646504435
0.0654365154856004
0.0772174286885596
0.0686581176101855
0.0803905045581049
0.0692213579354496
0.0699370156307668
0.0835548978923761
0.0969937250980072
0.0673154124214166
0.0754397748375402
0.111775136071508
0.149678014246403
0.0938153003369486
0.0837133692041914
0.0605030673871313
0.108732268025863
0.118806383359247
0.0973601614899854
0.112949142066802
0.083048507285916
0.0958626336260685
0.0872723250088482
0.0919639830354687
0.090768554334066
0.0908728901009935
0.0918924837918979
0.0941703654326858
0.0950980100667256
0.0943130273161331
0.0923181162277618
0.0880031293332394
0.137204802630378
0.107103503650983
0.100201465968486
0.103403957993703
0.0888511299723505
0.117337221101912
0.137979492960514
0.133346108189643
0.145598902657735
0.124001992998484
0.159729454529576
0.104142811769114
0.116990520220563
0.104156279867348
0.121049560099205
0.120008879633045
0.122595048157252
0.111096832973598
0.124498152547303
0.114301474833636
0.133359595511188
0.121731369366671
0.126738059970367
0.121784113083806
0.148395631797002
0.13414428942625
0.141435549366235
0.123611836157092
0.150203824874955
0.17284195590899
0.193402479328684
0.155224403190091
0.149200981849062
0.150542753909013
0.143476978826859
0.152498696097869
0.152458696214736
0.157754016125964
0.158737513653213
0.180460957726604
0.178816971778809
0.178046136592778
0.186408281653238
0.147338520241915
0.176719759278611
0.180288211579205
0.182338058672583
0.197673833802281
0.193449148075292
0.156656433594108
0.188897027643856
0.208032845566173
0.185357652794855
0.205157866066377
0.195084547375694
0.187386468755699
0.193625743350584
0.201965419605152
0.196520802109869
0.210133549788863
0.221629785885057
0.199386090819706
0.212921292701208
0.21330372180393
0.216933800059603
0.218387754861999
0.22726501145829
0.227909510363305
0.232787600546653
0.21609960532986
0.237115802464207
0.219480100673604
0.249934788349516
0.265421623275987
0.259075356694503
0.271947085766436
0.251653129193492
0.245275465894385
0.253125016119656
0.253771138442891
0.259018703342266
0.267073808465251
0.275965118981911
0.26040884688428
0.26951467874173
0.272200982065608
0.270910459123787
0.286604493434278
0.288092387580407
0.27380469834309
0.29448632180184
0.290567906904427
0.290195716941442
0.281568151161804
0.324106546663578
0.341125128121157
0.329998905826076
0.335437372877814
0.323494172295533
0.323042134896353
0.322199438281662
0.327974848483065
0.338611478905678
0.336972512033713
0.330996102735584
0.324120410455094
0.344193929027465
0.350189926107957
0.349032619010296
0.340471819518131
0.367832132127301
0.365893145941586
0.364863886894833
0.368088825548393
0.373865399054658
0.370254886150821
0.385965674454916
0.390527781437687
0.388758741686577
0.392604751562099
0.408257938019095
0.384956903387149
0.398464182955992
0.410219295279743
0.425379685293498
0.415701006104078
0.425061094205325
0.420521372814162
0.441177418648227
0.451713045301635
0.432047758697324
0.426202313173804
0.437100712092026
0.43136075415473
0.461789955387134
0.462355156338583
0.463013543036991
0.465616573169077
0.494918482621273
0.471409651385859
0.477936850709953
0.480347224623844
0.478735488177344
0.487284760398128
0.504239584880214
0.498377788995546
0.504658499497756
0.496524762895556
0.516270983912601
0.502560909533918
0.495474796060091
0.530807377277581
0.525993563674344
0.515784996605497
0.534045994870163
0.522127808409919
0.54552088406184
0.552295070709676
0.571755825138639
0.557705443928562
0.56651910110683
0.556061659329888
0.575833311565055
0.568535539560969
0.576385391436671
0.588578424372287
0.598636135580323
0.585691095741761
0.593786863149076
0.583420118762284
0.577983844089606
0.599275072207026
0.629064972474029
0.61629207296924
0.615597706889673
0.623245303356226
0.639683979202007
0.632649062049454
0.640128429938156
0.653227560147376
0.660372041224564
0.637031735203898
0.658917863641245
0.683650781288964
0.654894622494557
0.642115478250631
0.651259909050178
0.65749367814917
0.666326185823043
0.658838948776533
0.693101189842371
0.697082814250278
0.711643317600585
0.688399039665516
0.696841664892851
0.684621212794114
0.702041548220029
0.7112893864864
0.719216615117453
0.728115330631265
0.68606101131985
0.704227840642028
0.756616328319102
0.750025625717031
0.743732541572799
0.746576152418272
0.768173261899995
0.779534146988005
0.76487959048798
0.780273282334009
0.792784992408213
0.807621135217335
0.813716211703184
0.784568613183372
0.768352299752529
0.788944139787126
0.820674366041435
0.82589193664752
0.823745417931733
0.796555170242012
0.813577645401138
0.839211778112513
0.847578502498488
0.808942847585687
0.797129415614419
0.817709873185109
0.844839871273827
0.850008348441961
0.805964923184633
0.838084788040138
0.8869775527279
0.862602059392355
0.852812301133051
0.869233572041073
0.839843301935164
0.857501558386357
0.872367188167675
0.866195845577468
0.901658164988371
0.929341557509949
0.900684595949699
0.856957132234303
0.872790737453432
0.891873999814427
0.921154426439649
0.898973034888433
0.894510955119639
0.964897351820694
1.00999534005652
0.944373572161674
0.920471733928751
0.939179938530986
0.916883872477104
0.932049195536854
0.975332104053633
0.968514719038678
0.926476430264717
0.918461482097647
0.930909034162092
0.996979066111072
0.957109848059217
0.928706187676363
0.972131028935584
0.990817502639473
0.962961516906978
0.941792369504273
0.993238056896503
1.0191129630458
0.954267782320909
0.989025581172977
1.0020926814013
0.946205080278484
0.935365024052067
0.994594751848845
1.00229691026707
0.998470125659395
1.03802800619046
1.0563281221063
1.05184081197106
1.01819962809736
1.04355559495513
1.01550324879066
0.996983265260745
1.05051207748585
1.06737433819102
1.07395642970545
1.04996120130641
1.07655832766346
1.06378814233961
1.07940813961311
1.04173961723707
1.06982119036252
1.05982571019565
1.04208695356866
1.08156795153033
1.06383593501008
1.06019379672266
1.06692527814896
1.02431109795462
1.07749399887871
1.05154167958874
1.03125540350265
1.10632440938986
1.07973064608698
1.04616579077153
1.10855259596403
1.09709895224284
1.06865275408216
1.09332916640885
1.11823786757032
1.12267148900092
1.1025344907882
1.09009107636802
1.15996440946353
1.11856152090848
1.08049572005604
1.10046480576695
1.14230989625844
1.13993755073479
1.14291963347469
1.07940376830588
1.10515236015435
1.09877682015761
1.04685510211758
1.10326833450634
1.11168394916045
1.07778373030303
1.0638054630296
1.09181755683233
1.15606254732
1.11150027758251
1.12401410095802
1.16852959218483
1.13613542823655
1.06195371861437
1.11694643994839
1.13854901147916
1.12216949257241
1.12523221239066
1.12792580360228
1.06976295237572
1.08528355971712
1.08366243122102
1.11357077859981
1.12485534414061
1.13106663341473
1.13533994500624
1.1335587732346
1.0853884011004
1.14658344248412
1.09927971162072
1.07646883713624
1.10602290675627
1.10975493947968
1.13434593857116
1.18993911756728
1.13118211535937
1.12081233091342
1.12278132786236
1.19593352192121
1.15818657729988
1.12604683422765
1.10617298307266
1.12339520609385
1.14081049026988
1.13550496990179
1.12660587894353
1.14950486188191
1.10040250758788
1.09662336654337
1.10048056051816
1.10550334771374
1.09601687654896
1.10674234277495
1.06968657753896
1.10994932974507
1.06886563809936
1.06365634582003
1.1174185246043
1.14328479685278
1.11564331825287
1.12789394935889
1.12778490560481
1.14255347408053
1.0812307035299
1.11243668982282
1.14100153432801
1.10587374996194
1.07495378426545
1.14849505593949
1.09463090252943
1.0951048171889
1.1127357619193
1.19811295646906
1.15584458506541
1.10026876483538
1.11267817907696
1.13463872587829
1.09586986319696
1.13706762015533
1.12440958360432
1.0757827445389
1.08096078603744
1.13607198587429
1.10957421346794
1.10104751320276
1.10238130134964
1.08262108809668
1.06826128361273
1.07472157879133
1.07548401054718
1.12069728610474
1.09315490980502
1.09152342708867
1.09613440464645
1.0817401629383
1.03837304597645
1.09115206452587
1.0871655274767
1.0947419607923
1.07740602474128
1.05989713551714
1.06342204590893
1.10976105000974
1.08331920953731
1.06834709122978
1.04947652189067
1.07305822540775
1.06801232951305
1.0324218039767
1.02481419024029
1.08072984353192
1.04325362779712
1.04004410904297
0.995734841808803
1.04292786255781
1.03317856870632
1.01526102066124
1.01203779894932
1.0467479522972
1.02521076157921
1.00719467038385
1.00296953226176
1.04546146350835
1.0202801991276
1.00393390652846
0.982357163084183
1.0274425005365
1.02800253639433
1.03366094129593
0.971070702387733
1.00434753118159
1.00943953880166
0.983233564434643
0.966740502373634
1.02184877380707
0.99430853474228
0.976390340705964
0.955789521423798
0.98091942570818
0.991661475077953
0.989927066601255
0.981049294015941
0.980472209201268
0.949252343970497
0.988779267472819
0.987247090441358
0.972016538709601
0.940955457263387
0.955355612749327
0.923649391774719
0.949425127067807
0.955886891743258
0.963757284578711
0.993437033692576
0.988595667803511
0.92112427842235
0.943858419809716
0.936525216243876
0.936189166957827
0.916628593228543
0.907373695117605
0.89978622788208
0.917141946923062
0.914684938886753
0.936038379955061
0.912118410328387
0.919982613863438
0.886494119895742
0.918450222739918
0.877039847805408
0.914517155471174
0.902639337475508
0.883798709847216
0.882067697269907
0.874541803829211
0.861252591845949
0.887700806123473
0.844570264861885
0.84236592450653
0.864840314775218
0.859622153393866
0.831205895679628
0.852890691256173
0.826947975024575
0.840715168183261
0.830491984098327
0.837258951838707
0.81148324354152
0.835431239425866
0.821242260970693
0.806104820479275
0.792246585474794
0.816747832888582
0.808867096116934
0.792074358545146
0.79999775668881
0.800615035602961
0.785210237200808
0.800380728460707
0.767783103622329
0.764885725764915
0.76488052903356
0.781173654482568
0.76236113373937
0.762687622832338
0.760089238690844
0.757310415449187
0.756260072986992
0.754479898932308
0.732171651232022
0.743302943785824
0.736415544748793
0.740291069255743
0.724976577484588
0.721223137500794
0.714071292316278
0.73046923800629
0.719137628522265
0.699591091681632
0.691173878429658
0.702124821906626
0.692449479100099
0.708758840053131
0.687400556317464
0.697950348826155
0.681779772589942
0.684438581229014
0.689726064454161
0.677254612465835
0.665158253154228
0.664545954973599
0.663085027745355
0.66991880355656
0.634434490014987
0.655353486615823
0.646519792671709
0.655084074316375
0.644590992860805
0.642292150861237
0.630133841449286
0.644080493837
0.628406896726134
0.6300818744962
0.62783327777495
0.627338643182253
0.613573345289182
0.613407056581644
0.612699662254237
0.613764056896541
0.593759028275021
0.586486848038634
0.579410929552402
0.595793644124321
0.578165578612124
0.586610108744613
0.575148348451952
0.580486101799307
0.567148394794368
0.575744254937547
0.562248814032804
0.568959057131395
0.558930718623086
0.567345029994304
0.56255595950417
0.55699633667415
0.539413888357784
0.549199642084641
0.539541663669474
0.538377817893747
0.535851821531693
0.534649193362844
0.53128855768399
0.535313661893302
0.525776602996935
0.529367275842522
0.518798842233233
0.518787259150413
0.513217763724572
0.513433165871709
0.506664041948167
0.505416867048225
0.503606432641904
0.51083257638591
0.492882447732686
0.490968605404674
0.491749035379869
0.494192787472782
0.478229008917815
0.486398359182743
0.47978127735148
0.482133706643259
0.470818096698427
0.4718746132577
0.467901102434177
0.468213764567153
0.461910242371403
0.475299920563554
0.452023593199266
0.465251734469062
0.45677336246092
0.461216528999389
0.458337106145128
0.457426139089102
0.4363348560967
0.442488894723851
0.435704296746094
0.444841216398964
0.437389464618578
0.436189633744885
0.430476306483153
0.423585390008247
0.418730506247969
0.423262703697475
0.419859798715199
0.425040982599973
0.412712981277487
0.418020682475361
0.404693452271882
0.413790463170301
0.408028850765656
0.411750800801757
0.403072874218989
0.396621185844792
0.398823233223648
0.400700463277012
0.382089027022783
0.390108044362785
0.38660090585857
0.391984827004922
0.375693642671682
0.381385495272679
0.381253192511988
0.38387623130727
0.374570635164327
0.374147601792165
0.370422232935434
0.371609331161179
0.370037174081785
0.373400689470247
0.363019388027224
0.366395241247651
0.352757979147485
0.360313899784133
0.355266529054858
0.360753885960201
0.355984792412316
0.353529309283432
0.350830799420569
0.351455202874121
0.349092096521346
0.34955084612865
0.338829151036156
0.339459128539379
0.336820866862911
0.338775489036281
0.335958804168716
0.33092227278631
0.325786289470322
0.332996194010645
0.330956535448465
0.328999681674365
0.324927948998758
0.324034826217017
0.320382841509044
0.321300823455655
0.318519860260454
0.317729478202272
0.319563229018499
0.321001294278338
0.315701054508314
0.315034226054182
0.314735950126218
0.317474118461114
0.306452454677611
0.31229176171243
0.310802295875903
0.313079178635059
0.30574087502933
0.311970997706292
0.304791234517231
0.306228571748339
0.305202745820381
0.308020110646466
0.307500354106151
0.306560070752289
0.30074466162408
0.305425127820339
0.302898556449155
0.304608115229781
0.300510378322392
0.302821165567166
0.296007104271311
0.307040176056164
0.301724737022374
0.308100759385256
0.303900701509158
0.310056702039179
0.307882704952346
0.314624533342448
0.30969270857368
0.314587311649175
0.311460485303705
0.318711109146295
0.3186908742032
0.319287455991066
0.318361523754954
0.32119545943053
0.314934544551304
0.321862910947378
0.324080687275035
0.323526264233332
0.329612878843672
0.336287465092103
0.329806360644648
0.338946739818304
0.333334562710098
0.337731811243008
0.33818716015748
0.345594354545162
0.341295767206115
0.343525845108
0.337040515568365
0.350549645492845
0.347628586778439
0.353890386745213
0.345782000670635
0.359198396710152
0.352063733877598
0.353542366914493
0.360458764224598
0.369191243063674
0.36008420000395
0.37296618142754
0.364618806409022
0.371808837440945
0.376499303210932
0.385160705400414
0.376992711852858
0.387799612816638
0.383359022119877
0.391839069274717
0.384637734053115
0.395779054126438
0.392826679921964
0.403046458801392
0.403480491934676
0.41593822017206
0.410214458175133
0.418848269549261
0.415661570127113
0.4234453513094
0.426820773479147
0.42781383133098
0.424581635125065
0.428399412115571
0.420409926972371
0.432473737136585
0.434386061328473
0.435305672516287
0.426367994883138
0.432976749808311
0.428488238574824
0.438639663405557
0.438562305719706
0.443900645672263
0.435628525528307
0.441773568955105
0.431947068638909
0.436001716169805
0.428172074415485
0.439525616144969
0.429455269826189
0.437519765491194
0.417242002579774
0.43400823710782
0.426087330848912
0.427540180373875
0.424092402508761
0.423831115568191
0.421229696882498
0.427488333955359
0.41553242630716
0.421659890756227
0.414316046122404
0.418735074038843
0.41403091461702
0.426983309276355
0.417573018479662
0.423624405876173
0.413236310451672
0.419994220295438
0.415662425320303
0.422618327915776
0.410657268687692
0.417173236139112
0.415952580057883
0.422555929858433
0.411097472652212
0.422875316277873
0.410628489829648
0.418349648039662
0.408770217041171
0.416604776737882
0.417943288806027
0.422143700581304
0.418143443183206
0.417420979958037
0.412668454966422
0.416194804605819
0.407008528332681
0.414129424811257
0.405054041397407
0.408978867847842
0.406961052143783
0.406123021842207
0.403705139244193
0.406913967259453
0.399003018756139
0.40428960106165
0.399569752646608
0.401691032903713
0.39452659368392
0.394881960244423
0.381200409055975
0.398886208795815
0.382934358865756
0.38404142753713
0.378952125850836
0.381840452974934
0.375026266314145
0.377743006497902
0.362277570717466
0.367399577213951
0.363634452966321
0.363165950726128
0.350223942691683
0.349840133550659
0.350982508988345
0.352322686043073
0.339001015067641
0.34041665527681
0.331863868907834
0.334933119061566
0.321057662500463
0.328348768033381
0.325630139300688
0.325242459200162
0.314054887305953
0.322835720954801
0.312325732622787
0.315164004885784
0.310234933013468
0.311976149578049
0.305783784032181
0.302858818151621
0.296873772131604
0.296932195489069
0.289794078397178
0.292278738827805
0.287567667826908
0.286992519052108
0.284679187495695
0.285985378025169
0.283191492945127
0.284033261355734
0.279028839009712
0.280077782535889
0.276975713225761
0.27869325151363
0.268630643191031
0.275385870701179
0.266178962935004
0.273733186136125
0.269356680280021
0.267513830099831
0.264604029213166
0.264654690234
0.255805744284196
0.261812489170802
0.253553633713968
0.262462324671741
0.254023537175213
0.25819081086072
0.254100140847415
0.254562434426824
0.247697009473531
0.249128619661482
0.244844286570962
0.245694516455934
0.242291346857858
0.247535395548226
0.23871786531662
0.238770106576412
0.235082064372373
0.238783213632671
0.235633902955847
0.23910476618487
0.233773197173594
0.231289735883691
0.227702488399826
0.232441248895363
0.225908716289192
0.230146471836053
0.224788698998401
0.227220305295656
0.224108918851614
0.227380974213195
0.218787907827417
0.226013960178062
0.218870808577036
0.219844187500704
0.216929039549704
0.222809180338574
0.212099193803472
0.219458434279399
0.212711235479716
0.21596134932447
0.206814447444364
0.209651045697376
0.210236824169081
0.210867227592469
0.210862064041707
0.215727843142691
0.210772733988984
0.212920000472951
0.202800931993816
0.209888029704687
0.20641847652706
0.209979101329558
0.206358363894139
0.207312263308913
0.201774521711765
0.202006700207851
0.202942235908353
0.205621354500497
0.199828640522783
0.205866948060624
0.199649535368465
0.201366914337716
0.198958516790328
0.202289990375965
0.196832845682211
0.199574575525468
0.191906803820602
0.199872564577581
0.196031406447677
0.19622789789493
0.192232472563053
0.195609343288497
0.19604146018385
0.198021796983386
0.191983412200237
0.191002748372171
0.186799442984521
0.192345393764144
0.189644416919632
0.190600492328251
0.188898768279273
0.190189448973734
0.188617929934342
0.189474319501811
0.186956544968774
0.191316694548148
0.18241424954941
0.187526982804966
0.186895557173801
0.183426000690283
0.184985868901431
0.185055889054535
0.180712635975806
0.185191521290156
0.18590004852415
0.189824777834214
0.183105494478487
0.187079612304145
0.180384992599169
0.183953366911991
0.181974552052025
0.186515216923443
0.180627941959591
0.184522116941507
0.179766400463237
0.184280482659357
0.177753037911097
0.182833021620559
0.178504414406471
0.185091158779719
0.179309853999078
0.179089567790427
0.178448318395574
0.180993881643012
0.176895889557507
0.182661598026044
0.177394686297327
0.176098519237021
0.172709502909121
0.177882183166328
0.172869923106004
0.179232801987929
0.171600853971766
0.177143248492252
0.171584887000584
0.172009078950789
0.171696005007187
0.17212630790345
0.169229234300175
0.172402043723907
0.168182679367134
0.172827292890112
0.168532160329351
0.1693252035924
0.167796490885571
0.170101048246516
0.162978603483677
0.170804817940887
0.16420570908115
0.166069682427197
0.163885957707953
0.164265912087501
0.157462846649353
0.166687710103622
0.159330409736887
0.161258511433308
0.15998296974555
0.163483891464122
0.158080254450215
0.161446400940475
0.15322816268779
0.162549157835706
0.157993794355134
0.160411591064068
0.153886787099137
0.15716745776206
0.152628281615724
0.155508220897961
0.155029287886043
0.159624146900325
0.152355262223768
0.154936332582116
0.15072746294257
0.154406632799843
0.150919317580062
0.153522687695032
0.147873183955284
0.152184025855494
0.145341991507601
0.150844448864779
0.147568548178125
0.152634468803064
0.14448786379807
0.15015629726753
0.146090149681175
0.147974462221547
0.141134300228812
0.148529802214653
0.141940573512479
0.145331759888391
0.142912218817063
0.145991865239018
0.140770002445898
0.143669080199321
0.135123380615604
0.143336732653306
0.138042320683485
0.139629344112446
0.134788364547475
0.136794136270031
0.133845730345565
0.139602427624866
0.131117499471281
0.137267113392403
0.128493374297285
0.136469599443686
0.136817304755431
0.13511834002633
0.130611580769538
0.133069494029317
0.128451974516017
0.129612778188436
0.129188084625597
0.125580959316266
0.125772554422049
0.130031391393734
0.122535995887599
0.124795086474287
0.1206846267883
0.127992721039373
0.121894270188555
0.123390497636323
0.119755256613486
0.124170020702169
0.121083029835145
0.122693911986439
0.11840499875205
0.123020430292284
0.118223206541982
0.121535638379329
0.120322001766111
0.122763312803179
0.118189659571143
0.123936628160832
0.116335038752518
0.119956154849193
0.117629443729864
0.118299975574053
0.11121149723087
0.116221563208178
0.112880912507307
0.114600977454681
0.112989524582438
0.118319390907987
0.115432733404741
0.114594924947155
0.112794536441891
0.117670053819876
0.108629891281316
0.115458117178248
0.108807695213848
0.113346155288628
0.111398229093613
0.113893631817666
0.110800681579616
0.110969350412066
0.10738727254323
0.111470151138888
0.108432616813281
0.111443864877882
0.110054227879195
0.113605356796157
0.107117088434841
0.10905642628101
0.102613203693005
0.107985548376657
0.107892108572082
0.107434729674333
0.104650743489804
0.10266087689277
0.102864973031369
0.104654478618909
0.104866730244935
0.106267834819189
0.103624855309121
0.106518441784171
0.100274527953682
0.104481555159448
0.0980012572409739
0.104183080143705
0.10272466722428
0.10388368510861
0.102019404247994
0.105324371468974
0.0987770104306722
0.101994461389455
0.0994521985209796
0.103322738135106
0.0972356742932867
0.105495659556952
0.0998066757391508
0.0982557829485337
0.0975789596339424
0.106220331746187
0.0936635450791326
0.100123340640328
0.0977887644069346
0.101561354525936
0.0993674628946538
0.100637735558487
0.0993213136643823
0.101944075582559
0.0992027688850027
0.100516115760151
0.099242465072208
0.100016051844846
0.0967959447384534
0.0989187185374498
0.0968522526684926
0.101800736773185
0.0965081003049812
0.0996303493632305
0.100785825005573
0.0989164983736686
0.0930797907744387
0.10021658102681
0.0950954701954658
0.0982759598437139
0.093648912465364
0.0970769522328414
0.0941594357557992
0.0945560107105152
0.0914145303636925
0.0972127062957958
0.0929493359231323
0.094168501071801
0.0897421597914
0.0939163119662812
0.0888210214210975
0.0911641735040217
0.090268443045977
0.0933262115893616
0.0892411614961559
0.0937559056869977
0.0915651668016629
0.0928127977810498
0.0889048920602538
0.0904030196212035
0.0856743899139048
0.0908040326879861
0.0867134445290022
0.0938677268513914
0.0890898241901725
0.0913970530997897
0.0861700911028364
0.0908965429109746
0.087362932532182
0.0918569134281818
0.0847748669243468
0.0893876057792402
0.0849154035240699
0.0925581351455585
0.0876281002310798
0.0887401545947239
0.0881203385633637
0.0912543441829891
0.0843913924697024
0.0894422815935406
0.0861214689068585
0.0894228153138309
0.0879354870421472
0.0911772456328817
0.0838481991354943
0.0896765409538552
0.0835970298832989
0.0879039492202711
0.0844123301319402
0.0894305772541989
0.0821044566615128
0.0843227895201788
0.0821453572119531
0.0881468605911384
0.0818553897443114
0.0865705189615945
0.081784052526615
0.0861751380734883
0.0804605472130251
0.0828137580294319
0.0816535853036141
0.084016942156701
0.0798654209463522
0.082600418493175
0.0775952251888538
0.0824942498980169
0.0790957238869566
0.0817766989590774
0.0792126808611753
0.08138271497353
0.0766170869687344
0.0805532150512925
0.0807110798268976
0.0817373059047561
0.074340029822145
0.0783515859667638
0.0742429303142134
0.0796326535277363
0.0732725438031157
0.0776937183638279
0.0735057814021132
0.0795488860308378
0.0736497971984172
0.0762165620423554
0.0720027007894759
0.0767338670517748
0.0709448414338323
0.0735631037999875
0.0727350847651406
0.074666550475066
0.071345171791306
0.0762584464819693
0.0696570239117742
0.073544898838505
0.0708248763560646
0.0746283971054921
0.0738955911979632
0.0733133628387994
0.0679718269116319
0.0733600847772237
0.0682501829838246
0.0730328412379313
0.0708933444574797
0.072758067487279
0.0681702716791769
0.0747638566252771
0.0694589191147047
0.0711323153716177
0.0687262425155113
0.0715309043514963
0.0667583620839668
0.0709111295731348
0.0688368696581944
0.0709186085788708
0.0663774183159651
0.0671579623883667
0.065126564475547
0.0697126481564106
0.0674509588188168
0.0694041802818863
0.0683356141899969
0.0677068128247304
0.0657769052982328
0.0682134319866573
0.061850534779461
0.0682589980030458
0.0640476254295275
0.0660298130347612
0.0618795508773864
0.0664206103108371
0.0624665543581935
0.0653922675566339
0.0633818736365849
0.0652882767991015
0.0595970634257231
0.0651784580536103
0.0617875895958904
0.065138107676096
0.0585604784689077
0.064151809318479
0.0579894977021481
0.0646494295419723
0.0578186773978021
0.061391235025941
0.0572203502004559
0.0617951720005334
0.0601410959535532
0.0604448128787751
0.0585138529819085
0.0636212296808777
0.0596994074933251
0.0640223244353033
0.0588443199064376
0.0618249241001999
0.0585244538257868
0.0622749845035036
0.0588899807909415
0.0637124096580226
0.0599504978511357
0.0625915101511137
0.0592355708341964
0.0637490837736927
0.060288163755838
0.0643808676830265
0.0592284433011697
0.0627286729068544
0.0584463593297583
0.0645567115499792
0.0581110280362258
0.0630979904382119
0.0594868000157014
0.0649004608216595
0.0597948092136713
0.0649669821326875
0.0570519703257185
0.0588219149486483
0.0501636786062484
0.0599426389264068
0.0542523949581672
0.0621156204447001
0.0531598275035591
0.0519841660762641
0.0507682713561617
0.0603296377731117
0.0473446008829308
0.0599315126891258
0.0478176116471051
0.0563797905654392
0.052362550687168
0.0553171868721725
0.0445558877716459
0.0577537873852504
0.0507611807935694
0.0630077560286129
0.0493138537211973
0.0592407599620746
0.0566980989732893
0.0619695289980257
0.0490070591072704
0.0589365648651267
0.0513626085176374
0.0622855338839588
0.0437371239356352
0.0607098170244695
0.0402432101319682
0.0580211515345712
0.0382915548946081
0.0639156005423279
0.0399756342260288
0.0646046710454377
0.0350469285535159
0.0657437516986645
0.0341822857284149
0.067428397375647
0.0311920079256408
0.0718367124608687
0.0323358521812704
0.0765471346598111
0.0331659913081608
0.0842321468293604
0.0249254007469442
0.0812236695303185
0.027022398540879
0.0863054364605188
0.0265908787514953
0.0831559772763125
0.0278583636566864
0.0853244252317012
0.0311679181677893
0.0767504424369602
0.0426005730871031
0.068641927164914
0.0491374373265085
0.0590114926766071
0.0619865346292622
0.0486957271089875
0.0655205820035697
0.0428537646748022
0.0686058842873696
0.0429621269246082
0.0648593333216913
0.0476828387757236
0.0620210268675965
0.0550983312676274
0.0529730561786541
0.0575616808611409
0.0506045719898321
0.0572125012810765
0.0512412485225649
0.0545536218232609
0.0541500677407219
0.052949577714717
0.0541675094463575
0.0475933820920703
0.0522499068385306
0.0504531143494109
0.0514685554352021
0.0511807542450532
0.0513068148428718
0.0534599291884981
0.0482639954858213
0.0523059195595638
0.0509795914039352
0.0487887973988292
0.0491239612292169
0.0528080730552762
0.0508382100655639
0.052100481649614
0.0484642079391462
0.0518822479494331
0.0488854436157759
0.052773472840691
0.052120679430781
0.0509548932875494
0.0525424691758094
0.052672475085885
0.050735773537057
0.0513347503675078
0.049455771317309
0.0502382116906265
0.0509007955622479
0.0545989793581225
0.049488585419242
0.0509101377520577
0.0510068691010029
0.0524024797351177
0.0511927798452469
0.0528233318238593
0.0526100993684598
0.0535540009653481
0.0506237164641938
0.0542788196117565
0.0499000845931898
0.0539297826574077
0.0517942638671676
0.0535879775058531
0.0513538635249694
0.0530482928393062
0.0512496635726296
0.0516239797259362
0.0501570705285403
0.0532340184759195
0.0511495757072605
0.0509396753175917
0.0504218854488469
0.0529327600884373
0.0493605595956485
0.0526131109200016
0.0502426521454469
0.0521145570570334
0.0514862576944579
0.0548069169392874
0.0484823631390688
0.0517205723563039
0.0517994351617786
0.0525194660117159
0.0508460768906825
0.0538464620029285
0.0513136711294783
0.0526208456368155
0.0493992504093831
0.0521907505517499
0.0523366807220732
0.0520750962415749
0.0505176081135957
0.0510798600608849
0.0514774514653892
0.0501901596030453
0.0507739574094134
0.0529050550115054
0.0499807722291273
0.0520248575755621
0.053185106767927
0.0516830345652869
0.0489419382556398
0.0547299514246997
0.0504256603989362
0.0540048278509654
0.0499128870700186
0.0544134594584405
0.054557543970587
0.0532568899531929
0.050096758250631
0.0548466165707208
0.0510247142874915
0.0530794083315515
0.0535321290279571
0.0545547778785887
0.0522906329906543
0.0552847524572209
0.0539837477508543
0.0556216199505892
0.0535539081597177
0.0561968143336967
0.0534964103531624
0.0541265534795759
0.0525548976099069
0.057108033023418
0.0511932590793205
0.0538774503253846
0.0522001315041232
0.0549124473131237
0.0541170882074016
0.0560607247441786
0.0552220202419057
0.0553820905185077
0.0534095961443068
0.0544681381199095
0.0534728019031506
0.0562165259278432
0.052708528171814
0.0530373088313976
0.053068573401181
0.0567454727757701
0.0549284523411644
0.0538326429003692
0.0510750811852931
0.0549426728256186
0.0522012088841486
0.0536982482864505
0.0521980149247435
0.0553370470651078
0.0497458524065583
0.0554680773071196
0.0554567831778885
0.0575913888864047
0.05562100814254
0.055023579084674
0.0529558101061886
0.0565671346113694
0.0522011393672445
0.0572088343634341
0.0544613402891852
0.0572478840371821
0.0544765949865809
0.0562493676934963
0.0550624894171303
0.0577278244554753
0.0531025976674284
0.0573410748260647
0.0559799861649942
0.0585379167677304
0.0554514202683074
0.0558024767925697
0.0555154928754524
0.0580432527229498
0.0565172001798888
0.0576452396030318
0.0552354453976507
0.0564220642195982
0.0557398776968137
0.0589119890385218
0.056526735990392
0.0583313887402862
0.0557196568053366
0.0566209985089601
0.0541722166364151
0.0575307708771512
0.0532717073834485
0.0560246725455278
0.0550632229237765
0.05450824598927
0.0565870076068536
0.0564873426935356
0.0545943881323884
0.0584352759792984
0.0532790753827494
0.0549910689175019
0.0523287959965915
0.0551913912562851
0.0539472007892838
0.0562793138949785
0.0523960006583141
0.0549071334481179
0.0523194547470694
0.0531863482200722
0.0528282741557688
0.0559818015250844
0.0534106628712044
0.0534348516700697
0.0531635855297537
0.0549311417440022
0.0529863292583319
0.0548220068684996
0.0521992893017271
0.05258550521674
0.0518797984663744
0.0564246312989516
0.0521156270049238
0.0551707754519757
0.0532396528343047
0.055820762401403
0.0538390086899479
0.0554585087746003
0.0519127827861155
0.0546200720472226
0.0490385097216727
0.0519789310854451
0.0499436990925563
0.0529646856005241
0.0542409003897592
0.0524828052633125
0.0503489832337652
0.0520581480849218
0.0518352896698955
0.0547554099825151
0.0517764643929116
0.0539350199441886
0.0519193701589278
0.0522529713983505
0.0515499250298361
0.0549383933961919
0.0529460588601316
0.0536517929315684
0.0514227281051089
0.054822448641483
0.0528296698573976
0.0508883444369365
0.0505430013271024
0.0541715273930457
0.0504897917807338
0.0512605893223244
0.0509035551598873
0.0523098602520921
0.051444737248049
0.0527368572030929
0.0480010529980899
0.0522230470232746
0.0531822268627102
0.053287626074741
0.05238165820333
0.0526700489043067
0.0485810884001664
0.0513034874447838
0.0503143577344346
0.0516740228929154
0.0508533216840098
0.0531749488625557
0.0490232629580448
0.0517059435885142
0.0496178895694047
0.0526805083768807
0.0529993755730504
0.05353411335479
0.050448146858369
0.0520336514487519
0.0515150171930312
0.0528427474908571
0.0485340573503942
0.0529112603411322
0.0478823556425221
0.051616398189772
0.0482682408564061
0.0526386971277808
0.0499072256178369
0.0526787558099393
0.0493036729777308
0.0491716988256114
0.0499718679362141
0.0536483008194024
0.0496593035993938
0.0501524879723784
0.0482476289447779
0.0500865763033956
0.0494028208378376
0.0509315650539477
0.0471272016316418
0.0507883157872564
0.0497704948065666
0.05163754253308
0.0490427036415855
0.0495481986419308
0.0505910116582395
0.0484035297402478
0.0465031548469473
0.0509554887169037
0.0487595825225359
0.047807190419368
0.0481585388731811
0.04867137765982
0.0477079979262519
0.0485743812156568
0.0452454009512734
0.0477448848160809
0.0483883459205025
0.0475625340271918
0.0438280747362021
0.0475671839973854
0.0453451793600889
0.0469082119484098
0.0457634943190239
0.0462265369383709
0.0472444682548153
0.0464940777457376
0.0516787820260377
0.0479732050078236
0.0451698693485354
0.0455591486463634
0.0443039290442904
0.0451386054414596
0.0450494602831306
0.0458493070695258
0.0420805380303211
0.0442846147256298
0.0438432485489543
0.0435462625654316
0.0420494896441955
0.042616574434131
0.0435776150533807
0.0440080045020373
0.0420590289561663
0.0429474953927486
0.0430443897366284
0.0447355398892376
0.0413928819904787
0.0419236514348008
0.0416004931356242
0.0408703466654658
0.041410213741802
0.0421895270703495
0.0474069515187733
0.0512577023570707
0.0429126027022747
0.0425062415243492
0.0427935755015804
0.0453613052981996
0.0396782657255297
0.0427910019384924
0.0402042104212837
0.0425231314049336
0.0398860130330148
0.0422452108134139
0.0410407706515663
0.0429324435919712
0.0397967343137879
0.0441536607733153
0.0403247491712699
0.0419776753461311
0.0407617170363231
0.0425451970251297
0.0401308133747498
0.0435259248792085
0.038770589422593
0.041332177531387
0.0390007180422657
0.0439416634458568
0.0381255984604301
0.0484543637042767
0.0428319540914512
0.0440331688545596
0.038222664299856
0.0424601046474135
0.0383786871664669
0.0425330943771675
0.0403871782227995
0.0397848098176641
0.0379389734616048
0.0408341845504939
0.037634449120436
0.0417748322942449
0.0394769106962928
0.0382531764066212
0.0350455593202116
0.0395530379312435
0.0364414571339738
0.0409114119273807
0.0360592631659943
0.0404870585323748
0.0363035890752937
0.0411550397223441
0.0394294939261534
0.0454293830927446
0.0350450092941318
0.0425910135812204
0.0559373663218059
0.0408261814992023
0.0414652566782433
0.0389815588338104
0.0361928866088714
0.0374415554248693
0.0389815713918577
0.0386635164761131
0.038134997018964
0.0379145826742734
0.0374353894332424
0.0363091524452488
0.038273440347608
0.0390415316796969
0.0371545839910962
0.0384827756303636
0.0381869495639996
0.0368014682312545
0.0402226571340061
0.0383373088307672
0.0387990347154756
0.049663200523334
0.0421937573463322
0.0404788672228077
0.0416881887078176
0.0317059908653045
0.057671889951632
0.0457246577698482
0.0382706073845023
0.0406162957273887
0.0374630649461927
0.0384135851857471
0.0397736228118561
0.0387410375375943
0.0370038513246274
0.0459635177795268
0.0366264208288876
0.04299763041792
0.037404206743395
0.0374619589812274
0.0359649596224499
0.038656142981917
0.0370421561917959
0.0374803542050371
0.0354141674536694
0.0371635554736055
0.0364394181929206
0.0374676833758362
0.0383923579002095
0.0360840184730435
0.0387717621405998
0.0449807403854123
0.0381815415900238
0.0383598767934369
0.0369951175052041
0.0336412391759683
0.041339639619201
0.0584798844440205
0.034551983800671
0.0407438249960425
0.0348555777468384
0.0402880047757521
0.038316397682335
0.0406441951459734
0.0353123279756277
0.0389845991082307
0.0360682554637834
0.0390350541758606
0.0376257911265157
0.0374666773829585
0.0349957071521798
0.0374980011760282
0.0378285786299066
0.0398933950012551
0.0368504852586744
0.036721496727609
0.0379281442151101
0.035839799371653
0.0475633883944009
0.0588394553067805
0.0457107457834177
0.0501319900387647
0.040446791045032
0.0386918189311865
0.0356280650006184
0.0391565100828244
0.0362014578702327
0.0400183391264078
0.0357251242653846
0.040769730797464
0.0353661399999656
0.0398808469777147
0.0363068690622355
0.0405786836858881
0.0335796465478322
0.0383546760645405
0.0333053038134997
0.0388941649260541
0.0326954295695318
0.0421865980619064
0.0329288634839916
0.0436855392045238
0.0396548931329748
0.0451080329101467
0.0286642520683404
0.064876417008816
0.0599435814235553
0.0443405011035438
0.0432930136952565
0.0356195366498814
0.0365857640961368
0.0363624934947677
0.0385578167342159
0.0436111220446409
0.0374608386522923
0.0376765193720483
0.0391786915154402
0.0416724836538068
0.0390238997740292
0.0354389249771205
0.0422720968630687
0.0656284649500168
0.0433383842212313
0.0450306204288451
0.0370938612423788
0.0432864210466318
0.0629158732620166
0.0428969712725822
0.0433877975148298
0.0420527943152726
0.0396504583865251
0.0401377380417008
0.0366641388387516
0.0400443102318902
0.0437348375369401
0.0453311707782005
0.0382516983385281
0.041934293832672
0.0371297407199239
0.0466389215508432
0.0402034867373475
0.0490068680760685
0.0488969245740981
0.0420612511034187
0.0430939107094369
0.045575842886986
0.0421740165141673
0.043686939871077
0.0396843649240231
0.0429026871696972
0.0467150988751694
0.053850511351311
0.042727573191447
0.0557110369669137
0.0493924067098227
0.0405746007560604
0.044409327033196
0.0488363506001753
0.0512023200790889
0.0401720266521235
0.0447716142117778
0.0698238072558959
0.0519740473235772
0.0638714247280157
0.0416225695487807
0.0489018082102867
0.0385728776503624
0.0468709181617282
0.0364939533354721
0.0575554532158425
0.0454689687130114
0.0478141741216484
0.0393561232143196
0.0503239956016217
0.0532792102409448
0.0503388420795841
0.0467732727093337
0.0457808041016532
0.0434620170607264
0.0566335072710296
0.0494962621752311
0.039445244471253
0.0714060794510797
0.0720449614196659
0.064831352082258
0.0549757605609525
0.0422324029517299
0.0815308143966303
0.0509278500603694
0.0532184449831064
0.0467885059964829
0.0492328532825965
0.0452758052201868
0.050925897170532
0.0754377433113324
0.0598314892535974
0.0473512484842887
0.0557036528489003
0.0437774001673429
0.0738215261738302
0.060662873583461
0.054083406317388
0.0517238597647399
0.0577065656001678
0.0472710869141149
0.086747542225761
0.0751926265424679
0.0635065798522936
0.0798151224140223
0.0710352380864831
0.0722810952962112
0.0669701654643924
0.0605431268006789
0.0708513460341789
0.0774416725011425
0.0648071923180837
0.0545625920408548
0.0744928714228308
0.0879200797436441
0.0653442380243638
0.0709576171515611
0.0633612540757394
0.0583587732152731
0.0908454564853302
0.121882490416507
0.0958653264565636
0.0722490314863867
0.0697052291650862
0.0928793200997469
0.0752326180846354
0.0692278917170018
0.0708701802316243
0.069720453410907
0.0738258158389171
0.0743725890662932
0.0850032664536298
0.0749599797160133
0.0793332287333893
0.0779135006041744
0.0740376636703238
0.0949030585934716
0.134685310726428
0.117880810740424
0.0916717528014613
0.110886885211853
0.104848622122329
0.091686270167522
0.0919170662880313
0.0879316380319207
0.0968085766898298
0.0943467007371469
0.0926994794217544
0.0899637140066964
0.114248545001231
0.103892683886025
0.108516026080048
0.123994140642088
0.102627338862754
0.104780219323013
0.104116239693189
0.241022432150426
0.142045460367367
0.129399724682043
0.124608937229442
0.121814579119933
0.192108633062209
0.143397967807434
0.131370746331155
0.136381293979937
0.13658781846408
0.143854139853005
0.152882301493704
0.156299401927178
0.168369737793445
0.161032677358573
0.160471724186834
0.176257230314504
0.247788586828924
0.233070800108541
0.208366368725876
0.189826689187025
0.210593715827573
0.211916120575305
0.204666314531034
0.213848188071153
0.213177849336186
0.226418853582058
0.274253911722394
0.234111377174943
0.238574966676746
0.241736167314278
0.26642465451916
0.246948733166839
0.287640469717897
0.289044503431927
0.271201489809054
0.268532857663663
0.272727080226446
0.279990130853074
0.281660557680201
0.319415300726777
0.309613125414324
0.300134079003178
0.302152211450433
0.303421877398066
0.313987313307199
0.31511501622779
0.319525716908046
0.321826157511109
0.360405009065517
0.365159958107366
0.44213531785824
0.365530463191534
0.328330581279901
0.329796940473189
0.331010146360238
0.362588441722587
0.349056057551594
0.359590100975628
0.365560673812118
0.329917444970281
0.336918086518503
0.32943544058085
0.338945630773283
0.332244907931199
0.3338218379074
0.32950155256238
0.349903834190608
0.340101612991022
0.361095870901688
0.406567586195072
0.340296239871907
0.328884202577907
0.327798390726261
0.323382782318121
0.328400369653981
0.31904235576848
0.328424768019204
0.335161673249203
0.320003244982336
0.314548594041818
0.3061442569368
0.325675208344932
0.343825444032369
0.305146703412787
0.302959751407656
0.291670237238813
0.297212339753322
0.286985378085725
0.293159055610774
0.320649411943499
0.288021142892729
0.274753693111027
0.28285187877571
0.273050086720579
0.273426092187631
0.262335055570495
0.273050230253251
0.266916728132804
0.261406514965768
0.265034660841374
0.264551043029872
0.259229508810043
0.258293995420372
0.259247493226574
0.259053128010021
0.25039125219631
0.250926992285723
0.249269086768033
0.251285337109421
0.247761779507328
0.250565975026099
0.244315141715555
0.247913769217707
0.24753980599426
0.248934048905303
0.244736973911203
0.246120173436989
0.243092765575179
0.242956061972322
0.235297186190378
0.242016868975181
0.234071372905634
0.239564323784353
0.238966487609494
0.236091721732074
0.234804145538118
0.239571680738825
0.233686163386671
0.234935753483948
0.22997763150989
0.233321587559748
0.229566611053795
0.264718042040212
0.258004562550796
0.229655936445784
0.228143095644358
0.22565774610783
0.220453798914299
0.221745882164073
0.253123066845737
0.248780322160848
0.219723411272027
0.224753093479481
0.217841145519784
0.225270260046793
0.225212812591753
0.213092063020728
0.207728693246366
0.210182521775611
0.239729230662961
0.296039259573098
0.26054056655553
0.299991043507766
0.231843169128269
0.204807196358797
0.212364668715762
0.244482606737146
0.213030746516434
0.204111629616306
0.209723378817817
0.226411521015567
0.215035097127407
0.199161492978173
0.197275078346121
0.197662737365405
0.208741676491263
0.227050359879433
0.207755750478703
0.213945863712372
0.236478656139077
0.21694139015446
0.235547620853301
0.263163291398562
0.220033385070486
0.190891134935722
0.188946262330724
0.186193383319666
0.195891620989416
0.226170615522281
0.195032253505402
0.194466510850023
0.181704075396634
0.174281102103521
0.184779949857746
0.19823149015262
0.189058842493148
0.187187356995005
0.198589466204637
0.178167219810114
0.171204332029582
0.199752267055972
0.212466845171715
0.228089773405632
0.175713541820636
0.168490259631507
0.191290270695387
0.207757005257041
0.175202852333029
0.176786924824379
0.159312173910184
0.164354608175469
0.181631370010848
0.163498882111031
0.169425271030694
0.176785136589809
0.177261934362371
0.209687393514829
0.215022383290445
0.2014930837672
0.166499543806844
0.150426536245042
0.151471106368541
0.160979345617701
0.149327221938193
0.150611342741129
0.159351497332059
0.168517187296413
0.158141659439821
0.191064576714018
0.170161320515058
0.157831701889273
0.157255780917785
0.156900388927673
0.169309122737303
0.19918938118735
0.203264661499703
0.187191488251405
0.171493534701358
0.189965451580419
0.178930003030405
0.17941844145776
0.179662276886548
0.181120526750856
0.187538839312392
0.197510153051425
0.19788134983909
0.198675188545867
0.202001196613763
0.209291010678543
0.231564421817153
0.240819001904973
0.226607481100818
0.234534703506384
0.266926848784231
0.271990408211318
0.262958080361283
0.246446452291914
0.253347954291319
0.258653490676828
0.26091902899549
0.261258737774654
0.274997285795033
0.301040819878433
0.284237375451149
0.277686052639847
0.28623451019498
0.281320465053949
0.29326138850856
0.3060622252845
0.320184868507774
0.33553259310342
0.353973355214497
0.319596236126401
0.312062128782693
0.306635743647255
0.312247516123688
0.319724852337852
0.310837539954358
0.309803548499782
0.314752733944122
0.332958541401578
0.320513064103552
0.315449367198774
0.320676953461083
0.315398879041194
0.321155939546921
0.325735197220247
0.322277868489129
0.328113691405883
0.332853354522256
0.330664967684456
0.334386112281711
0.379570113756628
0.369313839273114
0.338212040834685
0.348248485158478
0.350931234333271
0.353970362766893
0.350500926285719
0.365441792786526
0.368061635263395
0.359075730143093
0.363516203605654
0.36359242854835
0.362969087714584
0.384528835422864
0.38651912147296
0.374795672217927
0.365904129656881
0.378277061962732
0.386267219793476
0.426891797502099
0.398964547729764
0.398374862757289
0.398435003687475
0.386294938342115
0.388787338647163
0.388887697526776
0.391196693211172
0.389674495044637
0.391699413480077
0.390490113478022
0.387551649033165
0.385636576351058
0.389546179579567
0.38913997786051
0.405564661414397
0.392939366482187
0.379006956122295
0.386979653780167
0.383756029428903
0.387999341138727
0.400942248796276
0.402101165775954
0.386749709037878
0.386941769406927
0.387384897792793
0.393676936823726
0.398187664917774
0.380373594066042
0.379183540417626
0.38538518839536
0.379454434382826
0.381565573051859
0.381201979960309
0.400849438458132
0.40107100991462
0.392075979312081
0.390367719316254
0.389323781126825
0.394247978940483
0.394468380892259
0.399267760333923
0.401661769472626
0.408812481893907
0.408504349282103
0.410392542905509
0.405866585463333
0.420364720105368
0.414261836244767
0.41897034982571
0.410001055714315
0.405168888947817
0.404121225313095
0.404611244452659
0.40570239210445
0.398603333540042
0.394625912763112
0.394218477318545
0.388196533681886
0.397305806570809
0.408059455680459
0.397229887785593
0.383226639655
0.385348510262851
0.369888158590998
0.375754597664501
0.36825691273997
0.368945995876635
0.361744391188478
0.363938227626513
0.361455538594529
0.359549575006442
0.356683632781347
0.355222895318237
0.352938666771159
0.354380927908809
0.352021729908055
0.357231665064819
0.352881979029639
0.354577839646591
0.349285985404049
0.3504344469988
0.344528928781707
0.351499825473869
0.357848902561865
0.36631608051604
0.3582336283074
0.355050332789306
0.348961358325277
0.34959509144823
0.342567096516399
0.344780141804222
0.346431204998804
0.348529762045933
0.346703348475769
0.343878763521404
0.344859355639923
0.34481523100847
0.342173225681439
0.341934874995827
0.340303808927955
0.341005286611979
0.342420792106343
0.340981509145445
0.342070959575945
0.339339237448048
0.341507124039957
0.345651354406056
0.342923269286635
0.33837111028546
0.339352739841397
0.338902347983503
0.340142712719673
0.339636651902163
0.338120948817264
0.339309250503885
0.331448492599226
0.333975695280507
0.333683232324853
0.334924520806895
0.332130913176964
0.333143110743631
0.331235957606793
0.328971327833974
0.326785867225994
0.325591578839337
0.322415851894675
0.322210865326636
0.321197555766159
0.315511202884521
0.315966728293562
0.309857678580686
0.306274514855343
0.305690816881669
0.301463153444951
0.297585589560863
0.295569018874826
0.295145772027596
0.294275940907027
0.294392765465071
0.292478261243751
0.288262449511045
0.285207452135353
0.286984419024025
0.283870529814886
0.282253569696278
0.282811413065739
0.28288208021431
0.28228254932391
0.285621730102777
0.281697113011397
0.285199082922806
0.282953167727853
0.286239831180238
0.285828673966763
0.284790122685125
0.28571895266471
0.28874047626813
0.29232123138045
0.292913190736188
0.292779806883479
0.296057413076732
0.295031593767117
0.295813332134119
0.298827354516576
0.300309487795176
0.299469219846094
0.304954914556424
0.302433738533647
0.30284616635673
0.303246228398761
0.304086576355984
0.302122092180714
0.305953522707513
0.303745873240941
0.303102045197106
0.303633870783035
0.30681026653185
0.303573713990502
0.303619573757863
0.301600712447769
0.30286758066345
0.302234270722301
0.299282605662113
0.297659623360531
0.298098404759057
0.29692339022256
0.297826494924296
0.295931772156876
0.294329486292821
0.294934501757028
0.294880880584643
0.289858424743552
0.290707389772304
0.290777059843997
0.290427736830309
0.28672952646005
0.285829445315253
0.284781757498046
0.285884054664789
0.283000420656097
0.281482636931245
0.283069746692525
0.281137444484071
0.278066304035255
0.277409311642565
0.275313086886358
0.278346705615723
0.278169296381572
0.275491390358552
0.273243833436919
0.271671078356432
0.269946782541074
0.268206495245593
0.268577639740871
0.268123570969641
0.264539963555859
0.265971993904556
0.259011785553133
0.259348886686389
0.258411077544152
0.257052880395069
0.253968242067904
0.251244632891653
0.248966023475564
0.249085770428793
0.248737212847385
0.248245882336686
0.248811534662745
0.247258909235219
0.245861514368086
0.247254791234672
0.246310643939203
0.246065594896547
0.245373476493191
0.24532742827187
0.244203388727591
0.239376080114477
0.238718445778296
0.239126467506434
0.236182444488627
0.233913329133696
0.230667233144135
0.229121693810067
0.225344457717446
0.220769748610921
0.218045849528245
0.216833766942003
0.215466926435891
0.21518131387688
0.215454477770177
0.216729796421867
0.21883354976797
0.220168783578817
0.223470062171077
0.229928014521776
0.235340387007104
0.242238396631416
0.250272607795381
0.259040990566664
0.270524042388399
0.281212030044029
0.292589984369405
0.302509824755644
0.315636171415312
0.326132967173253
0.340995843829556
0.354915410192575
0.36218233276848
0.378057170190078
0.392346062533976
0.405301812828022
0.417712357012527
0.431998890143859
0.442859226989618
0.455627833401609
0.468404425767541
0.479445634572678
0.493883617665334
0.505676394715458
0.514356452468939
0.521694411551694
0.531355848131068
0.541595728688117
0.548499663253346
0.555885347896148
0.560103723405132
0.563207290562952
0.569441421910864
0.571690866536578
0.569042475096464
0.571373872940273
0.572554234041115
0.569592550455871
0.565785859180454
0.567810559689779
0.567598294064467
0.567185707930291
0.565767827899747
0.564607034673373
0.566913905600019
0.564327312969755
0.564570800856703
0.570847933322906
0.570556839352625
0.573061540588167
0.5799906273467
0.580890331524098
0.581774316278472
0.589993679548451
0.59675410933677
0.601241449966624
0.606927469643845
0.618581804602276
0.620979813014425
0.630574580050272
0.642941067415734
0.647899947367435
0.657875039822624
0.663775818566771
0.672669448933317
0.677674410628901
0.688518321252424
0.697985781281168
0.698406134948237
0.696767650239345
0.698869993081636
0.702999011003042
0.700820351091382
0.702207979192246
0.70085140439636
0.702875831111937
0.700563289641104
0.696235418393842
0.69880781694438
0.699201790511634
0.700118215921307
0.70510888764816
0.71527043453371
0.720948244764916
0.722276513555156
0.732494073711141
0.74825432966446
0.759993567183949
0.769450983754534
0.782355953885385
0.795030635198754
0.808641466240916
0.814969632185055
0.828517763052306
0.834152776884967
0.852095742192319
0.870545241463045
0.878059473374072
0.891436398705301
0.910916997291571
0.924457367590122
0.937265651773992
0.953905669278646
0.974128032659038
0.995734811882118
1.01247644038099
1.03500095163122
1.05841497084822
1.07934693906959
1.10045833206225
1.11718114335478
1.1326715952872
1.13239127674871
1.14361289663452
1.16099160037279
1.1626170252528
1.18094605156987
1.19586953975604
1.19291256161097
1.21235640285945
1.2121379343287
1.21009622414779
1.21783555431109
1.20725889541177
1.19332183781455
1.20900481516926
1.19928405484396
1.16625696348689
1.16854329656332
1.17909772745397
1.17454318134488
1.18047094737337
1.20383005941063
1.22080009445437
1.21002256548189
1.21871486193567
1.22961891014605
1.26400808933328
1.25363202298053
1.23953862772735
1.27215836859902
1.28091555466229
1.2920489383532
1.2960018231664
1.29893107225814
1.28210848437511
1.31612421474147
1.36906530106312
1.34266180090234
1.34251313986526
1.36363391309357
1.40079809515698
1.38492608304391
1.38015434705776
1.39357181721884
1.40096176565449
1.40770903695237
1.47499224514288
1.54370109797253
1.46888407952803
1.46008277589728
1.4533430434109
1.42301772969709
1.46242654494507
1.45282746878373
1.45792954070997
1.46527742212643
1.49048376737022
1.46383286997043
1.42280369746714
1.43376509618849
1.46234415379206
1.4836031154437
1.49092619124749
1.41165140248359
1.40684850987146
1.41853448744252
1.38883416676279
1.33948844549766
1.32973736932746
1.28577715764267
1.23816327896433
1.22116946694155
1.17839493014872
1.12409507627179
1.07518677998434
1.02994256872701
1.00206674606893
0.947397770588177
0.931577556782961
0.91797661474522
0.892694326869923
0.873403437547223
0.862390436842848
0.844987690253777
0.847170471254109
0.830017433119453
0.816901769508551
0.803474687713859
0.799071566749422
0.775610913924458
0.762129024529036
0.753856357893393
0.7358399590313
0.724228163116202
0.707518575253156
0.676060704412214
0.658270719964733
0.644814510593903
0.626411173305889
0.596541905293603
0.577103317029448
0.553024658251736
0.531105749625383
0.506271458519904
0.483384463552026
0.457601140341931
0.43619350735729
0.41216220949962
0.394054924628639
0.3734660792951
0.354746971402036
0.340530165673738
0.322068703177145
0.306966939137743
0.294602048976728
0.283859005979469
0.273695696341914
0.263337343853706
0.252988847209012
0.240937389928598
0.235317136868033
0.229538936193688
0.222641718783877
0.219482715339394
0.21405508355207
0.212594441307507
0.211964010855874
0.208244750324022
0.207783409241654
0.207963108455452
0.205942441367356
0.206318771571734
0.205924445949649
0.206229910122887
0.211929213389327
0.212550510466389
0.212447855413316
0.212248502003204
0.217298584464817
0.22058263001674
0.222020236153094
0.220381591958164
0.220120569264242
0.218702124473477
0.21788154252914
0.216481036359898
0.216910558297713
0.218231112535626
0.216979151346818
0.212545872529918
0.215361161230462
0.215058272609129
0.21425076080559
0.217124454306723
0.214946098771341
0.214127382893246
0.218391583086783
0.220639145166596
0.222281693170095
0.219987626653915
0.224717890079391
0.227301527534685
0.224375354001336
0.229026375732446
0.227913708373261
0.227941413998056
0.233261528027679
0.233578047218684
0.233253252036425
0.233059156264593
0.236228985167433
0.235093467324019
0.235026922096237
0.237002233099209
0.240057227383802
0.235114814699813
0.234581542267438
0.23530347090723
0.236873139504403
0.238672763820629
0.24020279967829
0.238566760149468
0.247972610081092
0.25072063582736
0.245588936726255
0.248748603889997
0.255461036206102
0.254991876337295
0.2661647627193
0.276245168098164
0.280030289489159
0.292626653553851
0.295175323819925
0.296613683798501
0.308538331346004
0.312109726187259
0.320454814559197
0.320423827535098
0.319311849846303
0.313157504927501
0.309547690135191
0.31272407213257
0.302653406760777
0.297150622729843
0.293717103265587
0.287142084630677
0.286051102071119
0.27690594752402
0.275582675292973
0.268342612496384
0.278138062935227
0.27575797882172
0.273915560776702
0.272298548369013
0.274219812183013
0.278666925799166
0.278188821009902
0.274561631805827
0.274070230285075
0.271358439756492
0.272918022739889
0.264790584107136
0.26076419277259
0.27185578490275
0.261162817278048
0.255329112852944
0.259891966617163
0.256339001964508
0.256116359834036
0.245049364148437
0.248913006135072
0.247056829045297
0.249915086517364
0.252477461417234
0.248910737502348
0.250736738426794
0.245594973542167
0.240764294491949
0.240190250286886
0.239846023064136
0.240675732763311
0.23376600790766
0.239606657884084
0.239086080317227
0.236912139704844
0.238173723065666
0.235492484050968
0.234444532372408
0.237778996640769
0.231493516630676
0.227459600820939
0.231152616964384
0.231781454858298
0.213967909579958
0.226111041021019
0.233027859699301
0.224724213729926
0.219099431936881
0.228140501455953
0.218510581998631
0.219784675835538
0.219764177355868
0.216034392946198
0.218966582367651
0.215607819806521
0.214020926863346
0.212068526516571
0.215676056624693
0.220514364934854
0.214752699162519
0.211589372776771
0.224010932962309
0.226121091689229
0.212219330543127
0.219851253109576
0.223267981276582
0.23500534689272
0.224135111808185
0.232794132657415
0.229813351687069
0.225633213089246
0.231038161010454
0.229941450609424
0.233046444355803
0.230338802014682
0.238243232302478
0.244667484182269
0.242284562050951
0.253414581808223
0.243796044356426
0.248849319893173
0.255614416665172
0.253476284304292
0.254340186697092
0.263791515899324
0.270435099373531
0.281874836228977
0.270942357033081
0.283091999796615
0.285019755998323
0.304234859879804
0.310059845004858
0.314391100930402
0.333397260796246
0.340953159643907
0.334862657568277
0.354947113744952
0.35916348378889
0.373902011748768
0.36690103176169
0.38611307454941
0.394020122689308
0.39169270089319
0.384349070015585
0.412218488500131
0.400965991916758
0.417383075999424
0.410844166072233
0.40453837759208
0.391020099315978
0.382376386244041
0.38963685204197
0.386399277900457
0.38970852673564
0.400396630288257
0.39337487858941
0.382360417174319
0.387058642492291
0.406649856569738
0.384140485805613
0.397310115906263
0.386736082349223
0.381393514431694
0.388110543340264
0.381481997016027
0.368899036097116
0.385693832201555
0.369550763938004
0.369853855471213
0.357785285576688
0.37168878720603
0.361915554937604
0.365630039241298
0.368987129309568
0.350679796322349
0.349489094928937
0.383724719364471
0.37270309141357
0.354244499615591
0.316768882119828
0.347988753411828
0.339897767091958
0.338295396477565
0.331070634109606
0.340035047908423
0.343816345447203
0.361467204393619
0.353881768109658
0.357456133723608
0.329349457520446
0.353840202993647
0.344973115692938
0.357954093197678
0.341738202024278
0.365006289138166
0.359773943367629
0.371090980564574
0.363017165981465
0.363681714757886
0.370637363409505
0.369957239967833
0.388957498123339
0.37883428966218
0.38532085649949
0.38225511987757
0.33059353056145
0.361699134723011
0.385070600749651
0.377805648927486
0.392755232566434
0.422960993507712
0.394246710688503
0.388905017200975
0.431015178291146
0.433067103888614
0.433849668172449
0.469337475124251
0.396477741242445
0.429604903213925
0.466429076611793
0.447168530326399
0.472188073987385
0.460712791847218
0.47503639434611
0.484823899861486
0.453580929074379
0.482412353012243
0.460005895187185
0.55992618299736
0.51915261552159
0.567949529366044
0.459725842863336
0.482853154408091
0.439547334761269
0.525666696255222
0.548814100941424
0.537258016068313
0.476455354498792
0.486094656272131
0.514366166405374
0.518312102136643
0.448214572284228
0.471517029050401
0.382298348605121
0.45798858811842
0.497304164998217
0.497940189683583
0.464925284403693
0.592312937427875
0.478571644630323
0.45385525351784
0.471571052589969
0.479216459014162
0.482631303272093
0.418790402225339
0.450606279830158
0.521822377088104
0.373958536532355
0.409956163232304
0.405264503373521
0.525671090871045
0.411184477639183
0.52750747600788
0.561570638072544
0.518041085442902
0.325993312479524
0.548235212009143
0.475073863568705
0.496640846708985
0.462742000120693
0.53694278707648
0.362863630901743
0.738645315275665
0.503440605835709
0.455821962936434
0.434763026700372
0.45080083679077
0.406178782333009
0.583915161423184
0.600776564347923
0.46227207463309
0.408026265792949
0.597226637523105
0.590915165956269
0.764264393862672
0.625973416028534
0.846413999107739
0.60049228864698
0.567450491575548
