3596
4000.36533379555
650.420452594757
1
2
2
0.0942176124531144
0.0725899935983064
0.0876269308202614
0.0769133272290952
0.0905380363376712
0.0761605653600856
0.0837684787789338
0.0688835009758214
0.0855948433291576
0.0794799684540609
0.0881332804517201
0.0704373719628247
0.0795577386002838
0.0714807173116943
0.0977876950372519
0.0683936038598482
0.0885484910681979
0.0747936587933713
0.0895439091401083
0.0698470336344372
0.090161990630319
0.0715767160641362
0.0836526062417685
0.0754141638407849
0.0880416526466813
0.0752343557707493
0.0864345730829959
0.0667743684430325
0.0910451697842056
0.0794829397947925
0.0840922193253636
0.0708911455340389
0.0840963136701504
0.0715596591354529
0.0902705106357138
0.0835831432254681
0.0797858402894859
0.0745074150612311
0.0848494392280947
0.076396583676338
0.0969262271539079
0.0746120163914824
0.0875159080213855
0.0757793282927011
0.0916115739982208
0.0794422548520373
0.0868455277290248
0.0703509536676573
0.0811038915233599
0.0709375004086685
0.0869986418345124
0.0713105088272952
0.0959356185938932
0.0919104396528013
0.0783197988418094
0.0837456321864414
0.0924497124568908
0.0712849650392815
0.0879021402782139
0.0705285704621293
0.100187569174635
0.0919291689574516
0.0782792895438119
0.0768609573855888
0.0786552598555879
0.0753574005077439
0.0760724284124679
0.0799372385465299
0.0763019588622767
0.0721815946753308
0.0785987433918731
0.0813669434126235
0.0947463869202722
0.0761415526271885
0.0888450576099704
0.0676972006804058
0.0795734397441514
0.0732738939114924
0.0791220716840679
0.0781354744302739
0.0831218007212124
0.0712191852503746
0.083471155068771
0.0648503204559059
0.0808794922019826
0.0917930470332649
0.071625531701871
0.077254951655108
0.0967934459952184
0.0833375232403797
0.0779719846121861
0.0689871570621531
0.07549491368177
0.0703399611219986
0.0771364828410661
0.0731822952586302
0.0756498425091858
0.0725920176668042
0.0696719255032907
0.0741445016013952
0.0950256476420127
0.0524661008358267
0.124664761032184
0.0597270024034178
0.144748566777281
0.085292771113397
0.0679857184052566
0.110849692112664
0.0866495247729462
0.0841917512677837
0.0717753346748387
0.0760618015624414
0.0721809149748889
0.0856819605348771
0.0594606518533147
0.0912804453507194
0.102650808926861
0.070874607075079
0.0850546847022341
0.078477819513491
0.0561033268580652
0.0901630047175046
0.120491072862716
0.0728547318297994
0.0934914204017477
0.0641471047823595
0.0692826651776324
0.0904042282422396
0.101127495740855
0.0643586154003565
0.0809278279695313
0.0621927985581852
0.0716861518722109
0.045769231711062
0.11808536386063
0.0672253283515468
0.0847116664592119
0.0573473034136023
0.0938893286476679
0.119766188211624
0.0878507356450795
0.071810473279403
0.068259016266736
0.0626206375279975
0.122501886096742
0.0844942189581054
0.0687053369172421
0.0753317073087784
0.0939496755628044
0.0609715347092143
0.0785473013894203
0.0604997332585516
0.0932043647770964
0.0796268858304449
0.0447255861376747
0.0865494847705515
0.154908364321058
0.0428277560220387
0.154551872665381
0.0581349166357871
0.0929295876142361
0.0600314522307687
0.0790360988832046
0.0548800419340085
0.0821711336996177
0.0589322515238355
0.0758642594238795
0.0955571540264741
0.077035230394693
0.0650822894035416
0.10658919781929
0.0826699449302923
0.0630544262509791
0.128242998280853
0.0874416413994388
0.0509719193235909
0.111657348839241
0.0803572661456831
0.0696192575792466
0.0666318289059154
0.108902512509403
0.0614927630819517
0.0910465400714684
0.0584475886551731
0.0797795081805193
0.0840283133817994
0.0754513858604901
0.0629649360559481
0.0864754615163832
0.0470745630107976
0.0969817063707143
0.103597240465391
0.113517714944338
0.0649028422400076
0.0873617586932308
0.028993218075941
0.125088671034867
0.100437094118597
0.0792890506305204
0.0707284678737159
0.0745908764312219
0.0569509531680838
0.0675356841046677
0.0571915999668384
0.0740756078888839
0.0358853505818294
0.124171170846405
0.0618379329910662
0.0824812929376151
0.0645779004460293
0.0796565244837094
0.048429630364008
0.13437489630738
0.0979226391802783
0.06999448474525
0.0740825033586974
0.0669442056793645
0.077674987818319
0.093152082409613
0.0699024501963984
0.0803512350147503
0.0668656753499453
0.0767983187097231
0.0574248095049173
0.0705005899867132
0.0656171229813886
0.075534345035906
0.0651509016162525
0.068378307137992
0.0675168612113809
0.0858117937679306
0.069529541349187
0.072839930728206
0.0699944874780646
0.066366770183725
0.0673408174754163
0.103633104468103
0.0682183335161617
0.0815482011406219
0.0605579185217157
0.0790752874570778
0.0647721517410559
0.0744863980052889
0.0628888622822843
0.0783344690893205
0.0437968443635333
0.11534506310621
0.061515138543981
0.0859126607674196
0.0519181833776983
0.10538339910128
0.0810293020264281
0.0815599082917072
0.0651311821633858
0.0719199888197839
0.0576231877341512
0.071114957034278
0.101145960925539
0.0841544915843866
0.062691664976905
0.0915958637364942
0.0785697402082049
0.0674120044979669
0.0704119727008952
0.0499631012263005
0.151759189022577
0.0975983144383611
0.0548771817777625
0.157218225792472
0.0857680807565145
0.0812715392809097
0.0721326380751357
0.0461920418732041
0.167188177699696
0.140297208999929
0.0736676563013469
0.0829741895540932
0.0954700987833305
0.075208606099129
0.0747187266954355
0.0859351160629334
0.0757048140892328
0.104335055826067
0.0931444183529032
0.156247603793531
0.0565063915517615
0.109654448987437
0.107740868011313
0.0895694405202415
0.0685605681283063
0.0821857889849371
0.0725446686867303
0.104238525821553
0.0988423237572508
0.0964808860817166
0.0880015194479136
0.0757638978154538
0.115194685463225
0.096312227128562
0.0811566921569589
0.0890474340934838
0.095476110548246
0.0785388276965074
0.0904540956770467
0.0818938841472543
0.0871394934228751
0.0836985821552355
0.0681610731966712
0.14740176587508
0.0968458019357622
0.0859497583922715
0.12081520780295
0.0981161319296363
0.0849508816041209
0.0863651219457071
0.0849937082165764
0.085503315597012
0.0759978078118272
0.0786622602103949
0.116703629195134
0.100557357321746
0.0866383736507371
0.0917692649968672
0.0805008048002341
0.0975152159293504
0.091719644384353
0.0931943069938543
0.0910297766827212
0.100737709566794
0.0827695667634499
0.111979724276132
0.121735327166402
0.0722505499117501
0.125156692167115
0.13992121564746
0.0959478115422571
0.108385547163558
0.0952303234355452
0.110225453749031
0.0974258328161619
0.115066838378009
0.102358181608876
0.105256125852318
0.113717920184843
0.131899370713163
0.102739884298843
0.114082740263676
0.150771020962345
0.188355049280773
0.122107212536183
0.124280170077746
0.0912995530571835
0.153839244509328
0.154937099881388
0.135873626212478
0.155984314801334
0.121598412216525
0.13699095179299
0.123439243068694
0.131031241479743
0.134059702879182
0.138340088858841
0.139932088369981
0.137718467711418
0.136769194862021
0.144554059890427
0.146683341642838
0.137724983006699
0.181198872494467
0.155455151342942
0.14988063471468
0.157062959445782
0.142738787830955
0.170234632881254
0.177771346443757
0.189120336913555
0.204940787701456
0.173876201879993
0.220767554976994
0.157199424600533
0.184006526338465
0.163332351215529
0.180252450383065
0.178275981627752
0.18965495968343
0.166016991416932
0.183874889962823
0.178910151081045
0.193201912263446
0.181029732617224
0.198396095450629
0.183095887488571
0.222443220093086
0.20003701521414
0.211750097622254
0.19596768884762
0.241835067498206
0.255747754942366
0.262318349378579
0.216893233044619
0.225063221261255
0.220207093013462
0.222221680785293
0.225685291851106
0.229463836670618
0.241767478605593
0.241971036699379
0.258502496750282
0.264829608690911
0.251994854388483
0.270902220097383
0.238702774495953
0.280116079965967
0.26381372074742
0.271464573785432
0.278967378094483
0.269902624187753
0.249503591313995
0.293437373704167
0.295070625848565
0.283561797572633
0.308066790734379
0.293764464210935
0.283647992957076
0.27952062837353
0.299176142439991
0.301793244361508
0.30331203987543
0.325307889859672
0.30371091836298
0.320424888127123
0.320636564954752
0.33456423980127
0.33481487277774
0.34625577939206
0.339250850543388
0.346132840206647
0.320538580696077
0.36587169622733
0.338363146121497
0.370534337901036
0.368978477507713
0.381154953079363
0.398285159715653
0.370167774854722
0.362306091953256
0.378516930819738
0.375018522760011
0.379658008265056
0.378631444854008
0.397642734878967
0.38692288772256
0.402867090182878
0.39246547003575
0.39367248103361
0.409696028219426
0.418151258476143
0.408556982960113
0.429340875041544
0.413901526236935
0.444546535520883
0.435597231435334
0.455241226778078
0.446592126448172
0.485903419832257
0.494274380550393
0.464719792057979
0.454941396239047
0.464961733733458
0.468180031273632
0.486692414279973
0.493673939336024
0.490443809478069
0.466293116099123
0.496701572129619
0.49724589300255
0.508688264163989
0.497686765874793
0.523579012610034
0.51801193640256
0.550406580285216
0.530861786717305
0.547903127269812
0.550096874785636
0.557048157247433
0.563016131658536
0.565380552628311
0.549444869528544
0.568088093333209
0.546547630359851
0.572873857068726
0.550092511522362
0.57693857006755
0.569876989182318
0.585162214128817
0.588534722632732
0.613484660801405
0.616035911145602
0.646428280545604
0.577646166651854
0.620766618717606
0.6292013032138
0.622524864403517
0.617645301154902
0.633824269927691
0.622972409267926
0.652687238189302
0.635351171277532
0.658695765460889
0.646251306362794
0.719449978001886
0.668872183114348
0.639143615807255
0.679145510217618
0.720686062941067
0.671128871513409
0.681327527831171
0.709980790052041
0.69810567987719
0.66606614539661
0.704210790809729
0.720745847378824
0.740509537562732
0.705445005615982
0.767880509194739
0.75339843885056
0.761487807038593
0.735487384139948
0.751474473608654
0.736617127442508
0.781966486842046
0.737654096954946
0.767016425053533
0.781498768794552
0.829951177823139
0.761909485702108
0.796598459399118
0.798479231255542
0.8005768899881
0.78832767530278
0.832077265891587
0.809187578234887
0.854626756193108
0.80581101491217
0.835519258050562
0.828389051155731
0.868264756867334
0.839962155356424
0.85938112633969
0.878917503671302
0.86414132758943
0.895742856519314
0.927717928511525
0.821438735376235
0.889064187707773
0.860013986126076
0.855142930456943
0.818835165608725
0.88426856926793
0.885269920281994
0.904444812433427
0.923067308459848
0.970197570215305
0.912216863280473
0.948620712412957
0.914440186926115
0.906230580544049
0.88597285736566
0.96647331195292
0.960974135009991
0.969021703149283
0.965440803366147
1.00427194277067
1.02219911778301
1.06538145573465
0.918116668118761
0.975136235287795
0.967082657332438
1.00298977016458
0.991755173154049
1.03584962619075
1.03364962797356
1.0613586907714
0.991544453889056
1.0180490100955
1.02829003699059
1.0231816858738
0.994011115824886
1.08760552839622
1.0660443884267
1.04448030575921
1.0033456129388
1.05157115670758
1.07565274716651
1.07500786956042
1.07152183959817
1.12546433211073
1.10103986969021
1.12288743884928
1.0781302377212
1.07962276266459
1.03781315701582
1.11710075045324
1.07016169115565
1.10874989964249
1.08078533274129
1.10019110291457
1.10480332902526
1.11393574302357
1.05216074165423
1.08996194380838
1.13049628025775
1.17055077933692
1.12571591941125
1.21359683317715
1.20478349190935
1.19529918847445
1.21989054983863
1.17655325857527
1.09370193654303
1.16308412218863
1.16751294805188
1.14682910051613
1.12558787843457
1.20206358599122
1.22325391491654
1.24939753783324
1.23846131409069
1.24185537711674
1.18999037410847
1.23213321848625
1.33575663527642
1.31734326507434
1.21096905253567
1.25100696657403
1.25968794306211
1.29938336364068
1.1804913087121
1.20040371039249
1.25010452769432
1.22130804192392
1.14856248166348
1.16534557475608
1.21174021882052
1.30330302838057
1.29375427037733
1.36122938136788
1.31231341022059
1.29120880572474
1.28938584641327
1.32705151503108
1.25824704103796
1.30109389674915
1.33313178592619
1.41841266954252
1.28318541054643
1.27372230067728
1.3660668481448
1.37192338268254
1.35278151114005
1.2791387381569
1.30843301944297
1.40249616953333
1.25402902873708
1.32939159064585
1.29066281411383
1.34242580119089
1.3936797889649
1.32329365690295
1.3488776084658
1.33085642799459
1.33660627344689
1.35324486007283
1.31429164658107
1.41845493014315
1.35588844875692
1.33601495955458
1.33399236576819
1.37563594290465
1.49686016822715
1.41643582648138
1.35719905241409
1.46380938120981
1.39387407113409
1.39048762490628
1.41344850703379
1.37107946542412
1.40870622514603
1.45787037077659
1.44602602798528
1.4676149596879
1.41205759198397
1.43300910452138
1.45422647614028
1.44381305864228
1.35445176213951
1.41860370718703
1.44245292193282
1.44833701400889
1.44626627849031
1.51182998203869
1.46526398495478
1.46956763776747
1.40913323639215
1.45054277260621
1.44854323217985
1.37845006437401
1.47425266968413
1.39989971838181
1.3825924990714
1.47221386856165
1.33581103747756
1.39093280352335
1.44233178046137
1.42149125324437
1.43922260568041
1.47737453268684
1.47123142140768
1.46890065560808
1.4524629005334
1.40048687716691
1.4671781847694
1.5363144413378
1.41195928789808
1.4750972646719
1.50892473543668
1.46925435861707
1.44573564450795
1.49440546729475
1.43186237042761
1.40730206954262
1.44488457350898
1.41775220669352
1.39170703008779
1.52119308746042
1.47635670533105
1.40834055047652
1.41517370964858
1.46319106321665
1.41675492550955
1.38194405361639
1.38955763454279
1.39270330894061
1.35696032051175
1.41395357739554
1.48020038742077
1.43665828562402
1.45622565725149
1.47476858769012
1.41034180166112
1.53403452858296
1.46653561144126
1.46614274495332
1.41734722004977
1.36233427863676
1.44185771365544
1.40024771079662
1.42486493937273
1.4354679598967
1.43570979708031
1.42429034388687
1.33390011193324
1.47452430502964
1.51249395909256
1.40737303232948
1.48978985947878
1.58616085027007
1.4770942052577
1.52959612448797
1.51702360748591
1.41191568906264
1.43953774421765
1.4077538179698
1.41050097115334
1.41726529745531
1.41377496306162
1.45102853017989
1.44627921864577
1.44653468624321
1.38900882553473
1.43648464924209
1.4085157300481
1.4741735154351
1.51905617844176
1.46775985720077
1.51747968237085
1.50363413718897
1.41635141755282
1.37198221969267
1.45912624304788
1.41568257138553
1.3777408461899
1.40006920286842
1.36773571049197
1.37953198060943
1.37191104630927
1.42726503329805
1.4429418045205
1.3896066929016
1.42512691928388
1.43306174961119
1.44803601171979
1.43954779420958
1.44867686802166
1.40449602039937
1.36687633779145
1.36019122105561
1.36310482996984
1.33968970584131
1.43187296455282
1.43194872795773
1.30654110312944
1.36182987851985
1.50605539469344
1.35884661342981
1.36629806974575
1.42258735135588
1.36906571708378
1.42754712019943
1.37895203770826
1.36725109698261
1.43241722286966
1.41918086684762
1.40429525328476
1.38124115452016
1.38814234371999
1.38771741217246
1.42315644146047
1.35215550205084
1.37247552280589
1.37974688527488
1.30970474148543
1.35937777277627
1.36314689649627
1.34879846520819
1.31739780153652
1.34162522867722
1.35984337277256
1.28996892711918
1.29326895269056
1.32330963346402
1.3427063582969
1.32815196347914
1.30175224999841
1.29558284234951
1.28300190366707
1.27097606024661
1.36089491171289
1.27955209131715
1.25917587419506
1.30495539493368
1.28527014046081
1.2687457579563
1.30103631716841
1.32353223902735
1.2922518544348
1.29940535684938
1.29295493797667
1.21406660637491
1.20952605059306
1.20414524309341
1.23380534812828
1.23051613477822
1.17727833615507
1.17346498140965
1.25572655023943
1.24316991437192
1.180973096166
1.19521263564941
1.22696163139927
1.19455270843704
1.2074336598104
1.22216098642556
1.19749217649285
1.20321237983955
1.20651577475636
1.18844629270173
1.1851669111055
1.16953821277768
1.14302218071785
1.1199105442645
1.16297141855515
1.14495698059375
1.14711895885763
1.15142457037847
1.16277185839139
1.14303091377158
1.12278777998908
1.13091448907991
1.13155317568495
1.1281858122373
1.12396366683806
1.09701289841468
1.0987427364092
1.08448665104706
1.10604244145595
1.09714782503327
1.07959586751197
1.06749379749597
1.09042651273469
1.09705440940278
1.07606880826966
1.07829329882207
1.05479827231203
1.05149700232976
1.03959740497076
1.03291715405644
1.06004437279723
1.00865911573083
1.04814549514053
1.04677731532713
1.03462997587186
1.01880319621786
1.00944262604154
0.999446246602533
1.00138852544369
1.01239812930732
0.995148415289488
0.997214203259695
1.01150331956795
0.978588197586336
0.964469902033119
0.964729136040795
0.980764062490569
0.954443513108532
0.942983995854498
0.943649795684252
0.940110161937271
0.932339912842286
0.933980681142081
0.931179740725137
0.939708268389509
0.929978543752665
0.914636215055081
0.888774019608049
0.906758042546957
0.912333744760885
0.896461169457571
0.889580039746437
0.902596081610894
0.892818984945615
0.871523913908997
0.858169561761136
0.869373343751686
0.869097108656699
0.867563993023508
0.859084921902901
0.850453981957114
0.843368799194045
0.852656040228014
0.83757197966392
0.835675888089427
0.828202225306762
0.824182581081968
0.811836184221327
0.817255559344244
0.793989745604282
0.807617519089939
0.80341736971061
0.817904078345972
0.79432525467113
0.796725008012294
0.79594770769295
0.77997531070917
0.774343888091876
0.782962030724391
0.764153100010907
0.760889991464532
0.777240558513339
0.764730643297775
0.749393776049252
0.758419007275715
0.754881121322839
0.73985574687328
0.731224760117116
0.731459880646479
0.733124399795865
0.724120819373539
0.716619940643046
0.719508700382479
0.71099900505785
0.704961627682932
0.708526702015223
0.726301435752075
0.713147823640693
0.705212986250964
0.699470452148915
0.703609024250419
0.680412532012995
0.690737521739231
0.688142938322693
0.687633678073503
0.680324021419275
0.683716856643935
0.665305621856161
0.661291832550471
0.660310712843027
0.663892858329108
0.648309083366097
0.644274289195335
0.648940199711808
0.64595304040644
0.634906057681589
0.639850440668601
0.634246686652923
0.631294106697987
0.626891980128788
0.623611335662583
0.620096893673525
0.628524429374898
0.616401411809988
0.619659397442751
0.613137121969617
0.610019348615977
0.609712528538479
0.607429420377584
0.596703201695317
0.594769943679273
0.587288731057354
0.586331116305526
0.592802527230769
0.585182063294728
0.5850222338697
0.580937427777304
0.583919092756026
0.576605236124312
0.565530117503043
0.574602684219293
0.558947388640187
0.564125966230109
0.559780530395008
0.556773116588412
0.551046574383824
0.556277266874806
0.544322540882657
0.54571150315554
0.54331621272237
0.543159033782764
0.539984900283182
0.538961693188491
0.522859162371727
0.543527275158015
0.527770589174274
0.522741536222625
0.525891717970953
0.522787423344541
0.515531415347256
0.518791448996066
0.512404345561557
0.510486737496477
0.508555757963774
0.502825164649286
0.502268118439333
0.507690421387748
0.499602207110227
0.498493480977585
0.502987912307189
0.502251091597172
0.492488958989606
0.493738436691518
0.495105533392612
0.489044086330096
0.48272271984136
0.489685449786075
0.479756409522273
0.49114489571065
0.48274319783132
0.483735997603548
0.481012573949471
0.478242005935313
0.475616568505802
0.479981055427631
0.471315207555268
0.47589151277855
0.475923567978313
0.478355606781356
0.469558814651979
0.476574070224201
0.475415659573795
0.473193991558485
0.465993128179768
0.477744366888624
0.474691498499962
0.479048670272606
0.469093985774269
0.477190107266144
0.472451677966661
0.4735799885712
0.474654025128126
0.479752342094649
0.474894155224314
0.482159918678947
0.477800774311601
0.482346139695321
0.478283835373052
0.479249851738465
0.475310836975343
0.483749752870904
0.48167483864188
0.483564787656462
0.491915941918914
0.491168936966975
0.483288157719321
0.498470528678529
0.497991746758196
0.500946808286597
0.496616458783531
0.502635855289534
0.499741463439765
0.511282080247201
0.504159441262842
0.513903892624553
0.505923111325354
0.513481512750616
0.503595039182749
0.501161637906368
0.508031554106776
0.519794807996423
0.517618177221429
0.52814814937674
0.522165378186084
0.526034517281015
0.522307205033438
0.536278156460578
0.519318579382896
0.540942692453902
0.538177072333664
0.540918687295299
0.543916853463769
0.550267346397235
0.542023114914612
0.561229190538253
0.567382411422637
0.576597007489792
0.572524866384507
0.582267801820248
0.566173094477161
0.580386702858923
0.580543932154236
0.585837678329587
0.587506870013381
0.596202263120535
0.59426170891562
0.60672000861244
0.594978911156298
0.591598723150447
0.589246895798625
0.598813270953629
0.590029961122727
0.598827256397781
0.607084060945794
0.613077144508485
0.597379034777363
0.62507316726572
0.609342795897333
0.605691703391389
0.592229719488329
0.610719905810363
0.609253379792103
0.607748285988001
0.590497204099445
0.605711576286712
0.593223101397341
0.591734037825211
0.580480038196378
0.578628242079494
0.574735143307876
0.590088096253021
0.586013979483928
0.585325226594722
0.580386696705563
0.587645131094468
0.575648662606282
0.587062489190361
0.580475168613635
0.584345788794573
0.58154816442785
0.58970745460175
0.582939684188417
0.584672345344684
0.57278153370292
0.577506824833233
0.580790370190474
0.585674307195322
0.567175884334294
0.580352890590215
0.574791529838324
0.589142101560545
0.579849799984522
0.581369782867122
0.570971623878768
0.585175913097627
0.577493035821066
0.58397418941264
0.577010480867047
0.585661709479239
0.570653146827003
0.573250666862757
0.572222029857306
0.576895671104811
0.570319743956072
0.5833554546855
0.566888475605519
0.568536053396954
0.567045496943326
0.56773568741972
0.556997576922183
0.564701840479793
0.557249408036687
0.5497398075653
0.552083523146384
0.555352572116151
0.54230060534941
0.549866859740437
0.534247454943618
0.537004349015572
0.539007534754689
0.53638548862116
0.528181185936208
0.536165135225517
0.51301422454204
0.522694803190011
0.510692675522716
0.517619033304597
0.50986585235184
0.51097568997137
0.502720461475241
0.50014846214992
0.49212274574665
0.492566152407694
0.488202486833582
0.495096743739516
0.476820026592372
0.480198281046737
0.471168613834396
0.473621712863615
0.46279330025548
0.471790743371519
0.46882369772705
0.468378078999671
0.462649502661971
0.462390579292891
0.457167579782656
0.453919496830665
0.444151623299034
0.442203080931872
0.441904962990022
0.44098532962655
0.4330094974083
0.436050067326261
0.431942808304637
0.431832043333928
0.424585438158462
0.426426537401555
0.424374741467576
0.423767228844343
0.414888310557562
0.422327713974201
0.422245841203865
0.426233087757536
0.412082400183812
0.413523193499128
0.404445205201911
0.413470623064352
0.407873332229579
0.403128518198211
0.398624476071782
0.401435527778419
0.394161268203445
0.400781065614964
0.400959358492723
0.399393706518709
0.387318204666749
0.394650061034794
0.386654876158203
0.387277541472168
0.383567984425132
0.387986436939525
0.37871764088818
0.379723274159096
0.376677702447836
0.375397953671538
0.368583801507777
0.377378829987051
0.37696226575581
0.371315600429636
0.364304714963942
0.37066950473666
0.366923306175021
0.370341043447176
0.359692040570862
0.366677123601977
0.361668037023523
0.364876970310093
0.361653248031436
0.361026681378998
0.358069726425089
0.359432217075514
0.35315797256718
0.352903920943738
0.351837863199662
0.352048569979976
0.345111663342478
0.350204537295959
0.346393788435463
0.353555688449274
0.344440285528455
0.347961591662289
0.338081214671299
0.346570829675788
0.347946990339855
0.346658795393185
0.339231053431177
0.342986254863369
0.340148125149474
0.342177315589032
0.334314021013279
0.339650303315174
0.334544914888584
0.335587491232709
0.336480062354499
0.331578090440057
0.334808946296623
0.341468769075587
0.329800084023707
0.331872462447085
0.326079835208654
0.332066206724805
0.324104031534923
0.328808047871537
0.327599502842841
0.328848362986966
0.32207108798752
0.325439526167226
0.318008139615263
0.323757955478952
0.320260641539842
0.321373079422398
0.318613910170397
0.316846049063633
0.317054043272898
0.318307730570872
0.314733722964004
0.319970362563657
0.312400109962674
0.316881150842084
0.313335536495795
0.31236659818247
0.309610582463187
0.317389605781054
0.305868455383512
0.310693654084185
0.309980176159296
0.313088349460782
0.311207155368561
0.311338339056006
0.303003438154198
0.310945495165962
0.300077364109779
0.302679683823482
0.307744205601235
0.316249304183146
0.308718716344942
0.308276214619017
0.300025706578781
0.306347950562237
0.30258684429172
0.304120723641544
0.299205858429077
0.308142416325771
0.303992177709892
0.307725752557836
0.301216072833611
0.2988158438524
0.300587741875793
0.304851867759472
0.295520473664037
0.30324649874578
0.294421904800646
0.300950472125416
0.292524320079931
0.297121555238299
0.293388869558383
0.295658256640784
0.292953887876747
0.298686253523767
0.289416829428287
0.298896143413376
0.288576773658176
0.293415267016717
0.290168593276023
0.293405510594591
0.289630357663001
0.28714135613906
0.286314557720022
0.292642481144837
0.28366291570214
0.288444573796437
0.280622114948189
0.282215441341231
0.284770319315785
0.28578674767336
0.277658725875967
0.284129535306089
0.28031852735097
0.279901505514526
0.27850303517483
0.281437815776785
0.273469406154084
0.278769805187132
0.272935751256182
0.274733837974846
0.274519946235185
0.278834309352653
0.273563639962181
0.271210596791742
0.272060900442926
0.276890619807932
0.271457982361755
0.271705953957862
0.266154799786971
0.273745979582879
0.264806941943743
0.265820575276888
0.263341314386858
0.266537778493471
0.263474367963909
0.266728133226544
0.261578154396999
0.26375285522651
0.26274832999892
0.259062815567837
0.257301755650314
0.264359988919044
0.257228453395278
0.260868580008719
0.252952938253019
0.256024653484507
0.250307753962234
0.255837934924339
0.253032252948423
0.255019641943136
0.245806800187396
0.250864008460595
0.245240049935616
0.252573071477375
0.246589404427417
0.249270949860079
0.244149713305194
0.246515073416756
0.2428122769419
0.243504439379005
0.24187557075945
0.244623133286807
0.235087115557502
0.241801677900986
0.233993215031944
0.236183109201232
0.235638685688587
0.241624921421896
0.232053077266726
0.237417255238882
0.230821322624556
0.2341413497638
0.229498470643686
0.230795459712717
0.230442940296605
0.230034593379012
0.224633061523372
0.224940079697393
0.222949344721165
0.229897094844487
0.219089909835163
0.224113993131943
0.220457305931234
0.223824968292281
0.216045385443858
0.219045301710666
0.214504582874388
0.217262509858976
0.218274600177592
0.219430744942988
0.214586307291228
0.214311663973219
0.209472341193354
0.217811196170383
0.215452225995735
0.214133633862475
0.208045695383245
0.212632227601964
0.208268994162363
0.214881395924639
0.207586280509417
0.209385420777607
0.203357196751778
0.210065713073409
0.206580537311429
0.20542498689236
0.200880872251661
0.211771866716723
0.204686708144441
0.207596868956493
0.2037073351242
0.203682920938191
0.196186875816322
0.204822618218428
0.198808299111369
0.201789195949173
0.200798991189882
0.200734860616102
0.196082953066461
0.198734165083113
0.194689438628686
0.199573247206002
0.19275660450825
0.197221211924117
0.195631307490829
0.195977790245839
0.188280057362137
0.189053426484241
0.1896330158266
0.193800992566943
0.189466045517039
0.191134446724798
0.188197557371896
0.189229402860067
0.188261255015058
0.189350705126931
0.189550595361093
0.193721553288963
0.190664549398196
0.190764019730188
0.184624995596
0.18812109415879
0.183118236455833
0.184637814306878
0.182656880844762
0.185230344636586
0.18403877585017
0.188490226159106
0.180849037421053
0.182809705956856
0.176463539931286
0.182687174683026
0.180585943438422
0.184633217499445
0.178552453662819
0.181235072480924
0.177433515942925
0.186880041002034
0.176841529749928
0.185611225768464
0.1797775120865
0.181880075130689
0.178491516453907
0.180531813757954
0.17716835689466
0.181646186358267
0.176504470021085
0.182112939351189
0.17412109615796
0.178586394731838
0.175776325596738
0.180265544655519
0.177313354690452
0.178828139792208
0.171120920464121
0.176233039904589
0.174757150837761
0.176460537458692
0.171088720059605
0.175798838903508
0.173475448727012
0.175243272992943
0.170945962817775
0.17331611981563
0.167444112150454
0.170021328674733
0.167680531633464
0.172905662332526
0.167009064249132
0.171125163558882
0.165633294732505
0.168447766055491
0.167218149736643
0.169640651279669
0.16524813143789
0.167569829973339
0.163051711056758
0.16817301256078
0.164115349358772
0.165795453811617
0.161406347699204
0.165396594463923
0.16218766795226
0.166793335817014
0.161607005394065
0.162015511439988
0.161086904838798
0.161334459085219
0.162825711631937
0.165872814335987
0.160731534824319
0.161628371193211
0.159809993435144
0.161739214697811
0.159251071544635
0.161394207342345
0.159577976103498
0.163852186976493
0.156559501264102
0.159212830864905
0.156433291880529
0.160260918314155
0.158206067720446
0.160934920814238
0.157497168904227
0.158513003011916
0.153822938559676
0.157157417877514
0.152262466161871
0.158338115313024
0.153992404823031
0.156399509102697
0.151598433512627
0.155150982143473
0.152068994139751
0.156567124930965
0.150151540065754
0.156633188746353
0.152276824622668
0.153200981260265
0.149963345214922
0.152266114710625
0.147278920416169
0.15006057722531
0.151091359099498
0.14902109853371
0.143987051552445
0.14672329411157
0.144763375991702
0.148963280468872
0.145139054038958
0.14781848070384
0.144075332281743
0.14550065446319
0.143179839911355
0.143885380462243
0.139988786897217
0.144604813732215
0.140890047023246
0.141628019708913
0.136613271766722
0.141963795849555
0.137166589743412
0.141781600537237
0.138492018258455
0.138859147337868
0.134909043747267
0.14215280387754
0.13629598789706
0.137785177424282
0.138661621665519
0.138845847987275
0.134280569296264
0.138245987533195
0.134496842727328
0.135014868194964
0.134044418393574
0.136421651502241
0.13369868239154
0.136191102921679
0.12794645305587
0.131038022515676
0.127430113813725
0.134028047904697
0.130151586429615
0.131751075109217
0.12647019792462
0.134623782560321
0.129286581924706
0.131031133042304
0.129630768882494
0.131737703955521
0.126451790409446
0.130616073444556
0.124343214759295
0.12781501580153
0.123870340192919
0.126483643311915
0.120854081889903
0.12842451991822
0.122537439882896
0.127086445360032
0.12155966819204
0.124412382009239
0.121985338067547
0.124022102516048
0.121673727792905
0.124098100517371
0.118101380076071
0.12114784633626
0.117320933722976
0.122878988284799
0.118927457113181
0.120784306066236
0.118744593705945
0.122420336659728
0.117174735799479
0.119357494509014
0.118581126259884
0.118141082860312
0.115160210950396
0.118442206039726
0.115873550000496
0.120225990343484
0.111396685759941
0.115096831288911
0.110078076475787
0.115646310510726
0.113660185622473
0.116390202359909
0.110894876526612
0.115912288081619
0.112806921494284
0.117990234640854
0.114532665430578
0.115276173917741
0.11248500986887
0.114409718310118
0.109807287856169
0.116209590150402
0.113532137949932
0.116008493865809
0.109849987534825
0.117114138480909
0.112803926660058
0.117074176502908
0.110682122479409
0.111598126521992
0.113162472244606
0.117952972400211
0.112621350818377
0.114709694682508
0.110876990384146
0.116480823986869
0.112303409265577
0.113596586460498
0.108800332626006
0.113285089253832
0.10829296968672
0.111972471022157
0.107358148772119
0.112262826534761
0.103986583548631
0.104355099458887
0.103597724784915
0.115737696699111
0.103282873937538
0.110056386148309
0.103037590130769
0.106146309788332
0.100704862946642
0.107141369476771
0.10111383046409
0.113525794339898
0.102543956187843
0.112974928164325
0.104430414645938
0.109703010187285
0.107080134021145
0.110859511202153
0.0995474186462191
0.106693609756632
0.101115388642312
0.109099072164975
0.0934485180707489
0.111960783756009
0.0938175565323573
0.109793582319383
0.091641314196064
0.108070346687114
0.0923183532923286
0.114481083455883
0.0886032577442791
0.112119016820327
0.0872049595430119
0.116803888184458
0.0872863854542311
0.11720048752202
0.0848950560742152
0.127886899220099
0.0826858320406576
0.136771384295459
0.0754435779440836
0.13436295589519
0.0761144441726996
0.136869466940778
0.075815137509454
0.138925264635809
0.0750685620960916
0.139604003958751
0.0774477180762478
0.131567848097396
0.08901867824935
0.124885563079015
0.0934980917440538
0.115376008261408
0.106724191493381
0.103287908358761
0.114453308804013
0.0978296277932531
0.115006870616953
0.0953532233760273
0.115571707528852
0.101451931209371
0.112436036548396
0.106086596842098
0.104895292891637
0.108537551558623
0.0997103311127258
0.108429365338557
0.1020643559164
0.105716588778431
0.101989020334062
0.106552410919537
0.104658382999079
0.100694068160402
0.102544977114345
0.102352946231093
0.105012191617068
0.105328943629667
0.102353319611167
0.107141050258805
0.101611333048106
0.10433678015612
0.100095239903858
0.102535425457995
0.100723820659712
0.102968237780008
0.103800636115498
0.101641602752134
0.101502083282115
0.103684879269006
0.101730940156822
0.104664744795442
0.102297705211732
0.103910350405493
0.10507634488366
0.105403004262225
0.0983878939543018
0.104257048361284
0.102989197453393
0.10358934846562
0.104097044641387
0.106209267701358
0.100231019024943
0.104561746066971
0.103253108461967
0.106491736389164
0.104404732181679
0.10501539729986
0.10348490610002
0.106787961351187
0.105017010463954
0.105031837588991
0.102948433109233
0.1058975206387
0.102527560425875
0.107211750413294
0.107081788660888
0.106169093291585
0.105879867008527
0.103930537418657
0.104792541011008
0.107692522618248
0.105111290373842
0.105735143104656
0.105151172334338
0.107232443216159
0.104278697022076
0.105877148171398
0.103983406653875
0.108508455671273
0.105894325885898
0.109593494396719
0.104001907661894
0.106769860290467
0.106013816791381
0.108248682660403
0.105388994815626
0.109629616066204
0.105287917271239
0.107266035142916
0.104945024958358
0.109418636708544
0.10688150169493
0.109961155177274
0.103949629962155
0.105533491439236
0.10738669055754
0.108308498045968
0.107767869080915
0.109873142092763
0.107330644453753
0.109489213173912
0.109462560694517
0.110049855205148
0.107574937452389
0.107510327282492
0.107833250442205
0.110244615429294
0.106296184637382
0.110113591391433
0.110086339000004
0.111284341724525
0.108402179176692
0.112064063372842
0.108609685826465
0.112474005285707
0.11048083405823
0.113711677420529
0.110877586738201
0.113841904987631
0.11214526706981
0.113455239255102
0.11110079786128
0.114329401496185
0.11085648823648
0.11306069658699
0.111940964196371
0.115298381258685
0.111758691560094
0.111148195701341
0.113155590622787
0.114066410196493
0.11332795366709
0.115539878031576
0.112205062707167
0.115299267559322
0.111026118040755
0.1154579391528
0.11443338871977
0.115080001008856
0.111382061967481
0.114225108481785
0.112942380381021
0.116981630990092
0.113899538982557
0.115691027569437
0.111677832176443
0.117415107560095
0.113537472521637
0.117122856231702
0.112103636935671
0.113604653336847
0.113978681221575
0.117411465049127
0.114290752373329
0.117825103833045
0.117671286247313
0.119950819922558
0.116240537261569
0.120892093315371
0.115097925708086
0.120702533156273
0.117356409365911
0.118252425527924
0.117122581221233
0.12079305225792
0.119613323830056
0.121357662150632
0.11816404214683
0.123307399414863
0.118103003341519
0.119311255060184
0.117006142283117
0.119538707626523
0.118634420306825
0.121871422141858
0.118880427334325
0.120835206697458
0.118076539686023
0.122351941121681
0.118252460089895
0.122502623244434
0.120004727054457
0.120919812928248
0.119656122406413
0.119811971472178
0.118527455559374
0.120817062803105
0.117306124251317
0.118920478643435
0.118384603393966
0.120776611496133
0.117095072917316
0.120403226057207
0.117237058213533
0.11805209019332
0.11681779457442
0.119042585639116
0.115751218508585
0.118637438324307
0.117034056011985
0.117866229891903
0.115812910836349
0.116184285591823
0.113803934665958
0.11635649784722
0.115236516640435
0.117486949254531
0.115188901808859
0.115527228644662
0.116064601850055
0.117415728684603
0.114003654038777
0.116805679362513
0.112711747618246
0.115849610541358
0.115250722433499
0.117832193531871
0.115323571434333
0.117174379865738
0.115351978636457
0.118625385445376
0.112939149052754
0.114189066028931
0.11578909401887
0.115746185501924
0.113921900703886
0.115624190750947
0.110695625544389
0.115172806769232
0.114671362851018
0.11634396742466
0.111485937437381
0.114254099754386
0.111938182749502
0.116242952280143
0.112562569587444
0.114341712788474
0.110945954249333
0.111777604094988
0.112274026483845
0.114827267296798
0.110781913659037
0.113116646804733
0.111018759877069
0.117581887129083
0.110146154871283
0.112023648567367
0.113646423288158
0.111742017277208
0.111007726310857
0.114387627951763
0.110946132257953
0.112959998434689
0.11036696273179
0.112374700384488
0.108388128359814
0.11230102449444
0.110926703030844
0.111653024781598
0.110000416587644
0.113446172566139
0.10760061213519
0.110665634863478
0.108858611930392
0.111370348867912
0.106648769871373
0.110709687783975
0.10757778113164
0.112287252634463
0.108545948411618
0.112264184869128
0.109851742627656
0.113308020098382
0.108170822883441
0.110332744955257
0.108679969754999
0.110520782284002
0.103903791427738
0.110134826509666
0.107125155456014
0.10648486456824
0.105225620625664
0.109192985933344
0.104768673020073
0.11054090937456
0.106131894235264
0.107151721509763
0.104498712340735
0.108407427728076
0.105217997491701
0.10738402113199
0.103893547633021
0.109381596248347
0.105450253356133
0.107565706683961
0.101664750273492
0.107366914156754
0.105592182606816
0.105289893968163
0.1031250978334
0.105561936122399
0.103282601519366
0.103410395265282
0.102257310159128
0.103008367836318
0.10222805614722
0.103647755769425
0.0998213669176413
0.101186645727152
0.100566480903403
0.100148104749209
0.0981129168713789
0.101952880984614
0.0980273453380886
0.102677477498568
0.0981164986627467
0.101609907425464
0.096975880616814
0.0972136910874114
0.0970681775522122
0.098728131759636
0.0983645968162616
0.0964252926176403
0.101587747759234
0.0998631543193066
0.0949752617529082
0.0966722109506296
0.0934580460385533
0.095046419442576
0.0922204314871427
0.0956613689201706
0.0920707217213732
0.094872669012567
0.0949278553523075
0.0930838503678968
0.0883230408825485
0.0901527767063127
0.0922727528887733
0.0928421326401938
0.0893016442890549
0.0904200308762161
0.0889531388525963
0.0924585440506918
0.0869185184953511
0.0888428082420107
0.0889536732084116
0.0889657825153272
0.0888401254534103
0.0893825738945215
0.0929798633838154
0.100299128226177
0.0905418436168337
0.0901961637765705
0.0895236828899075
0.0931480836615375
0.0870727355582997
0.0890831285642978
0.0860687824718325
0.0895589317206596
0.0864597247627046
0.0889336900127614
0.0839845559667675
0.0882242682775799
0.0850739324945151
0.0886186344687315
0.0872014360654298
0.0891862712285377
0.0871772655792718
0.089673304183941
0.0839082883651182
0.0888947602828241
0.0825409728670912
0.0865623263139218
0.0842474996394943
0.087815295912232
0.0829328771130717
0.0926105979331752
0.0863003946473805
0.0880246512861396
0.0835968603079741
0.0866232837322891
0.0832401116697421
0.0858913701585684
0.0819542279274508
0.0847882161163606
0.0816026717894175
0.0846321959587767
0.082665966119125
0.0840700670217072
0.0830109795294127
0.0856930920026687
0.0803937582549478
0.0846996832340121
0.0797187673828177
0.0834263853034868
0.0795322142708651
0.0833803091899193
0.0790777363096697
0.0836680741591145
0.0822497080167573
0.086206320622857
0.0778959275634729
0.0872812417036153
0.099376103380207
0.0832386894964357
0.0818893386097084
0.0810540959931
0.0800711208026127
0.0811586750021677
0.0806571171012942
0.0805800639452448
0.0795068970100021
0.0806277093789508
0.0806065357480451
0.0797447183372491
0.0832742028235699
0.080644296286971
0.0779561161941236
0.0794771386948653
0.0789760051624772
0.0809881915307928
0.083125879038922
0.0813283479739088
0.0802911766314816
0.0931750877750023
0.0833838000278253
0.0810750615208059
0.0822277722377271
0.0759253610777067
0.10221619633221
0.088107605419503
0.0808552069644646
0.080995285197616
0.0775266947389709
0.0799930574785525
0.0810149844100714
0.0797791487932166
0.0797021460285753
0.0861274945724594
0.0765574401085981
0.0854410617575355
0.0783408413442851
0.0799671204383764
0.0776723400426642
0.0805182270022561
0.0764288496968168
0.0795225562170067
0.0776227453066642
0.081550327085655
0.0783352578108541
0.076374249827213
0.078853790795309
0.077214308316062
0.0782745245142594
0.0843680255929765
0.0774739204418263
0.0810492054147755
0.0783429352608289
0.0767927378506171
0.0836621793449822
0.0996852250066062
0.0747314223370739
0.0855877901528741
0.0758279094197698
0.0821620312674061
0.0797550546177593
0.0814839774187623
0.0749129004711138
0.0798574606266422
0.0762955330160712
0.0806735761591114
0.0773332807137432
0.0802727516926232
0.0738400375460336
0.0798548745040076
0.0788185689022985
0.0792561725520063
0.0783890699897079
0.0787755095310224
0.0813075472908605
0.0765443108881337
0.0900749265845233
0.10014477038351
0.0900395069310703
0.0914189857663372
0.0823399571651099
0.0809420354526868
0.0775033994354757
0.0831904528892192
0.0762223113973077
0.0854350831007603
0.0772682717468226
0.0815659109006162
0.076919356393158
0.0815170850398023
0.0767324871120087
0.0804296202388167
0.0756694334696329
0.0789082253385658
0.0766173520843593
0.0824891625870594
0.0729741087911698
0.082786826487037
0.0744949050190734
0.0889820646523723
0.0805240152526977
0.0866462297322187
0.0678572573723974
0.11184753508262
0.098482408670859
0.0845587110547959
0.0855860866397742
0.0788942139674682
0.0816135678234139
0.0780273988365769
0.0793156657207603
0.0859553357661243
0.0804161333010117
0.0818927940777548
0.0805473988715754
0.0849714450626357
0.0805324796104347
0.0783748329731374
0.0865988828492084
0.112453079575989
0.0864575178021259
0.0888365552561025
0.0791623876304646
0.0861799348301085
0.106474848747903
0.0869053794618667
0.089312734808734
0.0867986843233401
0.0828838312012982
0.0835565211033598
0.0813355781281253
0.0838356093371752
0.0886000660688636
0.0881671621331747
0.0811182860526987
0.086793349577582
0.0821467879432677
0.0902027776495985
0.0855274063871478
0.0951418078248261
0.0945140464038646
0.0877435783036897
0.0871456261984996
0.0901916768757825
0.0850445821321812
0.0870875780387729
0.0879487720827409
0.0882628251931128
0.0940669006048747
0.100619039592139
0.0903205645337739
0.103730697762278
0.0956047082705716
0.0879044881099749
0.0924279125019329
0.0940065149005496
0.0986742491322609
0.0858458458073962
0.094832130427153
0.118846575698976
0.100557368171426
0.112933097604985
0.0890702247072478
0.09974932313435
0.0874043101887787
0.0950818630827813
0.0835831932687545
0.110673979813413
0.0919485886988735
0.0988568895094478
0.0874545850826501
0.104147809333435
0.103943591792703
0.100842254799472
0.0962596988109138
0.0966376055727187
0.091352498150693
0.108880928411921
0.0985418682398893
0.0931270698254865
0.127796393120667
0.120416342490776
0.117442985440812
0.106979456901812
0.0953059484171685
0.137952746491261
0.101051462431228
0.107770616682373
0.0990793616566411
0.103790330968055
0.0954970188001392
0.104041947702552
0.129744110435713
0.11126342064687
0.100804937187201
0.110542720621493
0.0976172658343555
0.133705084611779
0.115694320292553
0.111225181732554
0.107913917092942
0.116746175556321
0.0995038906461663
0.153093420548899
0.127381468118601
0.122727911519281
0.137561914269429
0.130206422092718
0.13012400092406
0.125399953564372
0.122009972868256
0.13142186282125
0.139801473583952
0.126763249854538
0.115211238259459
0.141235483973574
0.154268799628535
0.129167737669485
0.135666499062277
0.124669115099062
0.12433878885733
0.159405368785512
0.188325264506564
0.165207943451925
0.140711506247378
0.138763372125747
0.167869306616224
0.145786151176677
0.140829540261237
0.141592689123993
0.142910962834545
0.148620410794954
0.14684562820256
0.163284967708252
0.148519802353137
0.155209346053093
0.152660013725815
0.155215172851922
0.174675305323633
0.21239771864464
0.202091865650652
0.171745096362997
0.195012656140243
0.185048698033221
0.176436622573939
0.175253036122598
0.172586958158218
0.184794947428284
0.178853123457466
0.181190904444756
0.177413529377562
0.205426274515215
0.197118461851128
0.196897109760127
0.217421099696043
0.19497601635004
0.198915990677025
0.193882224748449
0.364383685798385
0.23891926656476
0.231146596652528
0.223886981574949
0.229759606567836
0.30023566488022
0.248657993023453
0.237878189916044
0.243494313246603
0.246193670039104
0.251675474575195
0.268955401617833
0.268944921507235
0.284234410180074
0.279755212087357
0.279467267583661
0.291997617208145
0.371555456364875
0.356302802362936
0.33224479112601
0.310875478042278
0.341159023327143
0.348269781788961
0.336428446093087
0.344900639326655
0.345250139819794
0.353723789744765
0.410323684697443
0.379388440770543
0.380685306278468
0.390389385339808
0.419533470896662
0.391827714816076
0.452339119028102
0.445482178594915
0.42732199107578
0.430400951311471
0.434521243931869
0.447543758858183
0.439381531896912
0.49242642877829
0.486858556122323
0.468723180170929
0.483330906288839
0.483118163173749
0.487113371370617
0.49088143692717
0.498273382432417
0.504743025998265
0.542281255086572
0.533358875183772
0.654585420730338
0.568419863779624
0.522415379501434
0.52255413454144
0.519190857635795
0.579206898830288
0.56006881953663
0.575646918531514
0.563246902548695
0.538580833477623
0.541566423092551
0.537154021576229
0.541875118597745
0.534365905049162
0.548638988984136
0.534698334900454
0.568683104266317
0.552228546568374
0.573622893459681
0.623239195219603
0.548969960506271
0.540169172722198
0.541233205179853
0.529944332750821
0.538995242173695
0.529717097520547
0.526122299347175
0.551009853519722
0.519898512075554
0.513733514436247
0.51126586575105
0.541454757395097
0.551109386528153
0.505452165980765
0.498976270980067
0.493881019549749
0.502956472468608
0.482071902966316
0.48455422971913
0.531817692974376
0.478614126072644
0.468957661832005
0.461597467195387
0.450514718236305
0.449742389522935
0.437301788045362
0.451983086399532
0.445512997727351
0.438635243228987
0.441297963830333
0.436643048069097
0.430758476482816
0.427888451132764
0.428795122515269
0.418965555148998
0.419787444464273
0.421811436266405
0.40397084487193
0.411670525377432
0.404206924339521
0.405602754757318
0.405218594116185
0.40311597831973
0.401405272968985
0.400824568404995
0.400401151286663
0.398557512243001
0.390552767776847
0.397655837503886
0.384580357514853
0.388811310134957
0.384539468670224
0.389724347365182
0.382275814533259
0.381878684813989
0.376275778839542
0.374942887821195
0.382226678368442
0.38252803506618
0.372903915229922
0.374543900473881
0.362473866956883
0.412081861639139
0.405071876030885
0.365975622351498
0.367513582975001
0.362272889788328
0.359196457391704
0.353622997099376
0.396054272078574
0.388899412515064
0.352106936175584
0.353547675354242
0.34370468983472
0.356812755782958
0.354070641629126
0.343769018123521
0.341988824864719
0.330829055906174
0.355303881188189
0.418682451821496
0.386079337930566
0.429463464338412
0.353139482970924
0.325226118056531
0.336852300307678
0.366685602139198
0.328762425867439
0.320909416861548
0.320711009456554
0.345894839804389
0.329810688789236
0.31530831306665
0.317231145672607
0.309577453397604
0.315656285036743
0.341642675117808
0.315205911960671
0.328143837109476
0.347676976582311
0.321369855382595
0.343432075868881
0.379855886681525
0.328381773506544
0.296611672999332
0.295110878819358
0.290299882128467
0.297367424306853
0.340705081423671
0.298106304196624
0.297796156048581
0.284918458552041
0.274270452702846
0.28490411721673
0.300185848839753
0.291084315479575
0.281848218544017
0.303907077687596
0.27817588973472
0.27732005226514
0.298873396288249
0.310269891264936
0.327527493003958
0.27905985191162
0.26232608405026
0.287992090517292
0.310963205075364
0.277362669388834
0.28038954810447
0.260545508535495
0.267486584574984
0.283067333628215
0.262034011409465
0.271434930902332
0.275205213499306
0.277003801735398
0.318386248711193
0.317434775448584
0.306579700445806
0.267808349806188
0.254537974428354
0.254568564719617
0.265318315413139
0.256195824957245
0.254576810403598
0.270800242691858
0.273946731879631
0.256989446575229
0.304093960438222
0.277309604743956
0.264639958240156
0.266175181786551
0.266119862626486
0.277316136566372
0.312362520626476
0.314079465727055
0.299861798133419
0.2852615412
0.304836626173938
0.294680277047074
0.298593499641324
0.297472663383672
0.301137539649797
0.302362556698378
0.317334144259799
0.321778459473114
0.32549307168574
0.332127715046724
0.338050166343733
0.35794223488018
0.377805323267556
0.355362991163803
0.374181507200433
0.402765870132349
0.419480673835261
0.407139797548298
0.390977390528412
0.400072898280503
0.405153597480467
0.411573075756125
0.411394774301844
0.423810835487644
0.457691070495655
0.440741799841721
0.437126886100886
0.444523282264073
0.441855266377962
0.457097128475094
0.482025693888931
0.4924831777515
0.51670831540539
0.538938948291636
0.494904032777907
0.489723952145434
0.479145452958881
0.483766440422873
0.485620573100838
0.475353107971752
0.484793113297765
0.485304289419165
0.509539914530622
0.494255673682628
0.485838288212889
0.491146916465135
0.489678756549609
0.495623884200917
0.503431060064537
0.503855720556379
0.503813347361235
0.514011949186507
0.510407008772686
0.50924618189853
0.570521181615717
0.556310083141798
0.525903013781963
0.533615404967085
0.535032193300952
0.540659162548767
0.540921031023342
0.556544318554825
0.55853786515985
0.549220865576321
0.555687262397199
0.562779038840853
0.556928117412427
0.573495057193843
0.58206541366154
0.574309210325963
0.574203541185624
0.568523448331974
0.572622772091255
0.643865491601517
0.595469713151386
0.595971535966813
0.601289562977139
0.590958064778582
0.589882020955475
0.58861815563067
0.590484223804471
0.597016615928259
0.599545633227132
0.592988054736416
0.58671422252953
0.589495598839503
0.591121349535633
0.589767302975249
0.603577860303218
0.595371484892446
0.587125993842921
0.586347266757616
0.574561498615748
0.587179232258292
0.605523086082558
0.603579259842871
0.585083668008718
0.581210827362434
0.581265928057905
0.594602236636374
0.596731983225707
0.575703645957556
0.574733226497031
0.581922007503183
0.577447379175407
0.580742508108064
0.586368038082617
0.602369559293115
0.595811859781931
0.592065758883664
0.595266239951166
0.593170155508155
0.601024056505311
0.602054163990865
0.610142758420737
0.617004682979151
0.623965017723796
0.622978883113818
0.624630134920277
0.625720322099717
0.639540880843106
0.642429575276319
0.648642061600316
0.632462221849308
0.625625022029056
0.626361821573523
0.626821829350715
0.638118257994476
0.630302243195592
0.621099157198516
0.624775414926774
0.617147690373564
0.615875758710401
0.634306866550824
0.621019909853815
0.608874618417683
0.612047366927983
0.594018056103889
0.597327050746716
0.589207427073691
0.590981826536782
0.586996555343993
0.587624994203659
0.585691984211795
0.583316860673155
0.577815631075932
0.579335107201239
0.573255785593449
0.574899273614567
0.574347782449329
0.577344385577778
0.57676097803474
0.569338341731501
0.564962040030066
0.570855669154503
0.565408406264231
0.568108244978767
0.579091673773977
0.587409415352623
0.579817594497293
0.57164397464738
0.566996671700445
0.570935835098714
0.564653089337214
0.563880064952549
0.562319001568186
0.568112319599635
0.565350969884428
0.558137813380379
0.554454234373952
0.556088381843678
0.555570167042563
0.555441027049046
0.554976661550402
0.554294117758258
0.554312336682558
0.549691627888893
0.548671885169307
0.54978488012847
0.549313490183446
0.550484625111625
0.552216143124089
0.54750726387772
0.549311937063003
0.545580984027174
0.542583969428023
0.541535636825429
0.545923660622986
0.549077761228814
0.543230296451838
0.53995627230733
0.541328477280578
0.539615146178916
0.535086924017194
0.536295829986484
0.535760422161768
0.535080664453871
0.53493110093157
0.529994563824817
0.526864688333614
0.524725370418594
0.521990035639197
0.514593296108508
0.509700098674611
0.508094655083307
0.504550781296038
0.50103331084363
0.497146314442995
0.49394403733183
0.496103435612642
0.487618700602962
0.484116536473714
0.483233020856326
0.478750032481765
0.478390236360012
0.477861408875799
0.473588800739268
0.471064778865135
0.471899156371259
0.469551138759531
0.470191882284347
0.471222175512732
0.472018812164392
0.468525103815354
0.469235186671557
0.469015272266762
0.470860093261061
0.473995889280891
0.474345917925225
0.472264981204149
0.474360544508303
0.478646165203515
0.479925280998499
0.48102630177501
0.481736652506386
0.482365834517877
0.483650755756053
0.487463222672689
0.487629921073952
0.490020826421742
0.490273144903271
0.491673589374258
0.497123352778587
0.495369504503534
0.496789943276958
0.494954722082189
0.494091150162941
0.49473037170354
0.499609759814546
0.495479748442631
0.490602641874449
0.49210091960556
0.493667085225599
0.490682956415564
0.496523014542798
0.492537972346775
0.486740520227696
0.48668000374374
0.487615624701852
0.484518519748226
0.485537259749139
0.482473064263604
0.481142995726334
0.480406435495791
0.477526825549397
0.47523526883263
0.476875560833518
0.475900667123754
0.476116300324452
0.471101569251129
0.472554492592196
0.467492068586268
0.466819366216774
0.464823399357604
0.460478906310227
0.461537893123484
0.462510114267486
0.459195435973324
0.456810033246439
0.456075516492523
0.457268149599736
0.453264256792034
0.449749746859835
0.44956410847782
0.448090920073633
0.443674578672355
0.440360958744369
0.440468530981781
0.437740032046964
0.432838242318154
0.431920264577668
0.428879318616924
0.428095870393216
0.422734312189198
0.422025363063038
0.418323804845561
0.417322817572966
0.412734242617421
0.413395831349455
0.413015154472873
0.409977926965235
0.410280348043305
0.407455240374674
0.41001648224999
0.40680314656956
0.404595496874093
0.408896185440016
0.405112921871342
0.402393719337939
0.401983148046897
0.398519826397598
0.394229525816834
0.392956088995406
0.389357277650631
0.385250209347683
0.379702184980827
0.374733536533053
0.368673885309948
0.363722470546734
0.360003034923835
0.355255168469867
0.352302896954602
0.350205720028126
0.348871751298594
0.351429834233001
0.35098341012573
0.351437076979112
0.357139884635651
0.362490534602015
0.366731640926665
0.374601850979731
0.383454371397231
0.393329845141877
0.408450891628731
0.420056041107352
0.434891412856461
0.449121082342934
0.464960686545259
0.481996274497299
0.495520095699958
0.51424437809147
0.532446011656708
0.550080696552203
0.571558718658485
0.590025029441505
0.602795191193206
0.627457332092463
0.647274346462111
0.668521009016396
0.690104627545344
0.711075455361258
0.735156014525696
0.751985820729267
0.770645390171467
0.787008422639608
0.799784185541853
0.80859992645176
0.822811440317779
0.839766913861158
0.843643517191133
0.854704518741737
0.864675882846709
0.861948223060698
0.857880388518705
0.863328918406687
0.869075159606374
0.860982305112934
0.861884971100503
0.866733075826991
0.85825739164286
0.8506858062946
0.842374568971337
0.846570152845999
0.84223147130252
0.838019812815987
0.834011190977985
0.833710280703275
0.840731063252693
0.839020106858418
0.8393759225338
0.840759155836089
0.8558049368417
0.861330466040326
0.863380188606148
0.869163928032437
0.874484153038383
0.880385545199402
0.892917936868621
0.914484659915234
0.918368982709372
0.931044427286163
0.944655099898326
0.955582008685824
0.973057120476891
0.972161710870758
0.975056949537325
0.991867874355679
0.993433911998125
0.988415335473848
1.00940903989539
1.00361503368401
1.00069958147194
1.01203332240962
1.00574042612133
0.999587412797455
1.00113502102252
1.01099661254596
1.0032745597001
0.992350165414829
0.997271959319747
0.999697684113715
1.01444586887514
1.01766147399478
1.03141192808035
1.05187884836659
1.04486501136329
1.05837901255955
1.07069465187961
1.07782923229873
1.09462474417997
1.10053060976615
1.10594298593761
1.12800050722705
1.14480378460329
1.14014614902356
1.157300755427
1.17999510610563
1.18021171611759
1.2221563076804
1.24987155529329
1.2523784099638
1.275590392699
1.31658991854556
1.3472547288402
1.37739160163645
1.40350044842543
1.4285510131537
1.45129036800073
1.47612752246517
1.50237159884595
1.51452602741817
1.56645258517705
1.60343335208307
1.55946094482937
1.60093859459505
1.59753835154462
1.61682145438225
1.68806537886778
1.63111538910916
1.68222474407947
1.68604133673177
1.59734514173477
1.59970474122028
1.60961449277361
1.61973939161798
1.61560389507745
1.61813067217158
1.56714489688201
1.60446545663796
1.67888120283991
1.60619492803829
1.59556529252836
1.67981489264965
1.68031260577987
1.62700786246158
1.64853439468771
1.64701674224788
1.67136468855215
1.72510119794162
1.73122390840765
1.77160907001766
1.79025300249069
1.82378320899889
1.78318813478019
1.78861198951592
1.89395628876654
1.81730755247762
1.81433660703997
1.97529438590469
1.95211148117383
1.94906190821522
1.87845534080241
1.9167065435672
1.99205336080307
1.92907797389955
2.02250457128725
2.16545397889887
2.28758805807515
2.35380560380701
2.16027730821379
2.14271651874328
2.19662694191566
2.1460345089712
2.1925526136399
2.12882909395664
2.03164636619425
2.18621041068927
2.42236295455602
2.69873239981272
2.1665974308058
2.21767435012732
2.41742898258757
2.19298990931603
2.0156962298791
2.04635808745854
2.16430580606385
2.23986297315576
2.06196997247796
2.10396996716715
2.15494145640745
2.24942403284343
2.23757639088136
2.31650920812463
2.24658383449149
2.09518424280471
2.06904507831447
1.94056859590006
1.78762973176491
1.82227347363383
1.76575904917979
1.76282198061161
1.79619010975771
1.8088283080551
1.74780193579371
1.78778791372523
1.73147700706262
1.67698387783394
1.6894688588668
1.72277458021433
1.75331494040048
1.73185282074513
1.59503329835527
1.61478946864867
1.62043642003698
1.56634404112372
1.51708528925526
1.45733260745381
1.48280166143358
1.4375390257553
1.3716020596975
1.35449132982875
1.32269594557173
1.28308422233955
1.21867816755106
1.16955061051843
1.13099540647829
1.07252607496824
1.03980176854388
1.00353707297776
0.946368459083267
0.903678286051232
0.860329147096889
0.835149903470041
0.795985361564565
0.769200170413839
0.745343178129236
0.716170900182499
0.693986530531669
0.674194531279275
0.661181088190291
0.639090655786556
0.617099130616575
0.609399334816865
0.60002993870221
0.59064219628706
0.576958864265348
0.574233651006369
0.563552324429832
0.561174788172236
0.564016777341607
0.551152078704967
0.543315369785422
0.548920887981692
0.543575080649128
0.549716047871964
0.54548844740153
0.551029766887547
0.551361786953551
0.556404841084614
0.565268871083362
0.561424733144489
0.559292149794199
0.562391753922869
0.559680013510829
0.564688140586536
0.566155925712466
0.561608713635123
0.560853311036529
0.563942949735107
0.566217223571429
0.566699670743548
0.563729837893609
0.562483442538199
0.558253307830869
0.560455854334819
0.565122428428605
0.562716309161389
0.568406357927136
0.570276286112759
0.565328981734425
0.569053655647717
0.577169870295247
0.583571116136441
0.576056537330418
0.576958639331573
0.579505729947885
0.583785719064647
0.577768361952759
0.578901257160969
0.577714239937315
0.575385733280994
0.582314596896309
0.581393936965697
0.577023527212803
0.578555997206114
0.580220212354828
0.572733163000001
0.574796129644372
0.58017755165554
0.569378545989444
0.575902518111675
0.583596766466226
0.582838785601568
0.584631173453835
0.585274400997023
0.58415151598734
0.594689348000232
0.591689770442374
0.601098221614135
0.620798973389622
0.629001636657034
0.642586809835395
0.660693702914649
0.658902737634905
0.680457804204996
0.689097550660349
0.694242288266807
0.689769362961777
0.697163589004711
0.702456832575318
0.692466833053629
0.685904753206717
0.672227705027612
0.675903420877529
0.676904965216205
0.647529649564117
0.646752089994226
0.634404418614427
0.638994533423592
0.633111212805188
0.632004924057083
0.624085653529141
0.637415786875229
0.645384628154839
0.63714249393498
0.634850710063256
0.639832853540762
0.643086925473578
0.639677026066653
0.625743307760165
0.636787827453745
0.628292968924783
0.618394391274489
0.627853584914861
0.631119411198587
0.631636537674304
0.628353659782988
0.620648909786256
0.620377655188437
0.60974721922677
0.618919214663901
0.616399692726788
0.615119886220137
0.616705200358941
0.616816029870245
0.623905181130535
0.622583808290818
0.600298643970123
0.611963215795641
0.602323164675895
0.609139207607771
0.623188648586283
0.62291490039822
0.590819823604036
0.59835206921347
0.605135220616997
0.625602937850495
0.605660596714425
0.600241826641764
0.597226471372848
0.60077728408268
0.601146598852857
0.608115293180415
0.592885840625077
0.594157674057222
0.588731009179813
0.598921195235613
0.599427053884436
0.597683017098581
0.58832586172039
0.592752108410621
0.603731912309095
0.59441375913378
0.594604320903172
0.589263248288814
0.573921206319336
0.571971056304977
0.579214434097768
0.586930994121048
0.577955626804424
0.583340415203957
0.593391721873307
0.582550263548477
0.558933452069731
0.575593936588899
0.593672925840808
0.592692427904112
0.591250835923326
0.606682815648728
0.602514246346231
0.587557575203351
0.604126126431627
0.6043259463481
0.604282693229671
0.625905586195304
0.613799238707701
0.640288723166059
0.617828238539546
0.632007490355024
0.645358743639721
0.652462007914939
0.62747481045119
0.660907486962583
0.658571425443366
0.668460101442254
0.65544353056521
0.662852032983226
0.683326651445054
0.693513504272012
0.696709972733603
0.70940185310966
0.687855400888031
0.712085925649811
0.741062461788086
0.805936189764448
0.788433905190922
0.827515441371825
0.815590491658192
0.788265650449087
0.810335853118535
0.838571406398213
0.869796546992455
0.966232824577957
0.84286416957683
0.909525141808099
0.881943523921954
0.875169649573268
0.885516141965233
0.919369588508071
0.880096986464887
0.957613546020438
0.935095368169663
0.877917775355188
0.92145281857043
0.90016504589565
0.908395819751944
0.941907934033516
0.873321907654113
0.903974409317913
0.856696575344832
0.924215584984173
0.866533740403649
0.919360695257538
0.947634875046978
0.950762487767789
0.870779128207125
0.956147813651535
1.01807027432313
0.972303175701065
0.874873873007629
0.908030571359558
0.85732008250054
0.84774910771436
0.891651018832821
0.916153633457127
0.864246538936594
0.899072271560446
0.841209439908104
0.994592302483067
0.878433834415937
0.90259576686593
0.910917764888365
0.919919805487867
0.848739366273934
0.844088572280163
0.923572330068801
0.944245230792477
0.904999529254998
0.960272624155211
0.856223528678
0.897318464010962
0.871764599420561
0.819238634895883
0.820566444365603
0.883075339372765
0.937574882820382
0.989308347910698
0.8225445607999
0.904412974415094
0.925782845601303
0.894804518645632
0.896872475104066
0.924122591160199
0.936241839305223
0.963106297498058
0.920434590585534
0.954233075918654
0.966483553864892
1.00894014858978
0.902767767025128
0.966013894157101
1.02420511323025
1.09052135639013
0.896730153648854
1.13200097432987
0.979246327657808
1.01846815865296
0.95341695643976
0.927112835729296
1.00619876084433
1.06326922061638
0.951408163232488
1.05015638183079
1.04259311382591
1.16289070855195
1.10157784649571
1.36986345519572
0.999282699270748
1.20419909888249
1.03012161935075
1.36559011733678
1.0343917849038
1.00987518188174
1.0174869504545
1.52551915614058
1.42052786163087
1.34512507692382
1.19532535036557
1.29810136056054
1.04063389987532
1.07317883763523
1.11314216147214
1.03181229405421
0.936307780868803
1.50604941881762
1.19186170720903
1.46387086075704
1.08445968208457
1.13031610392266
0.911087867691328
0.929978726157117
0.94637232421433
1.29186699495874
1.10718994524044
1.35998510514473
1.32547635932934
1.37733802394822
1.07792770894967
1.58691835555075
0.991944353510292
1.02957182002933
0.845410984590183
1.28424491507051
0.950316703188249
1.33508476922237
0.82722960107857
1.21528347461462
1.514832295178
5
0.902847017545244
1.61217767086702
0.94793934686157
0.951913203802386
0.966968786160263
1.23648708638069
0.584114084965075
5
1.04571936811354
5
1.39921925852587
1.38227475997683
0.99227222410721
1.40150698792468
5
5
1.27474289616688
5
0.837394779033071
5
