3596
4000.36533379555
650.420452594757
1
2
2
0.108103600168346
0.0836642314455143
0.104126208602221
0.087270419967025
0.0898333448569021
0.0879390516320257
0.0970291034733217
0.0838076881865078
0.0971690265935557
0.0845613082937902
0.0956476778985654
0.0825538962185953
0.0928362836271689
0.083296915525458
0.104457928272643
0.0792053769051985
0.0958785951548749
0.081608985326079
0.0946382929493267
0.0816690742392683
0.0972050990298717
0.0803998645224596
0.0954627462621849
0.0896870658465549
0.0932559989113276
0.0857049642204204
0.0936818178507819
0.0833457401402971
0.0929803976716714
0.0906927880009613
0.101940523195844
0.0843366700543404
0.0941882320859743
0.0911448281571639
0.0991545855066047
0.0888427103978884
0.093089636318175
0.0826003008011239
0.0988537986171558
0.0889868158089017
0.104092343562964
0.0828403730850226
0.105119970021194
0.0920996541749854
0.0932322556963345
0.0889850615035761
0.096422017057688
0.0813255073095874
0.099504010532117
0.0909851247006643
0.09830617838654
0.0813467760894568
0.10989253774762
0.100244548849527
0.0974290018462499
0.107410758635446
0.110377739307278
0.0824158091576823
0.100243272566066
0.08476057160371
0.113151276913676
0.0930345650883969
0.0935308792712927
0.0921683784726273
0.0924824237094011
0.0869691059585664
0.0867813937277177
0.0925238328243688
0.0869988947043244
0.0939337286476884
0.091143452749097
0.10231839554693
0.110393766713371
0.0870048774489152
0.106114075896911
0.0863110088034008
0.0914106440729063
0.0915003058013743
0.0878377356422034
0.089885710014411
0.103562642890432
0.0901855912099421
0.0907437935301739
0.0796897306713025
0.101085857455002
0.103674787886307
0.0846383594490101
0.0920351407142534
0.109330027348586
0.0967241854979693
0.0944764489169191
0.0831282931904988
0.0900082163338108
0.0865798827288245
0.0941154341765513
0.0872010232082484
0.085354957507372
0.0919057788491574
0.0912977238281217
0.0983836222122939
0.102176012498367
0.0828339875116103
0.141417978314511
0.0701346065038325
0.160148351333886
0.0927798672342704
0.0963653030380002
0.121805988787618
0.100812278022442
0.0918426011021063
0.0853044047543149
0.0898926658519826
0.0896826285525879
0.105948138842545
0.0796105441841868
0.117778438570519
0.123100757801371
0.0958104023390283
0.0974710974464974
0.0942774887768447
0.0762799040734675
0.108501506379359
0.129758371202307
0.0915112298021066
0.111050309505889
0.0786622999320761
0.0951380181353661
0.116260551501155
0.118709430062419
0.0788503425828371
0.0962219488474338
0.0770751370553435
0.0907137317428902
0.0690663689199166
0.137374231219097
0.0814779957397939
0.0996567451329489
0.0723394938651463
0.128492176819976
0.127447302039093
0.10463408358823
0.0822766255250438
0.0803300546478953
0.0858180321514534
0.139923624600022
0.0895414058933923
0.0861502183843343
0.0923190543964154
0.0964485108773032
0.081363358350359
0.0937803367092091
0.0719969990742744
0.108885080094444
0.0998140708808413
0.0648621480382767
0.129865108667401
0.164337878338981
0.0695478531010425
0.164881473372623
0.0709968925048719
0.117735339325458
0.0717020016435699
0.0993726553003186
0.0711799142519436
0.10150415348284
0.0740524273909236
0.0965132615418213
0.108372750445432
0.0958474403754352
0.0829662862532173
0.125227336762522
0.0970031606320747
0.0922424975121916
0.150469632520624
0.0979443121666026
0.0750171900476805
0.121065292141611
0.0873271910948313
0.0917102542161764
0.0871690412163147
0.12359725096065
0.0737836655627532
0.0961547598128279
0.0751552726150336
0.101428176370523
0.0977218367379008
0.0990251628682568
0.0845973025814476
0.0986297378320794
0.063607617179165
0.114195700451635
0.120798601243179
0.122105179886775
0.0746040196327793
0.100448848986247
0.0455760851646928
0.139722882463739
0.11149149565816
0.0992818244520062
0.0908370498534635
0.0880817583722097
0.075311566572547
0.0863556746202293
0.0778806018240762
0.087500280592077
0.0532570735897967
0.149205184842951
0.0851509583945884
0.0974004114671022
0.079012736499038
0.0996617750020955
0.0629122344105688
0.154068860720875
0.10579317392815
0.0910424878514412
0.0890498731269621
0.0910107983169974
0.0929028941167769
0.10429441189528
0.083643742350738
0.0990075650740562
0.0805712381923014
0.0945517001167134
0.0773479360791753
0.0883470335205448
0.0769596251525261
0.0900488261218551
0.0799522668050979
0.0901976197784214
0.0795251558739625
0.104093826008237
0.0827073934469126
0.0889521409817757
0.0844427741567477
0.0831345192560129
0.0944901350128656
0.11260845760224
0.0845834661912214
0.0982174991143821
0.0764045786918137
0.0978185855108883
0.079317218271925
0.0920125339594525
0.0809045650138425
0.0968244406391954
0.0647053683540625
0.137721335338071
0.0753115175780893
0.0989337990857141
0.0685526480705801
0.131657327051731
0.090841805513103
0.0979189909407909
0.0805663266737207
0.0969164055217967
0.0731503467373986
0.09619156404602
0.118926360491084
0.102559310079692
0.0785060193293144
0.112619156290602
0.0993663218630604
0.0910220775071336
0.0903131074312396
0.0870988610389619
0.163136758405187
0.111473271096887
0.0842550460689701
0.167754774998102
0.0998041681669253
0.108557558480152
0.0913900368685399
0.0785327584977012
0.198331363949653
0.145578210006237
0.0905036385310573
0.10049754310394
0.109708900768097
0.0930084960313368
0.0960554449892732
0.105531738356281
0.0972078129861229
0.131860043076244
0.116924236801472
0.182294944429226
0.0733623907931891
0.138940057393768
0.116743035326595
0.107104996873828
0.0909341035661524
0.10220933601189
0.0892650287512775
0.124311125854332
0.119590811398789
0.121373001735868
0.109433273845414
0.0986373253840732
0.13234577090666
0.117831029018925
0.105222250417605
0.116525336922724
0.115550908862345
0.103265338317731
0.11058018827524
0.104005554509997
0.114380580690421
0.104855796249764
0.0935890148929799
0.170711712310051
0.123405594055499
0.110364485088905
0.144664744678738
0.116198280511238
0.114077717435289
0.112202081018296
0.106186406596589
0.117656721727723
0.111344614502724
0.105892108554209
0.143018523301999
0.126309674940039
0.12136430660497
0.125784683656333
0.110236094388461
0.122726593378469
0.119856494813632
0.126137296049128
0.11866078718038
0.12993957131189
0.112976278565557
0.150979415456859
0.166445580475295
0.119255716734308
0.162621510891933
0.171578957629032
0.128648169281265
0.13978247767184
0.131261501161048
0.149957146878622
0.134051544709878
0.161359284812472
0.143664182726918
0.153217025146679
0.156970921436126
0.178901558449512
0.146309606878779
0.169573280564176
0.195546570558556
0.233490956077889
0.171716443498503
0.184482184958622
0.144562811302789
0.216625914491922
0.212124620346741
0.199768061321319
0.215459238855544
0.18249912291787
0.200579631345286
0.193559857827646
0.204049347410901
0.19778197524114
0.203906384902676
0.209268064735742
0.206674957936457
0.212216639097789
0.216441831605001
0.212519134836239
0.219161391700857
0.277309481987832
0.230259601522625
0.233281138521545
0.23961543740964
0.230728040291245
0.278074661020045
0.287088560788456
0.288413977712993
0.301101016987802
0.27673374927922
0.326263289247207
0.257523411910927
0.285066229771271
0.25890722925558
0.28537306084375
0.276669591466497
0.297616588286885
0.272858205517053
0.306033550477273
0.297413286827422
0.31416718848022
0.299660516939604
0.321084041249693
0.300976240277035
0.348758534515569
0.313738770575206
0.341960661762044
0.320357743624649
0.383016877847749
0.376574010779906
0.406416550462623
0.353697585652
0.369828901303384
0.348755929198094
0.366929828513949
0.35657949903946
0.371357526471692
0.384694036104459
0.387125985547083
0.407768485072488
0.419093208480021
0.405979576648905
0.423384739331534
0.373018607076717
0.421717041915935
0.40765862734342
0.426454031981157
0.436956373493613
0.438190787240812
0.399444886924099
0.463576705929573
0.455227399644351
0.450723551792147
0.461494197587005
0.446761766108362
0.423984370819188
0.44913601775368
0.474323236362695
0.464998353092039
0.46334883258018
0.501069180456304
0.477898996618934
0.502611000863426
0.496142000033777
0.511053228716692
0.511551102785384
0.520844798618905
0.495646653881947
0.50761701542965
0.494420344816187
0.529081849105117
0.504555814317055
0.576104566399446
0.538013398030754
0.570675041625613
0.550867594011279
0.572545450690142
0.556570465405707
0.556162795613683
0.541822879447508
0.565313261761607
0.573407432178421
0.598853241166142
0.566787730942274
0.578597172517593
0.590277494484308
0.612141984294111
0.602289048873646
0.608147116851148
0.592652785376237
0.617864514350284
0.607016991444523
0.640686414968955
0.607623920874338
0.691302945881581
0.66385000350956
0.681521392678694
0.672280742949235
0.675854055071645
0.659413122292411
0.670085868254774
0.698966289551581
0.6894766174622
0.675649050030997
0.68892023645862
0.67075380906543
0.703601755304421
0.691307193295909
0.701860817894072
0.684407874785284
0.760596363415777
0.719888361037878
0.742193557718522
0.714228017639887
0.727719137526151
0.731277832657907
0.782061603976679
0.739430678524849
0.749132913703919
0.752648310622912
0.804235754941934
0.751040712080274
0.808025628388693
0.761808612461813
0.797704642822476
0.780373425267707
0.805836952426855
0.785628633530786
0.812270635102616
0.761440877699318
0.793554010029858
0.820156768599848
0.85918691560332
0.830954997543449
0.884020739631912
0.83178971708454
0.868118107264231
0.855258826646627
0.915805152412841
0.891181620630234
0.92537609984181
0.853673055177563
0.881599816422273
0.90452102621502
0.929877800507935
0.90982975907984
0.948019465949139
0.904264359068772
0.922108269469495
0.874830914290492
0.900986702782128
0.944513167032793
0.981722709400024
0.906488253651311
0.950790165649958
0.947925220122041
1.03122308311854
0.968265751971566
0.998098706418631
0.961735302444327
0.956770009179404
0.905449084414643
1.01780169128162
0.968559684420446
0.980033965711777
0.967635301918792
1.01232444427723
0.98334920900613
1.05476554094948
0.986016438727115
1.02572785261989
1.02020765138019
1.14248489714325
1.04039436895281
1.13191335047124
1.08291260529214
1.14088004897631
1.04803048042135
1.13811945125724
1.07095535309152
1.11306379327561
0.999491032829293
1.12275273432299
1.02713079815666
1.0355314505672
1.1313425798982
1.21167628726163
1.10660349600599
1.16411283929967
1.0355458459947
1.16016536412018
1.03973567726942
1.13741170043659
1.10463446615308
1.2054052300223
1.22926157497321
1.20805927882653
1.12641631485991
1.15920927392839
1.11291805751311
1.19265538627044
1.15643947890428
1.24473071539457
1.14546829129922
1.2253497788142
1.21517756882916
1.18510234185091
1.19684156385281
1.24570253566573
1.22962307051245
1.31139310294187
1.20574571563973
1.26458378272768
1.26216048368539
1.35386757820545
1.26913470332455
1.29436829963382
1.18952734049428
1.31719932934624
1.24229131804091
1.35732322783736
1.30969069473707
1.3594348587587
1.18107853903468
1.3214348456385
1.30781381737343
1.35787471960853
1.26151832575327
1.3756095992237
1.2496186167185
1.35391669177834
1.2471067763961
1.27965695220686
1.19077868675697
1.3538602456529
1.33729458614514
1.40699902011556
1.2808038982841
1.32179203930582
1.43182009389592
1.409293644991
1.35734112481507
1.42046506097279
1.3313869736167
1.53722078450823
1.38512113428065
1.33963895275773
1.3861366176168
1.51730877748221
1.42623437325652
1.51651075111291
1.49473458206121
1.37131396906511
1.38619059873826
1.51300362809741
1.44349725923764
1.47798328517883
1.47560624387913
1.56264830616084
1.35392022299526
1.45906874131821
1.45078414195881
1.66385076382466
1.50316515641892
1.40536405833871
1.36835130496586
1.5356752442084
1.4236124434397
1.56164601972976
1.40611781831257
1.46496185743868
1.31035546646554
1.39471093792231
1.51517431259539
1.62882839241181
1.45950075528767
1.56449844002763
1.46238393509835
1.80065144653508
1.52655587881447
1.51654832214602
1.47374558292669
1.46065012378324
1.5885856685553
1.71751373488805
1.37268575992792
1.56103913282128
1.57918420155237
1.56868631511486
1.76908636231137
1.67382863476114
1.4605820038108
1.49936536880203
1.63496886043528
2.00131407789983
1.56634141561633
1.58693805784264
1.5333937321193
1.60813234145712
1.64930299790403
1.63263054098255
1.49912416914957
1.75163973654516
1.73629461148611
1.72044620010923
1.5475309897868
1.54936711724859
1.53307351910517
1.6787585405894
1.68169072162231
1.93738504372851
1.67691125412623
1.90773439977949
1.65366186788703
1.67672977174724
1.57754674336323
1.59026721185753
1.59998555818451
1.62285894396653
1.45871422346705
1.68275292310265
1.66946674016343
1.76410451337382
1.69630920929038
1.70492202329591
1.41800113362222
1.54586913159789
1.62466631107939
1.67906025597327
1.63114664732998
1.67764275758383
1.61937882037804
1.67421922082939
1.59346455182132
1.63909819950223
1.55165870614655
1.51648344394582
1.53644055506906
1.87209718074244
1.77174800026356
1.66342486786177
1.81537754644218
1.80688893249474
1.65262719479584
1.76975665732745
1.62035277150452
1.69235775905956
1.65534458686081
1.69775802367391
1.70836406191442
1.64501375479795
1.89219935481425
1.67455787811417
1.60395768395379
1.85345416300733
1.72656899507484
1.70953515723277
1.71172431380533
2.04176127443264
1.59296697856662
1.6004918101502
1.66505797920068
1.66138388480069
1.9161322949821
1.88794876484046
1.65211444350091
1.69235333079163
1.56335505587728
1.67704889297458
1.61513941294761
1.71063115534439
1.70011513264894
1.92156553025902
1.78566459002042
1.6022876632898
1.65748602398988
1.59599393560736
1.51587611956735
1.65509213347785
1.67852419401748
1.81314978301838
1.72717070898564
1.59914483079332
1.5575714576004
1.78659293461783
1.7024655512542
1.52892756797124
1.59192768731221
1.68613219384917
1.77625783349325
1.99249278983125
1.72052981781162
1.74122260758693
1.68580439843377
1.77579878233508
1.7339397803222
1.71966556517303
1.62619700131105
1.59032635197832
1.52385827474616
1.77787019636634
2.02064689069131
1.79302148226065
1.74881058084412
1.85032983552936
1.62773908266035
1.61148897859632
1.56561584950451
1.63881915938063
1.73214615812273
1.73068124024514
1.62256702459043
1.69060111112652
1.76675498185379
1.60596857632913
1.54165626290252
1.57567346439148
1.64174492187915
1.67009716939482
1.63383462680467
1.75043215812863
1.79788280669633
1.66403528582408
1.49123818351144
1.74460163321597
1.69979394905001
1.62637586113356
1.69413500521573
1.59071609062766
1.51250616263829
1.7224079985685
1.6038086819339
1.63883221987571
1.70139560910963
1.71697869896173
1.66362250908398
1.6112719005658
1.61302050258848
1.50753914262311
1.68744039958573
1.97569915671047
1.6792132309197
1.56382715126252
1.62501607970082
1.83705601311412
1.61256400534955
1.62719444389075
1.69836749556508
1.52654836766358
1.63454448692349
1.66924008527471
1.63156114807262
1.73939219151792
1.6164849719535
1.55860439951477
1.62917776372563
1.56867509110915
1.55909076767287
1.63880699388985
1.5588463257585
1.56609454384972
1.48904029632831
1.61361831233069
1.63760484795984
1.61067014155486
1.61692827500394
1.57981743573609
1.58407853046562
1.55745437359813
1.68045870855067
1.6023106149328
1.51294159973035
1.50527715189877
1.59549856854977
1.60938892663517
1.61753951217721
1.65050796033595
1.69109152043629
1.6410365413182
1.56903451673635
1.68487366431167
1.56485416882124
1.5084682305881
1.55356319297896
1.56319642237021
1.54552438781621
1.5878535833857
1.58977583611769
1.55165900242242
1.51343654857054
1.43269733774098
1.43912524955703
1.61638812780642
1.53669486237927
1.45155273026583
1.55063149795007
1.50378062851345
1.45324563203829
1.46497193985967
1.46278927031402
1.52291533788359
1.48460972745063
1.46234691344821
1.49211001877437
1.48624951817854
1.41174136174993
1.39919966253622
1.36221503189268
1.4240301427939
1.38572667369263
1.37791330332834
1.45158581613129
1.42454896121919
1.35476261431004
1.38615034696575
1.4269689897399
1.35158528944206
1.35051246493784
1.36423008377117
1.35908251455658
1.38591729682208
1.37577183380306
1.35986094922437
1.37389291019307
1.34194816857016
1.35242952348441
1.37049002761266
1.32859630725192
1.32376034813317
1.30895096843319
1.27798074180955
1.27821469549063
1.29025255593387
1.27424801835963
1.26144161992296
1.28476263697133
1.32344255153089
1.27214205389532
1.26428488312368
1.31864890792041
1.26214531480467
1.26341342590582
1.28306989349143
1.24104601327884
1.20056386972511
1.26322341747926
1.29704433360826
1.25365178501277
1.2382988485753
1.18778308778913
1.20089999124518
1.21193164718354
1.20662053648817
1.19585256913463
1.17553532462671
1.16447012022175
1.14299112058921
1.14691393894993
1.15408620077895
1.143639079313
1.13871734301481
1.14044175355848
1.14721243907293
1.11965637272821
1.10048459565915
1.09957739161022
1.10534699970125
1.08316184483193
1.08515721584087
1.09926007502822
1.09262119986907
1.08943385973273
1.07644812504879
1.09234363334381
1.0562430270235
1.01862460085023
1.03031314105251
1.04979879952769
1.04214984893008
1.02967401267107
1.02223992845725
1.00740054737889
1.01543994017631
1.03391339107323
1.03007069475076
1.00764512690294
0.979869377515614
0.995163627276037
0.966067855034236
0.970443160233593
0.973257310062383
0.958285386558891
0.95394762041243
0.958464554640379
0.953520320076765
0.924495845210856
0.909820257971361
0.934833255965419
0.930923601634277
0.90783719538706
0.910856511520047
0.932003495255045
0.916403538766876
0.907570002652201
0.896412391013292
0.887872835005832
0.884703215871874
0.857579645896733
0.857794135155351
0.887203299174268
0.879074087225669
0.84935113649203
0.851911432468553
0.845285423964907
0.835184905893083
0.85721427200187
0.838060550903206
0.816691767379661
0.815600935831935
0.828899656199478
0.808844992919669
0.81562311567731
0.825456204339658
0.800533802539305
0.794058310235828
0.797875175366272
0.795237343002423
0.780662597199521
0.781683177944822
0.79323528602362
0.77747534090967
0.759826826588086
0.758248844603835
0.771059068483318
0.763878699882402
0.755757131677597
0.752770901028275
0.754596808643913
0.733468123996999
0.73577549678588
0.729221564309514
0.732230582632897
0.720133127985917
0.709914406777762
0.721780706523144
0.718387366545557
0.704555838915854
0.7129632369643
0.70706513098061
0.690763946884907
0.67785738154714
0.688445337755707
0.678161900328224
0.670240726634064
0.662393384093921
0.649726556467837
0.66534700067285
0.662271947327053
0.647322107146155
0.654586733314737
0.657344509958419
0.652075540789581
0.64869471309477
0.642145284191925
0.638390335722344
0.647895121745907
0.619003771824904
0.621045305637472
0.622463128239883
0.609991119588442
0.626431099463626
0.623539236466378
0.603976350464235
0.608936875132677
0.600042813064102
0.610201384987967
0.604789644574273
0.597226073779655
0.583527374659197
0.587130925221363
0.593713528607036
0.585316123690229
0.578277162829129
0.584331671715177
0.568065684748035
0.569300033070954
0.558340108509011
0.560760030876497
0.557550970148148
0.55655677833125
0.553879828175405
0.552450192875029
0.55075177918324
0.548219140919918
0.544376485241149
0.54482117505161
0.545020234795206
0.54774126749493
0.535784821341215
0.538129515607232
0.534669284799306
0.538579591727237
0.528647212131462
0.525241311229535
0.527593359516993
0.520353949756435
0.51548129075511
0.517417178678421
0.514447976917119
0.517354940282523
0.515872712550218
0.510015357350653
0.505277796493344
0.518477791213789
0.513495198978173
0.508489213321363
0.507979928136348
0.510598054573589
0.50625055120652
0.50307265249592
0.507237110093284
0.507802389995818
0.500195731599945
0.508964423559983
0.504264563778241
0.49313657208272
0.50295172904
0.515623194603448
0.503358648325591
0.500448773058614
0.497269500617873
0.497820794869281
0.510085103908609
0.509752318034031
0.497961839412397
0.508358411229972
0.49306329100413
0.502726578093079
0.501368172339546
0.487500344962137
0.494217506158456
0.497199232726845
0.50018068001968
0.504551387058826
0.501459289867264
0.492994783259087
0.495801904798627
0.503831317066879
0.496699863345712
0.497323526795486
0.504397770758535
0.502310432075415
0.500160137147585
0.508956497820301
0.504809109345603
0.506046189156067
0.507849835549922
0.513432164538131
0.516069265075652
0.521520791870436
0.516584611133247
0.519724615554394
0.522127826726249
0.520021021623386
0.51721632488772
0.533794719490675
0.533625165000286
0.53609380213184
0.528310866179698
0.535843713138036
0.53092240177321
0.542515839348106
0.541666909442072
0.53301152149429
0.531495077135504
0.533526313466006
0.529752228900874
0.537371783546724
0.539062546610582
0.53681017012665
0.530312906502786
0.534797534949797
0.539073068687654
0.538806275491959
0.528459682388379
0.535092667482075
0.54021271581389
0.531824392036289
0.532444599408363
0.531091555524295
0.518655750267064
0.526460773715412
0.520140780148997
0.520653410765493
0.503086971868461
0.515214448263226
0.51471813185061
0.505361653619169
0.503547903417223
0.510337129508445
0.51136220297885
0.504938947367535
0.499774708092109
0.511414349809339
0.496236206910919
0.496378963580798
0.496249460887386
0.498042466813
0.491993774772829
0.502659681031109
0.493436243882007
0.493620238472367
0.48916649163285
0.489964296976059
0.493626100420556
0.493680769014723
0.486537788554773
0.490206730549319
0.485000047470543
0.484085653206893
0.48587990137683
0.48298262050676
0.48352751751183
0.492697870245608
0.482652355121049
0.478532505979084
0.477522246128042
0.484239612356679
0.474803949300117
0.478934858627139
0.475208001536931
0.474961474940993
0.475580705136207
0.477391578900969
0.471103989804071
0.472640648574667
0.470277395740367
0.469867117808617
0.467810764269085
0.467875978512243
0.461441281588651
0.467460371828485
0.453485328691207
0.452402282915201
0.447120254726812
0.453090508496886
0.439664532171312
0.441883006592297
0.436580749358368
0.437758424421113
0.433883098211616
0.434034297232626
0.42331591349782
0.425344828379542
0.421805847211326
0.423826320887304
0.420595705407672
0.424659272128205
0.410117549499526
0.41438250051466
0.411981764897916
0.408928357683099
0.393348497657942
0.399700954171798
0.400672582436405
0.393998185073328
0.392212071453083
0.397247645990178
0.39077810963273
0.392393840062984
0.381705256734902
0.386735466546924
0.386965909633423
0.380485195355231
0.382364446321155
0.377082764271988
0.367495888276586
0.370529977685182
0.369288316544561
0.370420787335767
0.360698430042977
0.363696996677606
0.358251910251722
0.359545161820738
0.354102963281958
0.355290368602828
0.347073690253102
0.349427364684771
0.348210888759907
0.352771659994667
0.345654988430964
0.353463276379705
0.344486202721391
0.346832811853811
0.339527599276329
0.340050653261577
0.338659981621236
0.337865932719308
0.332336409939196
0.333691043473124
0.325656851500928
0.332194051242154
0.329279098253518
0.329784868620009
0.32224761166374
0.322671526434871
0.321578090493203
0.320985191676635
0.318514058852051
0.320331200259328
0.318257359455778
0.316535869100445
0.311296337989525
0.311608311714758
0.310972243258173
0.307271317595631
0.305674922274066
0.306210706648959
0.301473875515191
0.306496144864861
0.298465297998487
0.302944047597255
0.296346299231687
0.299025207206254
0.291148143939765
0.297965485106124
0.291009339149326
0.295600950346848
0.290289995391983
0.292516332783821
0.291009949461265
0.291456425921786
0.288811468451254
0.287126299200554
0.281975329655331
0.284677569603121
0.284268423960958
0.287071117877205
0.279894759399008
0.280753912249535
0.28042593670371
0.28179951403176
0.277873755487269
0.283080216103155
0.274702025541026
0.276534484064592
0.274144875673161
0.277295668819278
0.273015207349832
0.277130696990236
0.271491162228457
0.271881643365279
0.270508145973777
0.271548887858646
0.269433836334118
0.27233194520573
0.268718823046076
0.26791388412388
0.268071385713486
0.264548330835417
0.259067051760058
0.266618978458731
0.260188901142488
0.264590819770772
0.264223581538622
0.26119499474363
0.258027408152438
0.261937651652791
0.257132311912352
0.255483323759115
0.256784297747257
0.258596591368742
0.252204967427528
0.254614449118455
0.246361748977077
0.253217241361142
0.252491360723052
0.251135388565468
0.246562195815576
0.25330980899451
0.250637983331382
0.250557821779719
0.246289010562772
0.252582951505358
0.247640741363915
0.249722447578078
0.248059754531782
0.243744707063046
0.24061436043778
0.24948842161967
0.242811851397361
0.243461609385399
0.241016583883471
0.241843033859342
0.23701014470195
0.239036965736481
0.239082506690478
0.241819435435197
0.237331014154091
0.241639624056804
0.239680777331513
0.239629973912022
0.237548029933819
0.237574911792843
0.23644223798087
0.240811610513953
0.232913271032828
0.24011656519654
0.232185229363604
0.234190281835045
0.236996530069693
0.232470983049319
0.23094738311103
0.231627285480472
0.22943755970915
0.231747729066943
0.23003856727001
0.231732163786914
0.231127400577529
0.232426348828167
0.227144416229545
0.228474576881852
0.224855353672521
0.226413866453191
0.228272286888011
0.228935425282743
0.224375671327942
0.221090274759408
0.219273360571552
0.222863977959955
0.219953415378256
0.222594693638071
0.217751977555431
0.221431736246733
0.213967426028876
0.216953998801342
0.216958824802848
0.217022953391777
0.213100546813576
0.214335192700044
0.212311244687947
0.214381281290426
0.210168451872962
0.213310428950005
0.213029771893174
0.212622910562418
0.207127354549755
0.210637107108556
0.203574401440121
0.209162739290314
0.20966699875616
0.210885257003317
0.20335359574081
0.205213413636137
0.200826449508854
0.206688698331834
0.201684919131961
0.204852120054978
0.206613834307377
0.208312973690785
0.201021394679993
0.203311202647971
0.201873119868588
0.199360960662581
0.196721805420384
0.202296302919424
0.196057437633285
0.202317437997603
0.195691188781863
0.198202134871142
0.192662229251478
0.197275592723362
0.19157837773506
0.196250526095077
0.190124952257741
0.191511523386859
0.189953510958002
0.191452923591849
0.188411098868774
0.189530284260668
0.183325652565185
0.18968630655269
0.18580372386252
0.187123810609416
0.187046854539445
0.184149022202971
0.181876414753258
0.185654754486556
0.179278169136075
0.18167396331852
0.179647403344904
0.183089914647681
0.175660349899819
0.177195971449237
0.176126154119419
0.179122700476425
0.175976934475157
0.176999937761867
0.171246768502985
0.175532296861304
0.171949630807967
0.172907562074035
0.17029751737896
0.171953086438727
0.168684026715045
0.169163170076357
0.167209502940028
0.17219576793715
0.169122135538951
0.16872018993862
0.16232013159683
0.166540755374066
0.166497883436173
0.166352833713967
0.162932786345533
0.165215505080302
0.163555430251646
0.167936884148609
0.162588266790871
0.166940180665404
0.161538482021823
0.165424173504477
0.160879897077795
0.165892105387478
0.161115206798065
0.160791277215904
0.159124962421651
0.160467104506733
0.157890479027953
0.160115545484198
0.157081559572743
0.161726830194962
0.158783946792959
0.160758909546612
0.158435474273314
0.159765088942292
0.1535956167357
0.156891258578577
0.156250512717952
0.157195585847117
0.153798272148616
0.158118418135107
0.157034167059918
0.154375406060318
0.151164959763557
0.153323803610068
0.153505396792238
0.156105658961925
0.15113462486019
0.154849792291003
0.150124777709588
0.150476300049955
0.147469547189903
0.152355524112264
0.149102632519264
0.151777778718729
0.148900425787707
0.150059577594118
0.149867543266774
0.15242595519948
0.148404969298398
0.150743348384908
0.148051149963188
0.149464290989094
0.146854235906293
0.147559600605547
0.145699609489344
0.149065251871865
0.146949618280695
0.146603087474593
0.147810921137199
0.148901791870482
0.143608899204509
0.146451114816121
0.143198155424096
0.146312544134523
0.14336776612008
0.14823154344396
0.146859725495153
0.145768398107497
0.141625979542556
0.147425228925534
0.140243988113999
0.143302810651086
0.143012003203754
0.145150862755277
0.143292136284803
0.145544016629176
0.142187807567467
0.145653418407242
0.145267873041381
0.148538237908689
0.141708720438702
0.144581248511695
0.143314055562495
0.145193584308423
0.140446596208255
0.144714923182269
0.140766981331331
0.142965352385431
0.140983338278118
0.143526997903435
0.140042243202499
0.14587648496311
0.140618797256245
0.142392744598604
0.139512670100693
0.139371449550896
0.140610001884928
0.142531269428763
0.138450918787837
0.139168256839402
0.137938753776688
0.139240480634961
0.133056626060889
0.138419286746883
0.137634201236128
0.139729784301223
0.136517374287648
0.136928396675278
0.133476817146273
0.135595358481264
0.136338726324916
0.138352646117975
0.13533138762768
0.1395727900763
0.133706740034721
0.138277192459653
0.130262620453436
0.136716965935198
0.135060954797745
0.135084827513054
0.13609450686962
0.135123297322323
0.133556909142912
0.133303858957235
0.132673784685385
0.136851468410976
0.133427448806113
0.136180975753578
0.133454060283295
0.134558224141831
0.132315371548445
0.135891156001412
0.132605087817699
0.137721721224759
0.134000422734611
0.136087226655566
0.13154391099334
0.13541824794615
0.131510868998831
0.134742438032976
0.130939898679755
0.13453171281806
0.13149456919945
0.134272290689717
0.131681080497479
0.132361561112538
0.132266677964356
0.134428935703784
0.126891079708652
0.133215681458387
0.129473071013611
0.133989852695046
0.131229045964008
0.130976243075418
0.127648756324206
0.131802959614291
0.13019308843198
0.130399737778921
0.126514293213995
0.131103256390966
0.124879493958237
0.129547143441139
0.12799051247685
0.128854958817765
0.128373749996525
0.128911848899562
0.12674367864542
0.126185740050373
0.122172229890857
0.127549916182347
0.126215338032725
0.129010800004078
0.125048082843084
0.124421802517078
0.123848280672776
0.128029737787821
0.124548052112221
0.122844367894342
0.122717159336598
0.128944714467121
0.124724856744059
0.122977015451497
0.122191586189218
0.124745311137824
0.122110254423192
0.123162918444226
0.121694176389894
0.122528924939939
0.120848319761
0.125332756399011
0.122125748205765
0.123509326073811
0.119465569978996
0.12557882013681
0.120099706370164
0.121865996655911
0.119739669370883
0.123774542594433
0.119113009971139
0.124235641432053
0.120620012663125
0.121372183000993
0.121723335127106
0.123188708678401
0.11916452405235
0.123773917315069
0.119631901352774
0.122262833549163
0.118967973889756
0.121742839247846
0.1189799679421
0.123207781531287
0.118965782955243
0.121767574258307
0.117152643524106
0.121095514328532
0.117855525028214
0.118933765464
0.113149103237628
0.122204513878611
0.115639927053517
0.119697920457562
0.11683167460036
0.119478572420605
0.118295851569599
0.118715824431721
0.117147494204702
0.120441908401559
0.114538983765813
0.118208410111542
0.115364581073653
0.118573771297681
0.113722704275523
0.114925661759354
0.115237431759584
0.118440824615787
0.115084073161495
0.115201412977786
0.112667778779389
0.118855885959068
0.116811662389311
0.115409271417832
0.114170508242671
0.119338511931304
0.115649895434344
0.117644495477748
0.116062543347576
0.119114430698173
0.116204083083954
0.117664745171151
0.114076344500091
0.119645139243291
0.117426611080796
0.118309214476222
0.114582895695039
0.119040402299654
0.118406658097942
0.121008412216626
0.117469587212035
0.119916122941645
0.117235072754999
0.121184083016158
0.115603756102583
0.119936484149973
0.115334670394053
0.119624851768551
0.116486581237993
0.118160855571973
0.114731868883972
0.120014345284447
0.112616418723304
0.119735303278968
0.113362840285767
0.119677541269312
0.11027317605469
0.110923250026746
0.10804798393225
0.121812461811379
0.111420287249639
0.114650176064011
0.111823465404051
0.116959540625451
0.110252903602041
0.115973962273493
0.106457255336783
0.118887899628928
0.111259341939113
0.121478908080202
0.111812639712636
0.11776676521268
0.116540470388368
0.121802390608477
0.114904611843778
0.116329236793597
0.115421295500606
0.119059538945765
0.111253512098155
0.116347563371738
0.103231345874458
0.118440568772187
0.100426722357395
0.122119572696619
0.107017093103325
0.123911278532413
0.104396318534607
0.123690288743216
0.102599798696547
0.130150523713708
0.0987564328122369
0.131785470807143
0.0978042635415109
0.135543985735078
0.0990290242848988
0.144257791456753
0.0920172901161884
0.146224937846898
0.0918327241867188
0.149127685075106
0.091034969217533
0.153669399782109
0.0901324033969884
0.156741172486547
0.0902305695479277
0.151410791418973
0.0989674295079437
0.148423173502518
0.104616441606018
0.136072234965706
0.116283696967863
0.124369680066803
0.126858858404355
0.117505833708948
0.129121092857423
0.116185498221246
0.131277694124534
0.118944315885186
0.127833516069539
0.120656423760129
0.123255556870557
0.125892750944279
0.117882903714582
0.127854626607749
0.120560324693474
0.127407343366532
0.121849472767267
0.127026065476673
0.121754767265813
0.121843662994859
0.120132133097718
0.121563960655681
0.12447397769305
0.125104425509727
0.119439566362901
0.125751432765926
0.118978674819325
0.12647085396102
0.121983938270495
0.123560630136749
0.121682996931865
0.124222888463799
0.121759989789638
0.126539108601032
0.120925006571729
0.126212528300616
0.123265134968157
0.126695552846494
0.124103459350944
0.125950479595494
0.12785453063185
0.12762942452173
0.122269909027399
0.127909175928788
0.125718683090993
0.127512873589855
0.125926983019046
0.129330384471699
0.124336990859591
0.12967327963155
0.125668962102546
0.131760913199205
0.12729635506281
0.129830722085939
0.128479308058548
0.131991470267998
0.127561275775997
0.13087371188924
0.128180146091184
0.132049013907783
0.127252994145948
0.132498799217071
0.130189488784247
0.133844693140343
0.130899359972283
0.13344857885988
0.129974406288403
0.134300949335325
0.130519484734081
0.132612017028221
0.131047519907735
0.135653575285268
0.129872154552698
0.133665542215562
0.132005461472028
0.132643951018909
0.133249851717868
0.134715934993996
0.132509911429319
0.136283255468801
0.13222568965152
0.136426362325149
0.131231156149248
0.139204287352117
0.13457843770939
0.135059323950541
0.132036406229852
0.138508499662012
0.135556003392314
0.138890262155423
0.132785607294668
0.136966420015082
0.136346383304068
0.138411869386429
0.136681170754777
0.140562332055492
0.134297670627536
0.13913853593969
0.138632408935811
0.13918054732867
0.137795450482564
0.142079057338999
0.139612981974818
0.141480132043944
0.136285890024235
0.143965892206116
0.142111879553061
0.143163265175734
0.141165818733826
0.143911620103957
0.139778791227042
0.144550361615053
0.140911056036444
0.145641465466611
0.142717113816636
0.145174537771825
0.142690261850183
0.1445913634928
0.142493072071205
0.146677155806207
0.142107012647929
0.144351796554666
0.146487078279485
0.148735706956291
0.145512515690652
0.146934448570131
0.143454031663662
0.149233609943227
0.146695188436038
0.150287254254921
0.144968130354806
0.150576224424834
0.146286609075204
0.14811795634657
0.147264778341537
0.151198665296064
0.146164498298993
0.149194421597352
0.145182606606704
0.150550507929384
0.149104949019127
0.147667617710295
0.145958893003785
0.148293713570173
0.149427770396513
0.149915551792345
0.146803994110557
0.150124800896241
0.148100937463129
0.152261175180069
0.151920476237789
0.156311743434934
0.151862486984928
0.153052436171286
0.151284415897236
0.155314429170682
0.152110743080621
0.154605469937839
0.153229144598319
0.155110824038795
0.153822297273103
0.156611508466115
0.151593518705235
0.156101924887813
0.152322327354779
0.158164298036571
0.155182749784047
0.157432249974567
0.155009097244991
0.157413508360855
0.156092814335279
0.157954628735758
0.155252929636834
0.156197352484022
0.155977606499596
0.157324239103103
0.155525566162343
0.160138120237505
0.154356343290751
0.160176280948424
0.155754973730956
0.159384610027173
0.157668505769697
0.158640180527035
0.155776902536124
0.158152680153208
0.153934954680573
0.156452856848455
0.156714907199457
0.160193080993006
0.155857996681753
0.158512847223661
0.156321895669928
0.15869205943276
0.156066258395371
0.160471679330607
0.155547293883496
0.157809633842511
0.156075460935805
0.158739474895788
0.15419085201546
0.158539795055178
0.154079009019045
0.157232780991771
0.155129003514555
0.15696390029718
0.155160332960413
0.156935581228189
0.154819962214085
0.156670614301896
0.153298998645962
0.157216930362895
0.154281982783293
0.157998718803356
0.15699096962928
0.157728844826484
0.155138549951925
0.161204579967448
0.156369365027571
0.158403623332081
0.155053436728213
0.157827479113255
0.154154330665703
0.156453351470168
0.153277572981309
0.155095088743976
0.154127495298214
0.159023572841931
0.154354395432152
0.156655853887268
0.154936979648478
0.15472777056668
0.153097339361423
0.155570483554909
0.151055242720278
0.155739473070016
0.151869962022322
0.157383614580245
0.152884948670344
0.155307674467544
0.152958775127116
0.157633142736776
0.153406079304277
0.155108879492757
0.151409048982611
0.155625578524441
0.150789851293473
0.156063139494467
0.15306648680058
0.155440954675811
0.151522366634569
0.152825832731414
0.149725991379473
0.152945579863575
0.151439449902372
0.154863362617819
0.151895627430613
0.152762135303558
0.150147007799837
0.151542556444856
0.149861546459671
0.152690469089214
0.148062004760926
0.152076917533109
0.149663533813034
0.149259778875942
0.148878103843801
0.149501585279306
0.149066102888272
0.153261035763379
0.144954089203639
0.150613293485005
0.148574328479377
0.150754134773208
0.146373313976101
0.150161518200295
0.142054672640462
0.14601865435751
0.144937948645038
0.150427959208455
0.144470970000633
0.147871512549775
0.146977751772316
0.146013045512236
0.142741709886782
0.145955628680953
0.144571512156793
0.147465134619363
0.143409559437483
0.146654830168103
0.143786672895644
0.147042135829972
0.140840414031625
0.145375000278271
0.143033032080169
0.143046817286016
0.142133971091051
0.143514198154009
0.141226208099267
0.140166967646812
0.138199471621085
0.14103761169721
0.139502135513834
0.141287064167517
0.139323048504908
0.138996301083406
0.13750736255212
0.139644223922029
0.134745953078267
0.13880865813753
0.133852798855671
0.138967256224754
0.131799496377727
0.137777618791432
0.135239027753178
0.136219339744394
0.134085143308921
0.13561012879411
0.13178594485376
0.137727294811385
0.139907187024289
0.132991663628639
0.133132296274377
0.130741885066087
0.1306509967558
0.130419279165864
0.128651503207445
0.132609509000526
0.127105449780565
0.129811466882153
0.130327788454084
0.128563581729496
0.127282904957813
0.128515921602269
0.126176681791195
0.127919696583279
0.125177425591063
0.126686923888153
0.128022878555748
0.126669087790904
0.124744898609149
0.125838035411432
0.124220914198308
0.126757812829214
0.123320803513222
0.124062815166914
0.131746424964707
0.133141304934094
0.124650151821126
0.123368330455868
0.124547452991754
0.128383841353052
0.121114580791939
0.125887776454731
0.121875854189903
0.123927253129702
0.119645619310338
0.122342397611401
0.120414403910954
0.122237805661738
0.117777985224733
0.122137249143201
0.119027084882706
0.121871968472567
0.119323175070456
0.121125850288839
0.118692659931651
0.121166139258977
0.116968415553832
0.118404521633862
0.116451543167447
0.120457038847801
0.115383118492041
0.125887466784281
0.117062727796393
0.121979216005309
0.115945654614513
0.118961461592525
0.114651869439255
0.119598348818134
0.116338239911685
0.115767188115485
0.114858507887594
0.115443860685756
0.112688737212761
0.117108076083467
0.113163376371249
0.114533388497837
0.109204192433409
0.116632071127478
0.110305399024861
0.114017213035076
0.109564757984048
0.113584520168618
0.109357678781903
0.114627741359204
0.110199847939344
0.118641912679848
0.107140115944047
0.116102901648901
0.128736414390862
0.114988687100171
0.113348671770446
0.112146925757884
0.109976982685768
0.110099573239449
0.110378935942693
0.109804423384154
0.110630054878728
0.110969912512423
0.109367798058747
0.110178691970318
0.11042344268082
0.110612655336735
0.108583821997329
0.112148193672789
0.109469008029326
0.107778533620706
0.112943566154604
0.109044834316055
0.111304571568483
0.12376180767923
0.111502975224916
0.110561307702903
0.1091897120015
0.105196245953963
0.129498996567863
0.113673252842491
0.110471280092834
0.109674013864747
0.10730974391497
0.108373740423459
0.109820886193468
0.105379623083477
0.109099504211286
0.114681780031687
0.104570595475713
0.110973497392952
0.106670499366329
0.104989985986333
0.104836024034784
0.107033844755937
0.102701394693448
0.107532302680571
0.105214374333937
0.108570511608847
0.10325122881902
0.1046415607859
0.106283081594488
0.103045980926551
0.106715815129214
0.111470605625434
0.106441506586097
0.106262529764776
0.107224979876897
0.104276648792169
0.110673166449044
0.123392969971711
0.101129320187505
0.107670222468672
0.102162171809709
0.109511303916602
0.105268951274215
0.108300163547821
0.101529219642419
0.106151950412859
0.100922279635711
0.107330957392639
0.103483502442798
0.107989875919034
0.101286824912435
0.106750139390706
0.105411495134995
0.107124390528666
0.105373714870175
0.104929476569823
0.107566500646915
0.103227233318068
0.122879622717124
0.124923225389358
0.116660326460945
0.115443893289466
0.110174139262307
0.1073718453621
0.106087788274512
0.108974854146308
0.103387064913221
0.110538572746387
0.103505214260825
0.107425447079199
0.103384945303824
0.108431475638973
0.104439336510839
0.108036888818213
0.102117638595329
0.107513293828978
0.101786807358409
0.11157981313967
0.0991608164440676
0.110116592029368
0.101304615487669
0.115521770757978
0.107139769442444
0.115439408875008
0.0963951685127102
0.14422057917378
0.124403305889434
0.1117277248621
0.111061783236042
0.104701487072884
0.106774302246669
0.108073593287079
0.107066504056188
0.113540075735152
0.105511857508689
0.109003765287218
0.106786593925314
0.111425873806171
0.108430826283343
0.104833910652827
0.115337798432536
0.139171357151904
0.112298445788418
0.115020007141911
0.105431480160757
0.116659828361374
0.133125511083322
0.11338455060061
0.116068056019672
0.114331488590527
0.11107250732341
0.110030160730052
0.108445936456069
0.113797118388475
0.117333601587423
0.115893049424637
0.110373113843557
0.112624598519976
0.109777780934925
0.119475694591274
0.114302630869348
0.1275772677452
0.123471738211396
0.114714760741707
0.117492175181182
0.117639148837427
0.114317904913807
0.116719668962636
0.115459232484049
0.116794874720051
0.122827866282524
0.130008734821223
0.116616174079257
0.134877532641832
0.124446101097382
0.11948933182016
0.122765531943654
0.124048166905371
0.129053672441312
0.116007491202654
0.130699057893515
0.148796890922966
0.131416023350344
0.14147622470734
0.117084495362525
0.13081170508599
0.118812329912875
0.12771051131451
0.112240421824075
0.145814505922015
0.122205122788294
0.132376442145883
0.116307850756287
0.14056479499825
0.134319897885663
0.13192009731687
0.127395292785934
0.131046175279874
0.124884673086212
0.144240282790338
0.13148917920623
0.127156334126276
0.161487135193924
0.160324631943552
0.152787077252473
0.142274034502138
0.132028535865961
0.173648433409829
0.136882929021375
0.145415706367856
0.132681206068435
0.141866927426782
0.131589725214811
0.144327951736123
0.171683119758856
0.151891782961442
0.14072227596016
0.148561639607584
0.134449930963625
0.172695653777338
0.152246055112021
0.151954582314238
0.148228099971283
0.156768474821514
0.138904966468449
0.199626373353757
0.165266825424762
0.16737887974457
0.179368748493508
0.175326241005355
0.172463549018866
0.168954467040775
0.165077577894099
0.176969338355717
0.184873050177976
0.171228289400344
0.158276462832887
0.191109136218782
0.197282286906275
0.174765541039224
0.183281188921036
0.173620844851722
0.175437848484108
0.21527770427291
0.241034157022055
0.212154566424246
0.191480452651883
0.191989972565404
0.217397108876565
0.197932126211184
0.193284280963743
0.197144430174315
0.195426733314258
0.200840519491844
0.203644806036298
0.223144087985614
0.206355822987534
0.215668985543095
0.209378653877801
0.219950983255717
0.244125842064293
0.280812427171298
0.263081997188542
0.238158194392664
0.273793017103634
0.253707707982346
0.247972619565644
0.247446014831583
0.246481685034603
0.262482725860104
0.260222526103394
0.263907069190842
0.259163366525052
0.292435626465601
0.285160291028847
0.289886041120326
0.308865008287071
0.285119394155367
0.295283322034545
0.288698875540382
0.461823464551019
0.334600267987917
0.334099562161826
0.325861651162113
0.334135894817095
0.41250398110193
0.356904098528588
0.345516145264305
0.358731663347537
0.354122997287469
0.365705270130888
0.381922245691106
0.387504432420318
0.40391777767841
0.400678691683721
0.397479946576856
0.416542736231891
0.484811872410722
0.483659555000014
0.464029571701632
0.438027769484549
0.470921620660579
0.481379879351591
0.468726744183567
0.48109347624729
0.475620214695495
0.488520886925717
0.556128302834855
0.518324358918775
0.520007530587372
0.522234796879408
0.567982961042062
0.526480549723551
0.600693441140701
0.592886550050527
0.57156299589224
0.573519839413075
0.576179360040162
0.593065634692472
0.588452245813181
0.64060399468965
0.639357128229491
0.617731003025489
0.631266266287416
0.637369883429213
0.63703478549795
0.65526808189257
0.657870316900896
0.64978359864944
0.704738089526107
0.712610687610979
0.873115686802686
0.731332416650365
0.700161900720025
0.706029302454333
0.701529230185705
0.748115211711249
0.742022476492068
0.774559795039471
0.756688509968856
0.719077140251734
0.723559929584098
0.714651815609255
0.737254401946326
0.739210197710029
0.753721758844829
0.720859020093271
0.761077163390515
0.748243398549895
0.775539190298455
0.859854574011974
0.738089327008216
0.717152277908738
0.738372292339363
0.725509755974188
0.722185354495432
0.707454481556648
0.718012653633681
0.733673414783077
0.698741995320461
0.696871827891991
0.666244800834593
0.710497467689601
0.721169251196203
0.676632857914462
0.671391506816819
0.654212136529745
0.64751570167574
0.625481210039861
0.638752031409356
0.701277526947063
0.62867393526641
0.609600880783324
0.602373517491475
0.589604309147951
0.586874448262731
0.577628179521568
0.576286646207897
0.568866473563021
0.55525821088904
0.558242025336958
0.54642906967721
0.536895246473024
0.534100811966425
0.529159863355383
0.51768544511743
0.517939529785188
0.509652496840299
0.491460963739061
0.503054080619962
0.486824324296482
0.486672912575452
0.481466923845109
0.480378277065358
0.484785603867439
0.473958482495085
0.464495049479093
0.46618774492512
0.454596047685229
0.459996003181996
0.446447450021262
0.44900618474747
0.437261255672642
0.438870453778743
0.429565894246354
0.428137327732421
0.426388504263903
0.428709092771317
0.422682872904256
0.425798869257971
0.406869946975393
0.414438337184218
0.406868378158837
0.465121870129362
0.441676101154006
0.405415772847781
0.406992962383036
0.401219851817066
0.399021432838222
0.394320152284139
0.428885099910494
0.426977432797509
0.390395750883366
0.389587258774925
0.382415203962307
0.392867701362653
0.390707982614458
0.378748176206249
0.380139061494564
0.371093254552216
0.405247696822344
0.466322679879354
0.434987750727371
0.462581231965544
0.388065193461647
0.362242842966657
0.373356885949523
0.406635717085841
0.363018416313769
0.359816984581861
0.354705902165008
0.383124012445807
0.365951205298035
0.347293903061818
0.345441237174794
0.340096290922746
0.352816855346084
0.372789595786075
0.354682700059064
0.357916968566405
0.382259982363498
0.356630367041945
0.376087924864543
0.411163877352027
0.36481630860695
0.329249576536217
0.326498269572661
0.327336919104009
0.334360178806603
0.372239284147331
0.331637094883275
0.343191103422608
0.319110949414786
0.309585792048404
0.321498043835702
0.339210965831514
0.328318144755001
0.323291469316989
0.34715555031261
0.313074216951716
0.313466637423396
0.335172111350254
0.346042612213321
0.363240263663507
0.319771264154526
0.305421601159739
0.333718817745889
0.351160137216186
0.31639671054402
0.317933022580716
0.296057290844356
0.305386355254544
0.324844575916655
0.301524138995974
0.308607617073559
0.314693146967482
0.320417099300654
0.357483885704407
0.365457777336203
0.347565979327762
0.30878908881031
0.289882115376851
0.29214656667475
0.302301533007293
0.296839814262881
0.29127729721245
0.30970701165549
0.307833320508368
0.296638309221246
0.337483280892465
0.30887292688894
0.297310309323603
0.296610414324507
0.295114661923424
0.307824053105982
0.336433202908369
0.343231658946198
0.326330785433588
0.312288069306056
0.331717005648765
0.313124646859805
0.31789991534697
0.314235524781968
0.319556003600034
0.318613692856219
0.330503272173328
0.332461771529242
0.331236413392754
0.33590447437287
0.343461926803931
0.362085977136322
0.379892547793112
0.355750968499619
0.373696471798036
0.390587096114057
0.409222940481894
0.395115485709223
0.382785374371356
0.387375351477224
0.388721816914672
0.394095644054853
0.400475155682505
0.409023792312119
0.440491829662002
0.418507571167075
0.414033422888403
0.418581227593328
0.420516868995641
0.430429637119631
0.453381819681968
0.455178628755901
0.476220638047426
0.493568036938786
0.457293678101555
0.451263624649598
0.439106693563554
0.445376086891003
0.447315140326428
0.439494929083169
0.442784539943987
0.439399667057308
0.467163589752223
0.449140030469108
0.440695496614511
0.452895502600029
0.444953122416213
0.447220688434509
0.452780367051923
0.451851245986175
0.459512271919257
0.457494664519753
0.456877248452457
0.454723848528091
0.521035102470858
0.491219335653819
0.463689632246439
0.473156420400036
0.472470429204911
0.477408807614374
0.472655839177387
0.490601714240923
0.492551619599723
0.483144110746791
0.487348684770686
0.482017951009804
0.484061959270086
0.500012804836079
0.512903798159432
0.496248403657619
0.491276195671371
0.492891770057842
0.50003285272273
0.558480639973694
0.516610167630589
0.510607513338146
0.508194549347977
0.501011719905007
0.504998332355454
0.49825900506969
0.4993377986317
0.5013633509273
0.504010138915818
0.503734519344927
0.499287072018
0.495793184252712
0.497278482662016
0.495639036326861
0.516489337020536
0.498761525922082
0.488390831343986
0.491629663305131
0.485542433263093
0.483632246271336
0.500015674179421
0.513628519153454
0.49405261978112
0.487360106568278
0.494627070452817
0.501698959747396
0.501050882732027
0.481658597034169
0.480834176197101
0.483472341216245
0.484856579429293
0.48932927443529
0.484659257068562
0.508496918309202
0.499679068429254
0.492529820966522
0.496676502027089
0.498677729661634
0.50630766323906
0.499151209003919
0.505375795466635
0.51520691324842
0.516866844503137
0.525833408630207
0.527112132433604
0.523971856110343
0.535060163482183
0.535015084235466
0.540234324190905
0.528582542152254
0.527100014876244
0.529453973135415
0.531603695927647
0.539785593005279
0.528366628209888
0.525045395084693
0.52458219010209
0.51403833098308
0.524991194644246
0.541443738059442
0.525526904432522
0.525055180343266
0.529092821106341
0.505426949794863
0.515129041649232
0.504188822062437
0.50667116457323
0.505834213154646
0.509414676384052
0.502143048561479
0.499183093655362
0.497364931137294
0.499806463804692
0.495317901123064
0.496541915194272
0.490621128838418
0.496833880723647
0.492979062603573
0.495129875612699
0.490896513505089
0.489688319213587
0.488734073551141
0.490255552761066
0.497119241901648
0.510018496538651
0.499297794191494
0.496480228164443
0.491207131734164
0.493678530823494
0.481908717749766
0.490560503078253
0.486588478023338
0.483938211810598
0.484142159106697
0.482631855024256
0.477962623784601
0.479973152110344
0.477801203078311
0.476961741097239
0.475945060190756
0.474433593669349
0.46999006776912
0.473420966881402
0.471875436849171
0.464095300490767
0.465449898258743
0.471664514000024
0.467579867990472
0.465267643055497
0.466540237482307
0.462693006442623
0.462533050570644
0.463439710874736
0.463622819131305
0.461009030292791
0.455546677754255
0.457850208112574
0.454811291402482
0.459405024716415
0.456960870107028
0.458293266609445
0.454991374726475
0.450535348770276
0.446589748186662
0.450318789864468
0.44976049347155
0.442315164840689
0.447053444339791
0.440320568977653
0.436910024633407
0.437686471350611
0.433184066792069
0.435414176905413
0.426879301486181
0.425916737801037
0.427246162468299
0.424136412477411
0.423491543856712
0.419329676517801
0.422012333117068
0.422365448256962
0.421162130287383
0.420923015599314
0.415041361910553
0.416149336800541
0.415524650671597
0.414516384803244
0.415590371846755
0.414842468781048
0.414267315265228
0.415961873119974
0.414314095523931
0.414849089068519
0.417446617498947
0.418992141903597
0.417512591217387
0.420885545476578
0.420284887071365
0.424506443353301
0.425088383362932
0.42437739864582
0.423949262558329
0.425396617615961
0.427648733701012
0.424045950502078
0.425004482711015
0.429133591514725
0.427686646138544
0.4287391482026
0.4271317422369
0.430217341893338
0.42909569325669
0.433609993890189
0.428432607145986
0.428278573402315
0.428214540252555
0.429409732577007
0.42798443188799
0.427086866307888
0.4253434372991
0.428096665805965
0.428450334982925
0.424355210131994
0.425112247954267
0.424128778343904
0.420188368150745
0.422204220551659
0.419123844173947
0.420990434990602
0.4196700936112
0.418022003725661
0.415593599108084
0.416554689739519
0.413770543521926
0.415762366138429
0.412259925509828
0.413981450750882
0.412725250126227
0.411919713931573
0.41005211486365
0.409894647518648
0.407116188629919
0.403006187680226
0.402690338182946
0.402739091939441
0.40342166468408
0.402845196090604
0.401137181491406
0.398857071027627
0.395588087844572
0.396736622572567
0.38884274174065
0.388290539973928
0.390617145357409
0.388966836217027
0.384707190355372
0.383032149153668
0.380743622339064
0.38377457622341
0.380760142101847
0.381566452446713
0.377586341800145
0.375025339879474
0.374417625186384
0.376662265017121
0.375398452069854
0.375809726858984
0.377455327783847
0.374314876220559
0.375184240737617
0.37452897706737
0.371620704937027
0.374538836652461
0.372987247237563
0.370488722927863
0.367927382790018
0.364415271141418
0.36141904439484
0.360105110320074
0.355628707084483
0.353187232473954
0.351169594779581
0.350156876740958
0.344867868070132
0.338983357081056
0.339359566789957
0.336825670414497
0.334280752769746
0.334628825416152
0.333887956149122
0.33417338701275
0.337217318670165
0.336613048535872
0.337114028341659
0.341517731632766
0.346991817084518
0.34982363425715
0.356806071970949
0.363198122292133
0.369607694444275
0.378372038525923
0.387634478792627
0.400029390301495
0.409944890562988
0.418530776784634
0.433711742412158
0.446660046560618
0.458118038722915
0.47665035597881
0.490205562994838
0.505308172339823
0.520896253918717
0.535927829348526
0.550020075998093
0.57145934130005
0.594878462507938
0.606622587504848
0.623607388669027
0.644932475545035
0.658126828674875
0.679431838196144
0.693256109618848
0.696662053443711
0.705776807420181
0.721472630481508
0.731668264404034
0.73025239573614
0.731068360871179
0.731195709446792
0.730777552047293
0.732100845097001
0.72904452701962
0.722084480839998
0.719714124211557
0.715677023013942
0.710770243665618
0.707615746986415
0.69603659939297
0.690370568352821
0.685869706038487
0.681007906446342
0.677848644204582
0.674750359860293
0.674446355399721
0.675864703045852
0.679924881557952
0.680747921709617
0.677475353283659
0.685223346628685
0.685296858305708
0.68788186550473
0.697405787055719
0.703372048912295
0.716622091763015
0.724002238187198
0.731869313023063
0.740719770060695
0.748823281567236
0.756209856793935
0.761325854452202
0.768029217348206
0.773437996678931
0.778981803624998
0.783707547432922
0.791088293731557
0.795094548769798
0.786952971998255
0.785943048314402
0.795866393018902
0.794548970649756
0.790110015685685
0.794916694387503
0.789853416444383
0.787926583348551
0.791089435512159
0.795643247779238
0.794698092839501
0.804793698151309
0.814903820097797
0.817312344848818
0.816932296987222
0.824787896752378
0.838312581203636
0.835964875805508
0.843687289466335
0.848272582235166
0.855527492494135
0.858177210554719
0.861237718026191
0.876919363320423
0.884848814641088
0.900078505675682
0.908607987756336
0.917172374541621
0.932148713233031
0.953718836663993
0.973457172307424
0.993016073440154
1.02222678740481
1.03472722226426
1.06991516574093
1.1087247252332
1.11299937280147
1.12839247918326
1.14495056050276
1.1549962225538
1.16953245286399
1.17550329226501
1.18563760067545
1.17800004635661
1.18731467464351
1.19401019811474
1.1918463293916
1.19590469730599
1.17830179157382
1.15756587761725
1.15185314785057
1.15828118072042
1.16286016678768
1.15453338379965
1.14485997803595
1.14510800972685
1.14641875004848
1.15869278016039
1.15720544383912
1.1597214485753
1.16426271019266
1.17420216103534
1.17949237881115
1.17574257236302
1.19325667142993
1.20773457117913
1.22747489954899
1.23692191461797
1.23296365116929
1.26271161355132
1.27032708618798
1.26699325372295
1.30849912895287
1.30381246570462
1.30375508175476
1.32844078906621
1.33415751535167
1.35082290983143
1.37936210876779
1.38003776453786
1.38112890717286
1.40114972210729
1.40650909977957
1.39514693983772
1.43338491276058
1.44176492068843
1.47982323407142
1.5092926089263
1.50678345107315
1.47044238965767
1.45780966678583
1.51155453219035
1.49800132395916
1.50238678571753
1.52891421722611
1.52221864992513
1.50382034186995
1.50696854928642
1.55929771285804
1.55757463914437
1.54417272073005
1.5420995725522
1.52758514035815
1.53810678550049
1.55675502045341
1.51519641711406
1.53018197330515
1.48838276792641
1.44168242506002
1.44773994753294
1.4196919981164
1.38904196333328
1.38445582387602
1.35245060926454
1.32829617068305
1.2835064665742
1.26495945417857
1.2667471038902
1.23756826125764
1.20702330358091
1.21301634733663
1.16411266521352
1.14926459240612
1.17928872932664
1.16674955111256
1.14331895079701
1.13540739462469
1.11618438558735
1.11824602016005
1.10200674433149
1.09022947732682
1.08079489058729
1.06609220733616
1.05248753717597
1.01179692217582
0.99776114314726
0.971476844651589
0.950097893577731
0.914904209898031
0.885677562405803
0.875400139546239
0.826755300333033
0.803926799289996
0.780760280902531
0.746390675593754
0.727129938910145
0.707703879362029
0.682978059746277
0.665968798878901
0.644446199712246
0.629135262837398
0.617700590696747
0.594941026887232
0.575969813047539
0.567510340333503
0.561887249113492
0.556205927556128
0.547687058009949
0.538955402244304
0.525721593996617
0.516320319354257
0.513809132363096
0.50787630919882
0.499743455405514
0.50243098766108
0.498708459058327
0.496322206557501
0.497967138158719
0.491540741707391
0.496320727006793
0.497157413958583
0.486477049878676
0.484557503925399
0.488312096253516
0.499637269920994
0.49559031961613
0.498727422851023
0.503516771827391
0.50609985936833
0.509820102506296
0.51159119130662
0.511373127383907
0.514034829474154
0.510932287401429
0.515277460244669
0.521705630024978
0.520625969181122
0.523662630701036
0.534084335754936
0.532319435070293
0.529889444114098
0.530747435137484
0.530145894229208
0.529695216381477
0.538944462963936
0.541811013795247
0.537856817680106
0.544948643470766
0.547132095790319
0.550648367816022
0.556050147778873
0.554394971725233
0.55419672853032
0.561837564515565
0.559809782274302
0.553237810413752
0.56043993309686
0.560122131018371
0.560731051885455
0.559384734480662
0.560967231010619
0.56520478995195
0.554530633874444
0.558731812570641
0.57255791015088
0.561848727752682
0.569791431665493
0.567265344529439
0.563640512894168
0.56504723924438
0.56779576073641
0.572803941578548
0.572878539632952
0.568771521697786
0.571383870028223
0.573426944239691
0.584628432497511
0.577888989234195
0.580962746351428
0.599510500319239
0.61116290642443
0.618410443262568
0.617821924547564
0.623592523067449
0.631301429250049
0.635953194620036
0.648642412266745
0.634835453400352
0.644673963876644
0.644927306537497
0.628915304861652
0.637285806927087
0.643471393718863
0.632735389560353
0.624958476902604
0.61944545045357
0.631112568104546
0.623403867964934
0.625539834394935
0.626043294176397
0.635409266982417
0.625301066021561
0.632747133683168
0.637789991168437
0.638332098181578
0.65258487266455
0.660342832355155
0.653297363070377
0.65496070356941
0.652368400257707
0.665054878506017
0.659810637656341
0.665072673662281
0.67064798517366
0.683463625838085
0.677882897193374
0.685778518519721
0.694213021072806
0.682189263916798
0.678827145100173
0.692903457824939
0.69784481887715
0.705141190646451
0.688837088188648
0.706966209183613
0.712145729010726
0.702121841965742
0.704600686295626
0.716524498817385
0.718229405072345
0.718745747842861
0.713579809406129
0.722969517118009
0.716401792597263
0.708143446786812
0.740704150306172
0.758990708374857
0.735950761762581
0.738599751769583
0.710251803712636
0.723841020456383
0.751558576011202
0.752867738919331
0.735044640057502
0.740907542950943
0.739997303134212
0.757226719629638
0.756228537054399
0.765495403416501
0.761966217826015
0.762097025379136
0.761331106918511
0.751584032573327
0.765799397785461
0.77167392594872
0.755041066904242
0.74510597755404
0.749560237163074
0.7939833093872
0.785305637387917
0.802547557374132
0.794192890001157
0.784071388165592
0.793589610865439
0.826001183397302
0.797076109328653
0.809044799316558
0.799023994442185
0.822075228407537
0.820751755234995
0.805252829213777
0.809959076400636
0.842025605172398
0.830072732354823
0.852528081547562
0.837245036332532
0.839509580322322
0.800493939925629
0.846138204466748
0.870212273492374
0.867687377124288
0.870115161311965
0.883222838259097
0.87558521674097
0.907510206339106
0.858844595764807
0.907424022105025
0.904106096082229
0.897607925016221
0.915687900525952
0.927561032471746
0.952050552553795
0.92163362188644
0.945925831837113
0.989142451433782
0.949514466059486
0.995989408610995
1.02165028519861
1.01105585265134
1.00692486503993
1.05010038323896
1.02325681965499
1.00621615165081
1.00317312488715
1.00230529110913
0.977111603179595
1.07423763048571
0.989037746393563
1.0298283566058
0.988725912975282
1.04205064361445
1.04831174297492
1.06472428528538
1.03386326591402
1.08399658646479
1.07556540221637
1.13180271292003
1.00567635448065
1.13116291124389
1.11621772071735
1.11913402244064
1.03838982872197
1.09659581822363
1.13117077218947
1.13785482377454
1.09411580842421
1.14619519991689
1.17675348182486
1.16663383325021
1.24919666169869
1.11656787607854
1.01530185862064
1.16013271705914
1.07931699375385
1.05884493922982
1.07145405490332
1.13739351080124
1.22822563967421
1.1955710282832
0.987098521077073
1.16602747550891
1.16344778768461
1.16652818583047
1.08371785382199
1.18881657031295
1.2730264914298
1.20675253762165
1.16051621915095
1.18241451385384
1.10675221890442
1.19674065985426
1.16214037627442
1.27399296101295
1.07890601529982
1.12778756509429
1.13853517317387
1.44843975595674
1.53543355017376
1.26583363398593
1.10449299672359
1.33547047907826
1.21767819719507
1.29515899973764
1.10366002859128
1.16589030692413
1.16517923500535
1.2882540411395
1.22261139181274
1.32017008231881
1.17290418058311
1.54889042268339
1.28746712576762
1.36619617453293
1.30178928857875
1.33764649567016
1.02758202748716
1.16849456571075
1.06740334959442
1.55796145857357
1.33871247759328
1.45671918038391
1.14200001057766
1.65561590160482
1.11662153333417
1.39007525397223
1.37953538388184
1.68048741856889
1.42895732729172
1.6581958122972
1.19287383411133
1.46476393884747
1.36917565662942
2.04445313879984
1.22762918795043
1.43069629546005
1.29280806256927
1.34603942322061
1.36307697431828
1.65325468708512
1.80841896005038
5
0.953941126847629
1.88781056117157
1.282938857801
1.50796314427721
1.34080021263979
1.46578200173583
1.17293829816891
5
1.75707704042428
1.29750824192976
1.19997224867852
1.40311277620755
1.24216502772966
5
1.75560617590837
5
1.56125311984675
1.81287757979254
1.14988668606615
0.965703877319207
1.21519618892655
3.15047142997576
5
5
1.23394027399683
1.99118519734544
1.26460981219505
2.57439095918197
5
1.76803227556194
1.91976600080465
1.26287009607362
1.00523860389545
5
1.33211551048061
5
0.88470019572791
5
1.94109562457159
1.00348575927955
0.830682277362998
5
5
1.15390556396653
1.14047265100847
5
0.932321100016507
1.19436723508694
