3596
4000.36533379555
650.420452594757
1
2
2
0.088814019859664
0.079571806671342
0.0885131976578249
0.0823885396639546
0.0895334513248404
0.0766615497225089
0.0893984062746435
0.0695273182152402
0.0942928077733837
0.082839290801625
0.0827757989976753
0.0735766250955756
0.0753956759033227
0.0693059691857885
0.0900674432935297
0.0660007735637894
0.0930618833529708
0.0748852669307509
0.0861535404262943
0.0686650947233177
0.0839442196619428
0.0688819210664337
0.0848112710749508
0.0806442065541403
0.0870977339484679
0.0756664960957682
0.0899500168722424
0.0674580098025387
0.0825841825847225
0.0846993242256411
0.088960220597915
0.067196647708015
0.0856770958422967
0.0803619968111204
0.0917156870080148
0.0767287698621193
0.0781531681328528
0.0704671092637892
0.0833724628182211
0.0739319805898975
0.0941745282658216
0.0703146962893122
0.0942749187457395
0.0741049109813498
0.0910775894687209
0.0744790507058939
0.0896232798066459
0.0683711632552693
0.0851227049704895
0.0771013153165918
0.0953084148225743
0.0749607687139729
0.0973032237830363
0.0880798696345779
0.0856855057071973
0.0859840707570662
0.0939230185942132
0.0785819197910034
0.0906869891285543
0.0712339884886313
0.109540556768095
0.0882375273652254
0.0822552895569272
0.0737116774109832
0.0821456561596595
0.0792715619548733
0.0751349825731431
0.0736926620672633
0.0836661456998899
0.07967985879845
0.0763404861548064
0.091188938340368
0.102594993681359
0.0778915538195335
0.0992525082612316
0.0768199328528908
0.0860752732104261
0.0754320465932523
0.0747401046773884
0.0780885113520734
0.0949979628116247
0.0781502602583584
0.0891776780347787
0.0690182681204616
0.0851663233462173
0.0943446248569986
0.0706216692428505
0.0794796486217317
0.0987465628876579
0.0867985017541077
0.0824573828938307
0.074405843877949
0.0780039051028315
0.076675147955116
0.0799363188208965
0.0741952907129476
0.0711858377532341
0.0749036603521289
0.0799644338237549
0.0850503816642685
0.0970995198146565
0.0760598328805699
0.129311993898302
0.0564116949966212
0.143742993167081
0.077091752810037
0.087786349587408
0.106067117588292
0.0912281383545451
0.0860926031205926
0.0797116274931091
0.0790410796246505
0.0819054023406988
0.0891720457653231
0.0720211202382182
0.101736675935861
0.106256699868247
0.0815291069265962
0.0842546553215055
0.0779724559952752
0.0671486006465355
0.095161298704508
0.110484465286748
0.0811315696676822
0.0977455176161633
0.0751974945345102
0.0821006774413889
0.115922346814202
0.104748089871709
0.0724932869614603
0.0784802581263952
0.0718618404202448
0.071858835114694
0.0696085238370264
0.12532636872259
0.0721212071637271
0.0920380200841201
0.0633397246967075
0.114951597650004
0.111034172592989
0.0933497172004303
0.0777391724177169
0.0762119890398359
0.0761840028983342
0.125805648186527
0.0796953971422097
0.0759103589996412
0.0840715177429077
0.0942234535976822
0.0769225864190116
0.0849459135457238
0.0634331166105388
0.0981963552254286
0.0893135266833993
0.0431482696709689
0.114725736900009
0.139044088466363
0.0812717729759142
0.150985353038282
0.0654155268687237
0.102138273081293
0.0611698595365199
0.0864297533419411
0.0602873794964386
0.0970688691241547
0.0584783072355444
0.0962982685150947
0.0968061826857484
0.0823832204416313
0.0746947707122226
0.122270526823344
0.0883177245585478
0.0771454385769357
0.135869491406221
0.0881914316771448
0.0690826388783935
0.109117441984924
0.085172346741349
0.080746920625894
0.0772614545649467
0.11962547595661
0.0692865988787554
0.0868139987767139
0.0592906527249601
0.0934785416968047
0.0881464649015527
0.0851634789167064
0.0708552170394021
0.0916831287857304
0.0535827713551504
0.104691416770656
0.116393871762781
0.111609597698313
0.0676589904487906
0.0949214704695313
0.0362786125834602
0.144584480788183
0.0936420523189839
0.0818951798570706
0.0736277077233414
0.0801905748684823
0.0690151898431514
0.0768519878880806
0.077882005014929
0.0779073006586234
0.047344529749466
0.138517379596357
0.0690318897210044
0.0944466691590819
0.0682742102173703
0.0908230045401761
0.0536780155641823
0.154000864437076
0.0944876733201476
0.0920635341798367
0.0739581216322258
0.0754210548500141
0.0822996979872674
0.0989849089980101
0.080586442764192
0.0863873250200057
0.0692924371080393
0.0820460062728522
0.069232720852854
0.0789617523584369
0.0742911569952808
0.0823093636243208
0.0711639348447981
0.0869290369435969
0.0749639453570878
0.0956644966258228
0.0729676598366625
0.0844815047394205
0.0785794581309844
0.0666893757860008
0.0852838662920111
0.106932316015508
0.0697671624346354
0.0891994833500089
0.0689659534336787
0.0849619686421996
0.0695695447059562
0.0839465423216442
0.0708544448043817
0.0855172706879006
0.056128569825558
0.129887828569954
0.0685980128825193
0.0953291432083577
0.0539173498498295
0.120477269040621
0.0831704238497159
0.092514201430686
0.067281049781011
0.0901393499327844
0.0627070860916916
0.0941934534669888
0.110269995341611
0.0981360551805749
0.069880547879477
0.107267362950452
0.0765927419241382
0.0841062225170605
0.0746269716344437
0.0744938255159601
0.159661475322828
0.0956394554621104
0.0716908178254233
0.156677356699124
0.085543497018752
0.100214127348547
0.0748956628158923
0.0681329295371493
0.193084199270188
0.141384165486692
0.0772646071663486
0.0904618861500511
0.105230883966899
0.0801596406000142
0.090226491274015
0.096291249635158
0.0931380916377097
0.1105491929488
0.107581365120013
0.160687590854772
0.0529998703372266
0.136743921529876
0.101922494268398
0.100605551015997
0.0740287527407376
0.0916910033851821
0.0736886686918131
0.110607567566901
0.0986802945346489
0.116442857749873
0.0915488885316038
0.0867373211412016
0.112506724736721
0.105409609350308
0.0810197434736736
0.101863309695647
0.0966186039822397
0.0874484892405941
0.0931261473334232
0.0861553485401467
0.0972416386857379
0.0883029607467972
0.0801625140453868
0.153095921437705
0.0923797364747211
0.0963141419439072
0.121127461738981
0.103307556935184
0.0926712034037486
0.0922699659700426
0.0916786751583081
0.0923069450161018
0.0824054505676539
0.0829475856220469
0.117960342278178
0.0988077472580185
0.0957967665774324
0.0923800657732964
0.0822914529094001
0.0990256806470819
0.0943670135070887
0.0950327834020105
0.0926590982365909
0.100143002090989
0.0825402869812263
0.11195508213121
0.122029165801448
0.0781277720194313
0.137563084970582
0.135461367412243
0.0916679737724717
0.10430132162033
0.0895120819414156
0.110116301606716
0.0900183414050267
0.113635905035883
0.0974453700669674
0.106272012868071
0.112331370693341
0.126157225528497
0.100253759633666
0.124372292244283
0.134881405663678
0.189355243810601
0.118189269206585
0.124606961848507
0.0820907016555949
0.16068914338617
0.137209035951501
0.1397974519869
0.145891063125507
0.116430643568603
0.131166126402769
0.121019529597847
0.126253361227622
0.122173541101625
0.133836848993518
0.128117965216633
0.129856596140264
0.126857185573362
0.13865333399407
0.132353274304876
0.131921736758423
0.178773586041327
0.143264281188987
0.143531426523978
0.145933280316358
0.132029760039522
0.181143762845791
0.167680772040037
0.206657548245708
0.19025942996892
0.175165646862066
0.217252545851835
0.149795562924962
0.17280109711863
0.15079363306921
0.174597656251238
0.164720954429686
0.176673471381378
0.158210575679492
0.179289645295145
0.161735697796852
0.190733135823155
0.173654767778819
0.188957814089342
0.172436995309942
0.212378601400436
0.178211489970227
0.208378098114971
0.174107975474978
0.237599762338222
0.247836657467307
0.251592133128499
0.20618176439435
0.226778675084286
0.204667714378656
0.218038999943904
0.208759923616696
0.22455035065867
0.22034914594213
0.234170686540224
0.255827807874776
0.25756302745338
0.239831556023264
0.254186989731903
0.217219768543173
0.273663058459939
0.245741106647092
0.266459313055205
0.262714644764146
0.26530684677506
0.225601466993072
0.297974872264799
0.271198055086106
0.279182534641862
0.2876586970359
0.277533382673828
0.273109958751185
0.275450412356358
0.285355453013253
0.279280408477882
0.288285421240055
0.304955803904616
0.293578754733553
0.31099864022796
0.296712309185014
0.308836488933378
0.309522217066431
0.312083981530618
0.316622082927536
0.335383696474567
0.301391302882666
0.33297399727196
0.311433411669107
0.377029918803322
0.353281739140376
0.367998469309488
0.369203338936743
0.352035642343533
0.354531158915046
0.355414561166216
0.354469155163273
0.36862370120501
0.374310949025771
0.394331251104087
0.366625252883613
0.390333052488875
0.387510074344533
0.393225441789365
0.397356653469641
0.406914447210947
0.379497979969684
0.415022734894109
0.391662309469834
0.436087166954433
0.410077275486082
0.47119596472044
0.452836745891982
0.477482661155188
0.468469065474796
0.458448562517659
0.444846337624257
0.456765297716187
0.425759393394873
0.465983306757875
0.478330036713094
0.480837330532069
0.474296068031782
0.471855410068219
0.463198562760924
0.502517792827777
0.484650032735025
0.513134654640645
0.507306320053389
0.530335281791065
0.48815710226497
0.519964140522432
0.520727292923363
0.522457859306809
0.521482367630104
0.528839195840439
0.532854803372464
0.568131354943429
0.514992042620118
0.568296920040063
0.537171364924614
0.591943751397209
0.565931631687803
0.583738806296755
0.550030285007214
0.608908363641649
0.591490168225326
0.627016817650909
0.57291656172317
0.597967076071863
0.600137899606257
0.622161834381707
0.592055480327187
0.65246785643636
0.615338153856045
0.644731655389877
0.601682107599137
0.647794089266325
0.623460388501223
0.647894448339173
0.663134408212243
0.688160034733952
0.657094607753882
0.677830255775074
0.64912417035463
0.683888211873126
0.701626188716902
0.71024053832325
0.687187475348043
0.702480187894684
0.687427738767337
0.721412376073694
0.696848528909774
0.771346785714148
0.739771082299832
0.776037928132695
0.707365069796287
0.77184038863108
0.733484977526979
0.781269096247237
0.710842095716074
0.768412802396763
0.754006557062743
0.785044389790149
0.75874510685503
0.779997325292994
0.760606819532586
0.828786716713798
0.790061067136814
0.832958018459069
0.76336106081691
0.826996006292217
0.798666237270913
0.858760221008748
0.787818119593645
0.846531259291033
0.839549659546937
0.83156247120683
0.784024285564858
0.879570053816293
0.843898569631727
0.959016916439044
0.860031710950285
0.890779385409125
0.886950081326403
0.888437654908277
0.843088751220444
0.897757329090147
0.877977921292694
0.918729329351414
0.911387496445636
0.960889342784053
0.886293383331295
0.927516070621486
0.877187037284244
0.920234150513725
0.856564923802615
0.911616938509989
0.881485329438688
1.01972061779243
0.943501446122885
0.976453736025363
0.95367278194332
1.02267729041045
0.951346672512322
0.999849474212693
0.935824736005525
0.997289651927338
0.947475220271575
1.00261130714307
0.983663968781383
1.04746958373262
0.96124364903876
1.00797422285653
1.00760536800497
1.06163314555454
1.00482332546275
1.04250097558353
0.988494382252772
1.08440380010081
1.02501809362712
1.03534799740356
1.06900241405347
1.11534556702626
1.03383334830408
1.10427320728143
1.00057174626093
1.11424433098037
1.07221605981174
1.07192152196548
1.04555870699011
1.12123799266977
1.08562617163034
1.12974450765111
1.02538879271412
1.13589028459075
1.13196074031151
1.18191490434874
1.11044490615479
1.14430628188298
1.13928388545705
1.18066656523553
1.12157412239222
1.20805995349712
1.16661004839961
1.06971272783979
1.1036409143416
1.25772611729929
1.20839196701243
1.2025760975996
1.16824137288122
1.24403976803311
1.12387790669078
1.29569838946071
1.1956033895609
1.21893715320635
1.21214587551694
1.22635517458715
1.18847270817116
1.23807465665048
1.14994403746571
1.23546620355746
1.2095982022988
1.21470641854942
1.2476716159396
1.43498429346699
1.24641391219999
1.26679853528776
1.17263678711095
1.2649577574505
1.2137187893622
1.24978149271614
1.21437977713545
1.31271702722313
1.39277804859303
1.46240121900359
1.2627713306391
1.27320653654468
1.19447863594046
1.24042650802285
1.22401748295375
1.36080461397404
1.28524554645759
1.37707193675379
1.36390810055822
1.31697552290771
1.30597296949645
1.54285478400477
1.26219091922096
1.46407756190417
1.30333423614536
1.30752579818974
1.28213529418875
1.34061733856663
1.25935216386849
1.46778922029786
1.24495043001009
1.37684993528865
1.42078407029132
1.44576335039701
1.33148517227314
1.50415388035365
1.46421609147274
1.44167891909468
1.29670088906393
1.31437977284207
1.2592737762429
1.39890383950545
1.34979721542989
1.43262426843913
1.31218942215174
1.40611376719088
1.34972914432376
1.37021567116287
1.3256974107508
1.46468308685549
1.4196386074833
1.39570543608971
1.39441238803795
1.39408079187263
1.30606545017141
1.38921214654614
1.35279168139819
1.51516087486738
1.35960524508679
1.43852774397129
1.43943206342816
1.49192875590467
1.38331672566309
1.42920762274345
1.37799697510176
1.37936833254702
1.40621134169393
1.43285767550732
1.37134267294472
1.40439679058639
1.37770252675077
1.41617512040708
1.34973705203872
1.35777606042602
1.42548620924442
1.59049931868916
1.56949660459143
1.61659838287232
1.43949166892992
1.4676551329186
1.35146321240292
1.42252250227531
1.36341358583054
1.44194035656614
1.4257952803931
1.45327897738258
1.35535257390021
1.56397258372935
1.52106329676287
1.53637087114
1.55340186861555
1.5275319520418
1.44010500892837
1.49206386101941
1.38945597905373
1.39038992467507
1.44785087431301
1.47272980443116
1.35723702289361
1.53298767469483
1.2657252731471
1.41405293886913
1.39518532795801
1.4246854869622
1.37928350600505
1.43777796671346
1.35848433364457
1.36356923350121
1.37495659474317
1.42455132170776
1.39101429036901
1.54479417656866
1.4672585047874
1.49631818567462
1.38525656314349
1.50600556530762
1.44367337236631
1.4563771262487
1.4365470905847
1.50991293405119
1.303124034686
1.32752893338175
1.3848307594491
1.46147752533215
1.41839843512683
1.4500084007821
1.43940555772418
1.40818276381981
1.41265206484356
1.46864756120404
1.43682417629502
1.4352475362077
1.42649016465896
1.51152215566078
1.33905726312537
1.42188256088929
1.42849267234102
1.43261322244505
1.36246732573984
1.45520678814877
1.39934646104934
1.44618865261665
1.38828544174099
1.3728703200828
1.44255914527453
1.37587091403529
1.43730638086917
1.48430144382344
1.47255022103254
1.47679070381175
1.42459633793755
1.35300197680938
1.31890732016397
1.44953470227327
1.40804530766496
1.60157995812995
1.41596599408899
1.32278494171305
1.4148952219263
1.31427536009027
1.2988390352521
1.37539204122972
1.34907799504396
1.43553083483497
1.42548130906657
1.43924651264943
1.40874663940782
1.42624672036345
1.34074329629534
1.38978430303606
1.36380991315205
1.3882257728608
1.31807236630465
1.33832247423088
1.36867289077665
1.3796982376184
1.31199207335928
1.29724567791817
1.29545407258914
1.38566371429771
1.31655838794827
1.33525406874546
1.31120997079124
1.32469617235699
1.2600550508606
1.30115980989171
1.32401018517331
1.30898263886073
1.36009588831248
1.38889735256446
1.34421673230811
1.39893638275856
1.37229660469992
1.33013102638669
1.29100751640657
1.38371938009298
1.33031959777022
1.28366573790342
1.30852225722971
1.3191336852067
1.25716128918943
1.29240073027603
1.2974662713369
1.37509979158257
1.25440392925918
1.2766943815831
1.32686486064778
1.2823487895524
1.26664448886648
1.28847854657547
1.26699213340594
1.22868236023946
1.18618763815324
1.24046802935516
1.23926212081096
1.24337010259914
1.19035707913512
1.22429746658106
1.23821254210389
1.20120888726054
1.1907287027793
1.28797014629846
1.24456876832706
1.24768876275435
1.21077277414205
1.17739947329096
1.13313053256134
1.16577316232202
1.15339655348791
1.18195465968887
1.2057678076112
1.14812647519186
1.16565419304541
1.16061878885195
1.13842958568684
1.17084032870793
1.15284299373557
1.16558123843672
1.12301969449588
1.14991779282459
1.13574796839367
1.11822550174391
1.08747329558492
1.09157971344454
1.09108258773415
1.1624758883009
1.12452805387708
1.11064054709494
1.09718082708369
1.09395195293411
1.08867993724345
1.1197033443892
1.05615474850804
1.05006633324242
1.06869966750444
1.06291998489113
1.03807251842621
1.06054244421078
1.02866933641839
1.04942352560209
1.03609918480065
1.01945019793704
1.00208353819659
1.01174505945284
0.994101461008066
1.01451782096583
1.01727674282316
1.00707702615517
0.973922529779407
1.02271520283553
0.968045820468295
0.969008884174402
0.9779461595701
0.996228538808422
0.973765655614243
0.957987524918982
0.951623418743456
0.960624249561701
0.943538295786641
0.931984306029929
0.919469524946095
0.932895391268235
0.900154791479619
0.914685171231351
0.889061476930538
0.874630692783626
0.910768561108562
0.905005642745087
0.87639005503226
0.898494545178831
0.877600398929337
0.872127756070146
0.896425083702252
0.893768275339934
0.869169978712376
0.883843981178933
0.847037036562628
0.845285597526584
0.849979567232751
0.867946662013457
0.845654302217415
0.837438276403695
0.842336852466498
0.819512916331546
0.809564895806541
0.813342917946759
0.797694989498621
0.815055845174047
0.803107692977194
0.789571249915132
0.792813286354352
0.788758845057874
0.781709991619499
0.789902531094165
0.786753364681278
0.79344282784422
0.776185512406799
0.764878682508156
0.747705747933669
0.755882654597777
0.774094607723073
0.757889378997414
0.736297288661666
0.743147198789775
0.741797186715816
0.753669084914045
0.726959192549956
0.722225497381463
0.72110050279826
0.714702683538795
0.709976851400809
0.707089757484956
0.70062472216756
0.698103859679978
0.702620031957372
0.69264811425137
0.673168740679718
0.690408171946221
0.678982193723865
0.680071803268552
0.672302064633378
0.669766784884315
0.662802242873074
0.665048276016446
0.653784157661818
0.657652813359299
0.657725921204374
0.652178086875001
0.639999539024512
0.638964627678828
0.650127713997798
0.636704306108369
0.614317647879274
0.617804763527252
0.625629419078598
0.632565664807061
0.617698286524205
0.621126745299099
0.608707478252702
0.604800918341377
0.606815595372574
0.608544493656527
0.595436930034088
0.592121759334241
0.601247195682491
0.591521715987116
0.582253538874443
0.586772746564556
0.580571320237408
0.578042129779787
0.57589222261972
0.574956756031679
0.565643597358499
0.565232073702567
0.558693243653485
0.563130059543459
0.553535258995805
0.549753359376358
0.549025826416795
0.549490842058358
0.542989414599798
0.535861334415246
0.539114339513015
0.54660626521271
0.537044662528695
0.533090250553446
0.51745668045878
0.5215636517572
0.519787713328224
0.509336467985994
0.51264625412417
0.510780947119107
0.506983534640596
0.509001494214402
0.511574732089471
0.505851165426946
0.501809645111773
0.500841168299295
0.495329521767157
0.48654047232284
0.487025393504029
0.502868895224436
0.491014542903335
0.484830024466548
0.488526142801926
0.482836522557949
0.476615559965589
0.476252909830452
0.472455727930638
0.471287136322894
0.470867203204107
0.468409298242453
0.461576993802556
0.463075874447859
0.461803312625563
0.459564876851896
0.46091538267184
0.457413414667128
0.455658269841767
0.456569337407732
0.448011046298397
0.453219543655119
0.457315387286999
0.45048544801534
0.449503203511063
0.44730785642699
0.445779323645548
0.448236217134392
0.43748705589483
0.440233851713783
0.440293828969677
0.432203489863991
0.438499944198022
0.440922826624907
0.441421571166972
0.438237809793007
0.432369399629392
0.432138746921279
0.431760905403551
0.436770391721138
0.437773922847492
0.433922331120202
0.4326774358147
0.440373713540731
0.437371172245336
0.435384919847011
0.437271122118391
0.432732390811699
0.440634725586884
0.438561511159414
0.432239295018338
0.443462295348555
0.44040650331589
0.438816629010069
0.445740780600748
0.446004741495323
0.444934060425082
0.450284951777254
0.449203786938988
0.449195093371317
0.445814102864788
0.448515870588033
0.447253966343652
0.452469954937521
0.45960614261112
0.455720841766632
0.461587095561856
0.45810611780665
0.457636603902792
0.464312926575513
0.464179296811983
0.465164916393686
0.473352784887457
0.476935344440751
0.477258880286173
0.47987830337992
0.476707541149443
0.475969019531259
0.48185478033701
0.479968768457791
0.482622701118224
0.491432222127957
0.490585296348589
0.493816083819754
0.502070346011958
0.500354065063948
0.50332058289994
0.513654314914225
0.518732722681692
0.523365642363969
0.523501525571217
0.529060239743277
0.522590384969664
0.526091077524925
0.54322560390765
0.546708588225503
0.546228186132104
0.549740851238219
0.565669851066675
0.567200346747723
0.573729894229625
0.574149206932839
0.576910032843024
0.575955783849493
0.581599370100145
0.587455713191234
0.586513697070417
0.579647094449153
0.582107871547371
0.595788464157399
0.602543609053926
0.599157035307224
0.597590689938227
0.593007370608467
0.603210810092751
0.597944942458135
0.59314022143412
0.595620665059712
0.589395101124655
0.594892297661404
0.59229165976014
0.587794962420148
0.593056050385919
0.585478782516735
0.580251605776252
0.578772366337163
0.580579441350758
0.572635967207446
0.575662205528977
0.580141353013474
0.577243119306848
0.57214968609783
0.568723500265388
0.565142065484275
0.567917298790761
0.564590275261345
0.56251876693402
0.568574164537954
0.578045337740394
0.567468211055647
0.561395719891346
0.569453496387792
0.566387239001881
0.555661991613694
0.55442364240485
0.552357106179707
0.557302708477242
0.568363761700744
0.559941230252941
0.55532983219601
0.560756215685463
0.563165199206375
0.563340242446761
0.554548187710371
0.553449426232881
0.555113206780457
0.559378443126991
0.547030971980671
0.551374057882121
0.552178745985873
0.547488080230496
0.538180581176377
0.543965464127072
0.541692359284887
0.53946753350996
0.537379866836377
0.532660216836783
0.538549730319588
0.535625086875369
0.524317019584023
0.523402603782088
0.52144128623458
0.522174302614002
0.513536616438625
0.513330734993798
0.511559608853065
0.514218167391789
0.504778425778081
0.504038654259126
0.503821025993812
0.488055169437781
0.489940452803761
0.490201205191841
0.47517035766307
0.482406904734404
0.478122177114842
0.47224632979798
0.46639216502448
0.465677736980208
0.46155263959756
0.467567254479259
0.459902747262956
0.455834045533368
0.451837583440099
0.442015575346687
0.443928624903466
0.445446074134047
0.438002869957465
0.429399991691888
0.427851125891143
0.438893770157929
0.432289810562758
0.425361213585739
0.431312129373094
0.422423394980554
0.414677832746817
0.420095489831014
0.416111293770494
0.413437003052699
0.407842522674903
0.405859937223493
0.410169532022754
0.403269703090987
0.401040704824023
0.403309983102239
0.39589611739063
0.393910117338561
0.392944309240489
0.391248224112427
0.386269721123073
0.392239879865333
0.388422215366057
0.387329152163017
0.386000301652376
0.387706210486408
0.388350649436151
0.380384638317842
0.37862001212386
0.373012006298706
0.369418878531438
0.369623118985296
0.370393324445302
0.372969573890791
0.369523280768091
0.369725814813102
0.362611374383634
0.367585750607875
0.363778897971749
0.366257365618303
0.358881400044244
0.354577506898286
0.355718043567899
0.355060901421678
0.350815913853518
0.350077911999101
0.346198976413916
0.34836436694543
0.341884766030553
0.345467153079899
0.339204861788988
0.339547483941491
0.337524103246614
0.339616564706742
0.33809420114772
0.336560419353423
0.335205408943463
0.340728974251555
0.337734692235435
0.334906720823356
0.330515392960358
0.332751194343858
0.331659575695278
0.332541734498176
0.330612633827157
0.324762144406431
0.32509083897179
0.326773477618717
0.322678084680976
0.32579087208974
0.319151491582306
0.322228177771585
0.319036247281128
0.320323716061137
0.324103716048223
0.318243732276301
0.317916063281808
0.321048550111782
0.316406840951103
0.312983296420465
0.314197871320664
0.31774945691219
0.313443424614363
0.312890211113008
0.311462898425905
0.314168939643534
0.312350582374569
0.317025732354475
0.309838252020438
0.307709698243955
0.304315871566953
0.307407924824763
0.305956082860675
0.308809911980528
0.307476504570262
0.307669333685662
0.302525566410704
0.302788838338062
0.302412280218315
0.305392208504274
0.303299201684796
0.298260407001767
0.298079620003498
0.30151426123095
0.301285222527109
0.298523344529058
0.297959754722214
0.298817519404555
0.294959377203892
0.300637756443084
0.294127348231123
0.298190279247417
0.291519146714011
0.291590601325008
0.293850447933849
0.293138800518855
0.288244592638103
0.291299039961959
0.290958467759521
0.290479359891181
0.285809196807852
0.293687033489933
0.289973023744673
0.287679730186545
0.291353475977344
0.292119283751087
0.28508652584657
0.290935353604371
0.289379990106712
0.28438782294317
0.281907487835929
0.287198807791074
0.285075805324785
0.284138985783934
0.286169718650881
0.285800458796237
0.278532640469778
0.287996863008323
0.286623243611318
0.286595065740326
0.281394903445381
0.281856982210933
0.28439376369358
0.280192433724728
0.279675566438158
0.280648661094896
0.276792341587384
0.277660479659763
0.273521865436396
0.282765675829559
0.277606586606733
0.275786568018586
0.27089608629986
0.278617244309505
0.278937361665378
0.279711811002432
0.276929531243343
0.276190044881715
0.27346348493581
0.271649114565374
0.266542976819393
0.273492708164636
0.27015766803523
0.269921507151101
0.267245635523307
0.269376391022664
0.265007957513425
0.266662522820953
0.266358679118134
0.266491736156138
0.264873994050855
0.262839548109302
0.263055864765597
0.262955342615712
0.258588103379335
0.263314163227813
0.257173642451996
0.262385927171051
0.257107344690254
0.258789000900768
0.259760916499623
0.259708841787881
0.25709211163185
0.260200285217162
0.255819396443906
0.253559706066079
0.25643111728306
0.257220086448098
0.25135627081403
0.256226581274715
0.258113657460204
0.257532643093232
0.251233786923751
0.253368080308819
0.253335617243349
0.252732026422328
0.248005878882311
0.248998732742544
0.246286851040527
0.245316741955705
0.2441748508892
0.249575035466894
0.244711324942921
0.248377992768734
0.243224558609752
0.241947033402037
0.237505625675093
0.243173019964926
0.244681128248787
0.243667778735635
0.240192631723918
0.241053922562704
0.238077345043018
0.238431420765639
0.232500839031901
0.235803169888144
0.234002666219705
0.232830696150023
0.235487140341404
0.235691241276701
0.230968800752208
0.231537092421975
0.22861809865224
0.232797361619796
0.22806652686789
0.227773296337897
0.228767651664741
0.227833336315007
0.226571639441169
0.224172636684876
0.221697522366044
0.224599034188789
0.222085787861876
0.221277021720831
0.218897176338109
0.221001508890438
0.216960479347539
0.217973149165338
0.218977045212105
0.218528157457786
0.213017447606446
0.217866189413346
0.211795842298492
0.212093989817934
0.214651139648856
0.213484093731674
0.209217965577729
0.213887279739069
0.209622670651333
0.211010242280448
0.209984621459575
0.211178315967439
0.210413838291968
0.210225712979228
0.207113416260216
0.212234054327121
0.205538610124628
0.206968328751673
0.205847926082412
0.207658048676836
0.205210167087681
0.205683566249021
0.205715574182298
0.206396235479397
0.201584744407911
0.205945425490675
0.197966407349901
0.2007892189734
0.200379945248581
0.202712347587286
0.199898858449285
0.201583562196261
0.1985604213376
0.198267265526419
0.19629859288388
0.198299495097816
0.195491373269431
0.197765633606884
0.192184327801439
0.196783411367668
0.19557601505898
0.198450108269906
0.19451474008876
0.193088831612983
0.190225191724476
0.194780441635169
0.192849509140229
0.190838733705932
0.189810569249372
0.187515972813381
0.191564442213116
0.192875951349215
0.188346944019885
0.192270377477314
0.188568581724224
0.189671142910121
0.186841695755362
0.190297778137034
0.187358490321373
0.18826916967005
0.186849671353497
0.186584004553147
0.187486446979895
0.188062018198254
0.185505931562527
0.18470451029274
0.180744185531826
0.18389660134078
0.183004373973474
0.184108942755615
0.18237602745618
0.183955779252231
0.179461300745621
0.184818904093917
0.181972745074814
0.186338623771641
0.180148371865472
0.181314520559846
0.183493758260469
0.181973981020187
0.181188457555264
0.181636007681424
0.17802121530408
0.182627920741422
0.180210199961087
0.180484605812722
0.176703591145677
0.179137554864496
0.176186432241236
0.181203425798997
0.174732136663553
0.178200869833801
0.178025421744013
0.178920588184167
0.175626058258995
0.179130180481536
0.173309753970415
0.175176951803574
0.17244415044199
0.174052959985835
0.171685114863822
0.172594339832117
0.171561419164377
0.172956311141702
0.167270377108488
0.168692075052474
0.170742042399087
0.173635424795753
0.169461313163827
0.173872043744014
0.168850526860139
0.171004182771547
0.165572542044033
0.16904676704768
0.165427303433413
0.169566737357829
0.166513613249785
0.169828669568111
0.16517470964693
0.167173884088717
0.165636576046631
0.167707623702088
0.165429710259042
0.16569924831552
0.166421417139339
0.165190888022063
0.162454744371124
0.16749177757069
0.162508236823621
0.163045148896328
0.163326607357506
0.166176469267137
0.16390335720403
0.164166821447605
0.164586787364508
0.166138355114417
0.160303593694173
0.161084520462747
0.160613101289417
0.16616460731588
0.162274712632449
0.165047502590269
0.159438911213349
0.163383514808027
0.160777732327184
0.162872235938923
0.158249455268887
0.159325335504084
0.157206898487062
0.158796530264539
0.159078245484485
0.159203767646444
0.154832730259336
0.157901013825515
0.156150091150764
0.158788388504305
0.153493082987079
0.156416435638591
0.152971054002955
0.157809592055413
0.154449547906193
0.155152975334068
0.152077586486336
0.152617511891054
0.150914251866126
0.153823857517997
0.151751005959288
0.15219399019253
0.15083566219389
0.153311953023368
0.14986303306532
0.15010024339644
0.146283506297529
0.149517326034274
0.147148181508983
0.147666765530647
0.146392313771803
0.147307281227766
0.143688402469476
0.147478721405001
0.144128460059461
0.145608745040171
0.142250654474814
0.147468030060427
0.143034891093148
0.14235259535967
0.14136128354015
0.142983304236832
0.140828010018627
0.148057847345637
0.139570126575484
0.140197622292788
0.139574211498758
0.140388776310107
0.13969180175953
0.140887547553952
0.141560980025423
0.140408780905449
0.135175611371209
0.137405124811679
0.135961749528449
0.138459233827226
0.132701762490122
0.139291405712648
0.135405326461174
0.136225058276445
0.133989700670781
0.137542505455707
0.134595568075832
0.132723365744469
0.133127112406498
0.134513118556778
0.131689941328079
0.134175477678658
0.130357130355987
0.132416177344181
0.13099636237737
0.135266831463052
0.129453839770498
0.130862620467018
0.129471430573369
0.129119449309457
0.128455494145353
0.129222950972589
0.126035987144539
0.129151091970117
0.124114139218296
0.127122214746456
0.124933422393092
0.1273491098297
0.124085017441886
0.125088154290332
0.121295743552301
0.126561918322402
0.123882763830167
0.126605483636192
0.119078380265299
0.12098001841014
0.120783128919132
0.123980101330891
0.118511459748215
0.120576934308946
0.11972606446852
0.12074325138135
0.120871441916019
0.119972576771339
0.119574495368695
0.123550680694821
0.119228640660918
0.123388263135296
0.118852197016749
0.12134486358829
0.119707532585479
0.123161958142504
0.119133521400172
0.121698382981364
0.119350338674948
0.119387801300427
0.116028592230828
0.118950011163245
0.118218949347342
0.119945923553562
0.119383807370382
0.118517207462793
0.116477935425313
0.120715016076399
0.115721718804721
0.117526173912622
0.117985227229935
0.121703016502191
0.116935667862684
0.118286668532207
0.113496791475784
0.11945775618815
0.1101878905079
0.113265674406806
0.114023401609223
0.11614030282856
0.109546732972808
0.110934215028481
0.106476444414012
0.116652731785392
0.106746953840136
0.1098467210331
0.10822824875028
0.108551555091235
0.104194181879265
0.111245811986493
0.102782613565841
0.112593769538021
0.108694210320365
0.111510385270878
0.109361497348392
0.112345660010414
0.1122664012035
0.112379497585521
0.108685449300447
0.10939313149837
0.109800950737429
0.110071521464747
0.102763029601368
0.10713834858986
0.101436060857993
0.109130065955622
0.102166656489561
0.103125705309168
0.101923079463993
0.107907147618976
0.0990508974999207
0.109270498809547
0.0956707814202357
0.116282937883908
0.0940285289751618
0.118480104081618
0.0920393050677999
0.11992945172344
0.0892380000276551
0.126523529766911
0.0856945806235641
0.129119433029365
0.0850261238236397
0.138850114429609
0.0821359562627324
0.141307572173422
0.0800579963323675
0.139579803485051
0.079367079763391
0.13940305918624
0.0870229266551033
0.134901096766155
0.0887502838116483
0.124727169488529
0.0980976462499212
0.114478858045441
0.108077277092835
0.108566525919346
0.110373824114922
0.103300403751029
0.114162383741747
0.104793761852178
0.114105262951618
0.108639925215233
0.104986882161223
0.109675591783692
0.10341653486381
0.108933047713751
0.100094348801842
0.111093290547738
0.103621103228347
0.109814374442422
0.104750247410859
0.106222000791894
0.104983756685121
0.104754203199245
0.103025313035445
0.107694566986735
0.102115284340288
0.106968592857074
0.101862531288137
0.10601167380924
0.102481346118579
0.105590930117619
0.102328664620381
0.10826902273506
0.103745003939664
0.105409013658227
0.100756600144982
0.105924837223138
0.103553696703585
0.107786419025439
0.10365059376841
0.105534700747111
0.104643634805732
0.107051310597756
0.104089551129038
0.108540620680425
0.102917471306351
0.103898686654595
0.103628123616041
0.106496512414514
0.104149511717307
0.106406705961905
0.103001540524188
0.107998719281707
0.105546331975638
0.106565000216578
0.103775167131068
0.107767941397825
0.104816867962677
0.108102057112033
0.101232382099966
0.106716793282906
0.105464573239165
0.109137296188709
0.106478835120513
0.10841569507727
0.105553558232628
0.107582539590638
0.103623403234337
0.108652332538836
0.105780039085863
0.106125996484216
0.106223381328484
0.108618696127176
0.105117691552701
0.107113346069124
0.106717329631841
0.106894611904562
0.104953108656689
0.108523666739278
0.103958013396752
0.108959883126758
0.104637991047902
0.109316900703545
0.105300575048767
0.109961551981327
0.105348538404936
0.107691104272175
0.105367592870315
0.108491803504522
0.105753237945978
0.107990619618632
0.105962413736983
0.108840345458573
0.107955634504009
0.109771831235274
0.107377270474121
0.109919422080352
0.106545845614609
0.108525524783414
0.108185669472694
0.107538733164513
0.10488239245002
0.111501170168304
0.10846092541864
0.10996562972695
0.10864595768352
0.112309533437136
0.110119503312655
0.109832138022405
0.108206958581164
0.111009315238208
0.109921786001171
0.111393944978832
0.109413283138448
0.112497751217705
0.109551383741825
0.115005399102382
0.109612053371629
0.114293208542753
0.10934464147868
0.115051670338444
0.110772920438709
0.114148112513272
0.113673397189449
0.116431872113078
0.10922546397084
0.113908913189202
0.109921085392048
0.1144697533644
0.109814133457074
0.114726455709089
0.11330961591708
0.1147315780406
0.113269461366637
0.116906673877816
0.112363476946033
0.116654914275971
0.111803097998278
0.115587859879799
0.112273813972232
0.115542849255208
0.11302417354988
0.11603092231349
0.113346456797633
0.11704829916057
0.113486212259566
0.11461623614757
0.112752321179061
0.116461543976451
0.112214803456404
0.1161732120051
0.115823159549082
0.119231909851109
0.118573819273531
0.119039124302905
0.117116748450375
0.120420277419929
0.117144258579829
0.119827293239991
0.116844669718973
0.117809394240628
0.118780282927286
0.119106310499171
0.117739942767832
0.122274603153684
0.119030366413289
0.122593581012321
0.116920428609054
0.123381160760279
0.118994695991046
0.121071234864193
0.117979408357536
0.122981981767715
0.119024255216494
0.122873368720796
0.119504609981026
0.122021847918949
0.119583920784701
0.123489696836555
0.121051285764879
0.123277982853633
0.119622405000475
0.12206213780946
0.117236911048282
0.121817650617078
0.117093116221609
0.120504566326133
0.118644680240463
0.120143790628703
0.119114717284052
0.121886883551518
0.117709342472152
0.119048596318947
0.117729491600258
0.120310467797674
0.116294729304854
0.123021579546535
0.11930501298287
0.120998874280147
0.117839690455424
0.119285401440336
0.114600204647433
0.11891408802682
0.115482857632081
0.121572802640955
0.115845802773202
0.118811463487244
0.115591127856084
0.120313192847522
0.116818327115041
0.119205125393086
0.114102827569349
0.116841572611288
0.116404489650682
0.117276508828762
0.117593530304128
0.11712915675869
0.116139012326347
0.121109051511174
0.117001193258654
0.118627094288036
0.11689655080441
0.120750039680118
0.113705369115003
0.117528777142347
0.11548985092745
0.116749032367631
0.116683584062558
0.117366712572798
0.112621109257032
0.115623377929404
0.114236726723414
0.116002909967136
0.114635137923608
0.117282976781451
0.114892278190007
0.117682454886192
0.113776858563501
0.115770039276469
0.115865345994999
0.116521547771694
0.113357479553428
0.118730167672825
0.114917115706369
0.115871538624922
0.114456509004563
0.116288999065854
0.115851436143052
0.118108665337416
0.112655387397131
0.117379455820908
0.113503713671724
0.116184701801812
0.113667470028007
0.115478586856364
0.115070265414253
0.117600082014755
0.115866332513986
0.118572857127865
0.110080526929287
0.113955958752545
0.111740936708003
0.115807291745619
0.110078129752821
0.114234592479877
0.1110531995578
0.113118737713249
0.111561398867457
0.113401319220326
0.114622846359914
0.116152460716142
0.109513981069575
0.11167450538493
0.111215580470241
0.114418485133832
0.108810856254894
0.114466321254086
0.111889064482996
0.11154632679255
0.109584546237086
0.114648816594661
0.110433342647624
0.112105960613677
0.108087642134058
0.112784416811005
0.109804953925641
0.112092391332513
0.109393452155179
0.112004597694304
0.107087550988283
0.111573004588053
0.108459428680611
0.112276968074774
0.106385355521613
0.112589511283125
0.10970334930412
0.108368229192601
0.10944770175808
0.109259257924475
0.108052364133773
0.108192803112723
0.105792200449335
0.10768062122783
0.106269877757103
0.107223913006952
0.104520861294594
0.106430011239894
0.104506805658747
0.105658944048609
0.10234373838329
0.107609424720267
0.101780375769868
0.104533809917312
0.101824094394279
0.103198229520835
0.0987976224713704
0.101253318522946
0.0993157859802892
0.104641647065159
0.101781351947396
0.101813378110901
0.104197417652673
0.101869527626813
0.100546925600201
0.0977363173728253
0.095272385511324
0.0957826525873163
0.0956522798895115
0.0984469269772923
0.0939002267164966
0.0985412244659849
0.0959080030997851
0.0963512207047032
0.0928068917883671
0.0953758997808051
0.0948138969622884
0.0950090837919515
0.0943059180371884
0.0950359420397823
0.0933545567544753
0.0945807980537201
0.0936141030120565
0.0918612041040681
0.0927492141641352
0.0946117957476748
0.0934596534338757
0.0900314785780654
0.100690461984677
0.102537886802599
0.0929190523272594
0.0925048784187677
0.0930175875582113
0.0950397215612969
0.089362063723403
0.094033093105929
0.0886650483626991
0.0918579689522579
0.0872929663334232
0.0907846217927138
0.0893093817177217
0.0915202014248453
0.0874920234055919
0.0918762903324007
0.08911428623686
0.0904762114554271
0.0895828534284693
0.091525952694726
0.0866697534533736
0.0896793143418461
0.0887404984189883
0.0905610417834972
0.0884286940981692
0.0914980649826702
0.0878518824030885
0.09776173083977
0.0898281089928421
0.0941496724073313
0.0849471450931945
0.0899584307993235
0.0862230459402753
0.0907891659802568
0.0861496682666786
0.0870922392572074
0.086486605461297
0.0900877611357966
0.0844215330320982
0.0876651414671189
0.0849565493651361
0.0887406392655667
0.0842308669503835
0.0859518382740527
0.0828286331103631
0.0883885563829801
0.0824527785490787
0.085297449848175
0.0827180600933949
0.0891515223734544
0.0831662515801342
0.0921591444314415
0.0789132292446011
0.0915022912612089
0.100044968369106
0.085244111647056
0.0865090987573548
0.0824605081381443
0.0841863182226043
0.0836580777441072
0.0848069573637008
0.0833460372376052
0.0844226421301872
0.0861531048481037
0.0824435436095848
0.0828109540521144
0.0845990535924414
0.0855055228738335
0.0815789559256589
0.0842168572125909
0.0821660718899166
0.0828597277965025
0.0836578247998356
0.0833424419354677
0.0860617735343997
0.0987040549520919
0.0851014243367153
0.0848320753017585
0.0828010297819569
0.0786035012266476
0.106883612187489
0.0860346711260373
0.083332404198239
0.0820969351025255
0.0805957905800778
0.0803822426018057
0.0830839456914181
0.0766298412000359
0.082612330440528
0.0859366294772488
0.0796105279109015
0.0871365787349987
0.0783103606882423
0.081378908021652
0.0783755411739354
0.0801418013435325
0.0799057399849547
0.0810295344650263
0.0772865390400727
0.0811468134976373
0.0771902141515865
0.0769123339835326
0.0776424473674725
0.076632871051837
0.0804179660867019
0.0841373739521963
0.0771599321577535
0.078306902279617
0.0801770931278597
0.0746478143568378
0.0863519857326662
0.0963860488050922
0.0770093084511693
0.0828769688211637
0.0746180783480106
0.0829989758851019
0.0767786666169682
0.0802340210821752
0.0737315075959759
0.079156857296139
0.074735490659989
0.0789428431088636
0.0762447879428665
0.0802464364540508
0.073881503057184
0.07811448128882
0.0758184799162662
0.0788797587683912
0.0771227977177703
0.0754523327425908
0.0788448663953628
0.0771334453697525
0.0925027504225962
0.0954188534035461
0.0916067140289575
0.0884726145211377
0.0815374947967388
0.0768674854700004
0.0753029900133594
0.0792714654607458
0.0746891125741404
0.0796036873056389
0.0739276046116074
0.0811716373660829
0.0743808211917529
0.0771335109322379
0.0736452227687802
0.0792062192596062
0.0701626099586359
0.0770737515404051
0.0726322270349443
0.079296985192132
0.0708101687808419
0.0790298142135011
0.0709327879516731
0.0867662008958055
0.0756804868478161
0.0844672329317405
0.063064973225917
0.118901664125216
0.0904207168209141
0.0826261914762259
0.0802857841717875
0.073412268316983
0.0769263708537428
0.0743807160757804
0.0732024857106337
0.0815638602030837
0.0743323101926528
0.0770579529537379
0.0751093275739714
0.0799479411190992
0.0769435367578125
0.0739652586381831
0.0830801133693986
0.104080045744584
0.0817345954210843
0.0844460264538543
0.0717738428152905
0.0853917717306372
0.0981580598008185
0.0810332840550682
0.0845702793000364
0.0774198317045862
0.0771495693592727
0.077298307117424
0.0754594123544735
0.0776979824409163
0.0843648319651804
0.081887226953599
0.0784230663402473
0.0796612077837673
0.0753882024086376
0.0828839070707719
0.0765493594707898
0.0883499162205872
0.0887560150880446
0.0796499081913541
0.0841675909959635
0.0808294134856816
0.0782520131528898
0.0817261046705191
0.0792711909507798
0.0816300997009951
0.088747521324337
0.0943130431979874
0.0816931304477287
0.0980107154757436
0.0869100443948875
0.0784984033891724
0.0863132814610455
0.0853794032700728
0.0938598036990708
0.0762741568917008
0.0964879733635278
0.10795556570462
0.0950929498098442
0.10369686878224
0.0777674454441569
0.091074463988978
0.0764026501993131
0.0853767633527555
0.0736253736369535
0.105397012424071
0.0790080894220425
0.0919941631941028
0.0753661647860291
0.0990409064999239
0.0921526282810464
0.0921901337976674
0.0862661338532561
0.0882079316463786
0.0804996871107943
0.102426446005768
0.085013051374653
0.0846779147470693
0.117582213829515
0.111971465070988
0.114893736756521
0.0937639422114326
0.0851585122968846
0.128873804138699
0.0875153015364811
0.0971820450000778
0.0858226708220128
0.0958190775593466
0.0832434576541615
0.0966836084763157
0.1206223408793
0.0993236721633712
0.0905637987373324
0.0989139647269308
0.0880510655475753
0.122068682235691
0.100060133237619
0.100809889958151
0.093065897703668
0.104902300223842
0.0860606974142611
0.152941234725632
0.109318348532564
0.117975669421525
0.120348141686387
0.115818019621471
0.115127289403746
0.112297079945383
0.10643493023609
0.120141136994217
0.124142920148925
0.111963549284229
0.0977038704180688
0.133602578620585
0.135382147700429
0.112821292082834
0.122977723606517
0.108972798732451
0.110820421688964
0.152126704688075
0.170104216699448
0.149090712680267
0.124202302678837
0.125379240667483
0.152560314094428
0.12765481254617
0.126824288815546
0.126004478151728
0.127327402180728
0.12963503801761
0.130004912459778
0.148098440229737
0.130864266215882
0.139896194344418
0.133483956772916
0.138728805347482
0.15617155926069
0.197776576653072
0.17754343786298
0.150983957193105
0.189362032126472
0.164460854244893
0.156704484669088
0.153305184394929
0.151586917701626
0.16536211859321
0.156150671583856
0.158164530330789
0.152572429394802
0.190150197463542
0.168535927382673
0.178134443190345
0.189364705594934
0.169818392488321
0.172744480093774
0.172572500779839
0.341514836078867
0.195692998390006
0.207073491780234
0.183540930108301
0.20213126997318
0.258382357618795
0.203624567811099
0.194953865939401
0.198296103376668
0.195409672988079
0.203646415541463
0.215099523431611
0.219610307983389
0.230823367923039
0.222988752096629
0.213732214041777
0.245333872659276
0.303363849334791
0.296239626281702
0.262770751252835
0.244609939694696
0.266972598273955
0.267279395220275
0.257420316231953
0.267330300518501
0.257535487073286
0.279165505865229
0.327054042345445
0.285104933978562
0.290487158241731
0.292142499982639
0.32705468138858
0.287392336639371
0.355277426392014
0.331864642909339
0.325184152086964
0.315860455704086
0.325758751984162
0.329423650630258
0.32826877918573
0.363947469096944
0.356829618525135
0.347339511845471
0.3513118301267
0.351970168151751
0.357609939397558
0.35736663879804
0.370757859854039
0.36629602210617
0.420461616976369
0.399485758283259
0.557556244168425
0.416047670816531
0.37855834306581
0.385986698179166
0.382962457778757
0.426071132686402
0.41674037895689
0.434066790744851
0.423869778861491
0.387353929353875
0.399314248556416
0.393785726113961
0.400117925172015
0.395257895286209
0.400065167861587
0.379349929486572
0.422536242917635
0.39138132178167
0.425906017169409
0.4573197353816
0.399920576630599
0.386690933134197
0.39209244756385
0.385119993563239
0.384355943058424
0.371041678037774
0.393716319956055
0.403982059830676
0.378116213760193
0.373279008682376
0.366027228297084
0.394184700379878
0.393662585703769
0.359102536978481
0.358593996737842
0.340042614671762
0.3583669357521
0.335517002823012
0.358675755590739
0.384663908938126
0.337840747056429
0.338716730102419
0.328262563377232
0.320740328506559
0.319565805755801
0.312525543437605
0.311275158337939
0.314536765617263
0.307630175290009
0.309810624562678
0.304145598100378
0.30092748259193
0.291547823594312
0.298570352436947
0.289027226198725
0.293157035861365
0.285030244511304
0.280296412726775
0.282865281211653
0.276161738037032
0.277993416737474
0.276076991845822
0.276420984684246
0.275766948834223
0.274030551863061
0.268206317576313
0.267193738247527
0.265040798635737
0.263018472381903
0.254451268003433
0.260433408979659
0.25532064173741
0.257296276687224
0.249653931560316
0.25243504016848
0.250517323049235
0.247257922557079
0.248860421093855
0.24963146152863
0.240215355316364
0.246388175201983
0.241963229678254
0.300509821273132
0.259663820594697
0.238770740912521
0.234708888959347
0.234468302224538
0.234552508310547
0.227213197789698
0.26652061390242
0.258306685041185
0.231142212802456
0.230034202625271
0.220100831165284
0.233776597985963
0.232474075362284
0.217907161855204
0.221402501438522
0.209937388965896
0.262681233530715
0.293889054739507
0.277285935572772
0.295763010727263
0.235602612616565
0.209472807322144
0.223377025031726
0.251013439255048
0.203386305907158
0.208899986226369
0.203510508218673
0.241034960884576
0.213767209042217
0.20030078144166
0.200544836221429
0.195444992440766
0.211141395582674
0.224517210427633
0.205918647698256
0.222196128279157
0.239278391664165
0.212613160217547
0.240131000774155
0.271517584149957
0.226760746960342
0.19308675705414
0.195380518535325
0.191319211609882
0.204558885226681
0.244709590579371
0.203442355916608
0.211172045792349
0.188764895800929
0.185880921564593
0.191781980274373
0.210503839438141
0.205207869390842
0.202230968973239
0.227186496539901
0.189025788465147
0.198806482139392
0.210636954203071
0.232833518067912
0.242212998216144
0.199984601381004
0.185212643872991
0.223929429395198
0.238711181523582
0.199714511460382
0.210377989164067
0.188429631011229
0.198223911042323
0.219574210353231
0.192734732895809
0.208962444060464
0.2139355733317
0.219556151949377
0.2562522434106
0.263548857192321
0.255560106005546
0.212515628803461
0.196447805178146
0.200643317316866
0.207648474330044
0.204510412746603
0.199321740432394
0.224311138833516
0.220332264101857
0.208058537628834
0.254667068908451
0.225323353821003
0.217078489990521
0.217919160010332
0.214480989449248
0.227845607923674
0.261128938682077
0.270799778532175
0.252344089693415
0.238730875988579
0.261687422245655
0.243524124032602
0.252773396409884
0.25038438300059
0.254568091054491
0.256909186595934
0.273010438961602
0.272812864141806
0.276625247041621
0.282859716658326
0.288150710980875
0.315343899347149
0.334702563456002
0.304408450172327
0.336156337380793
0.345225873813861
0.376796368851989
0.350986725392956
0.345681466209011
0.35309025656509
0.356586054022753
0.366632254446156
0.364348140937834
0.385728220862465
0.419129923970475
0.394775734849813
0.398111535296703
0.398302055278963
0.406713776010875
0.418704040050347
0.445346443892563
0.448084268907067
0.485152042260651
0.488634069139876
0.453008663649588
0.443206972437654
0.4287705452552
0.439600315099582
0.441239380840659
0.43487820930023
0.43546474709623
0.443932431764648
0.461970287693578
0.446449295151643
0.445088659087187
0.444620294288869
0.448099692268881
0.448093163915126
0.452429832330617
0.451817148075978
0.457827194365818
0.45738498818318
0.465151666509771
0.459295531722568
0.529532150547535
0.494759699602661
0.476514620002137
0.486284681887469
0.482971090946413
0.487734700167607
0.492640182365969
0.505512341546322
0.506759618987156
0.496198904312441
0.500040268748037
0.494734280925855
0.504889442887616
0.514645184825084
0.528641731333031
0.510372668422859
0.517002058631972
0.511779196458604
0.526854885131278
0.580553968297985
0.53895463754182
0.53620329437189
0.525397590141573
0.525160791739335
0.527789391454579
0.524084088156035
0.532216104020413
0.526235305694924
0.525570843952755
0.526584410377087
0.522661691026375
0.518748853640716
0.515582667901611
0.514109864612774
0.536925594275813
0.52202898793969
0.512188341292881
0.510652681038149
0.504868794598851
0.505846591244029
0.533774218471071
0.525524081713256
0.507477505319183
0.504061537932297
0.50804773924432
0.513295980940697
0.510820630696545
0.491645401103937
0.493936559684704
0.490688588312998
0.496647827929867
0.49846373884945
0.502103580107656
0.5265708006753
0.514901149519304
0.506758643679527
0.508747135765884
0.516339521543557
0.520597078328923
0.528970182007126
0.522594765586725
0.531926425645015
0.548389471665083
0.544700827049544
0.54958639877841
0.554806553805014
0.563581942146854
0.565126893834015
0.578271395984762
0.564143663421163
0.560341222596234
0.564980392056861
0.564501135999669
0.575318341849693
0.566411074527482
0.570275572532497
0.563317255048417
0.559705755239811
0.566936933320261
0.588244767203353
0.579926848878183
0.569566792867785
0.575198349005434
0.556494867100605
0.562482167948639
0.549523689110573
0.55234870681394
0.556017411097454
0.5499707841865
0.546796259252413
0.543581807587357
0.542340234861221
0.543107011757324
0.533853857050528
0.536469879349737
0.534446976825507
0.533733264190383
0.534476509525933
0.537824768665848
0.533450835885004
0.525716115790133
0.522508499875297
0.53608776607958
0.54527396111595
0.549102038921434
0.543748510953663
0.537341780484135
0.52962037397727
0.534751116816842
0.527954546431264
0.530452358002964
0.520276205872485
0.52345562697346
0.525997794300417
0.526406399001563
0.521655387249572
0.521149984154099
0.512326415002306
0.514558347481961
0.513616712900837
0.512359083353175
0.508671806690087
0.501825829554407
0.500985077944049
0.500916851368745
0.495445943777906
0.496789799631256
0.494701554360531
0.491391933197155
0.48927124193672
0.487784957774715
0.489111241508241
0.487871621407852
0.484473390083155
0.487319379148859
0.479303309138118
0.479996929952219
0.478152173507198
0.483418469576058
0.478911773452149
0.475506519495401
0.473792965556128
0.47132169499551
0.466928585248492
0.470558685955183
0.469605607819507
0.464737156709539
0.458155709040362
0.458655698912056
0.455385281125423
0.450311107289083
0.445110443915253
0.447218821748689
0.440851753637945
0.433036467962233
0.436941017514762
0.431478831048982
0.42860184117535
0.429207237079376
0.423261230547781
0.422593121998206
0.41916334880743
0.418679518897904
0.417481409762039
0.41622227204061
0.41212702063572
0.414456810470391
0.410520974485358
0.41504386226115
0.413281549030484
0.413664283333192
0.411389467911787
0.414159263865355
0.412872258706695
0.419232673386368
0.414690749204708
0.413377987632768
0.417657018326404
0.416885767813661
0.418295203684924
0.420437090049229
0.421850556597813
0.425083331068376
0.425824769173788
0.427184799460337
0.425078182395466
0.428111559472034
0.428659688517348
0.430765590083685
0.433313570728911
0.435141198218278
0.431443147393331
0.43386144765669
0.430867897733653
0.432204311387421
0.433494379416497
0.432189455925033
0.431483907964166
0.432228188919209
0.432051507726511
0.434980082161726
0.431136477596959
0.431417797005015
0.430570689307093
0.428195810394852
0.428092910333602
0.428605190693042
0.425787339734426
0.428361402387938
0.425598707707847
0.424798558136572
0.424124599092224
0.42351360053672
0.421221422395778
0.425011270312765
0.420083748182648
0.420490603812107
0.415541859202917
0.414119891379157
0.414952288902072
0.410656642645068
0.408597573665401
0.407818648969518
0.405563429944309
0.404042567506849
0.400238668459492
0.40088898499443
0.400770888931284
0.395886622899007
0.390893063025916
0.386125065297508
0.383290008260193
0.381950251265079
0.379657471216004
0.377718455693538
0.372946932315689
0.372979540344806
0.368901688492079
0.370320359386554
0.368986216933878
0.369276101770386
0.367902098254247
0.365797304957482
0.364285977476147
0.367182355056375
0.366378406275505
0.367477815746804
0.370459823940406
0.370146712603993
0.368482073165635
0.368204919617143
0.367863732713742
0.367752408817877
0.367026022116152
0.364576322266988
0.361122549848412
0.357827430208274
0.353718842113408
0.353018826351774
0.347408082791337
0.341667307789163
0.335859494402745
0.334121094282061
0.327113285912711
0.321419774658105
0.317687910057908
0.31360149090438
0.309469996547026
0.30749474600713
0.307080051191207
0.305379712379742
0.303791717333686
0.305609714182364
0.308054899489954
0.31220602010881
0.31775880672055
0.31947039616242
0.326892643962863
0.33518831132411
0.344893125004641
0.355754736424253
0.36503199583498
0.378736861742015
0.391363108826865
0.404235695726435
0.426225134120037
0.441240879123128
0.456180384632144
0.480543536256037
0.499108441458121
0.522422068242935
0.545160447111342
0.570332425237228
0.59619636659331
0.625223817028695
0.654946525552976
0.676643233115269
0.704272805518872
0.735480155243922
0.757969133856592
0.784983795289424
0.806502145447987
0.831005498864265
0.848052173955248
0.868918011555087
0.882480030137697
0.884750611270695
0.901640653891279
0.909654360590036
0.913349013193824
0.916163219381189
0.908951197854899
0.902865618127718
0.90366151470855
0.896271499233107
0.8822671094757
0.875526953682654
0.864957991099945
0.856689680488335
0.848692723369408
0.837750842556794
0.82743458532137
0.821661649295858
0.809737252786328
0.804266834911478
0.803352340209791
0.804536299215418
0.802163565855175
0.801598362475289
0.815073553585579
0.816638206014148
0.818355609682492
0.827194087705141
0.827951752365201
0.839500898037751
0.845053207243488
0.852306873332896
0.868821933684339
0.874050881690105
0.883341866645536
0.896552420619523
0.899953912278336
0.900430650117352
0.902776822541885
0.915472350379605
0.9188272309172
0.92200200120775
0.936835893174766
0.934080684535232
0.93782221095347
0.950911557811726
0.96053713682638
0.951021324177981
0.952002912037522
0.959769116983694
0.976780158958486
0.967777517504937
0.975130557568696
0.983368536232404
0.979905858058737
0.990208292973427
1.00050841419233
1.00838655793468
1.00318785865478
1.00626227521101
1.01148149391193
1.01559488871003
1.02325330377575
1.02327100313732
1.03632709210338
1.04247060030885
1.06099713392698
1.0787522389816
1.09369709440151
1.10937868493252
1.12715610732802
1.15469278855519
1.20084264372292
1.24580709107353
1.25776704361279
1.29417674367318
1.33381583652747
1.36773696556582
1.4023289533314
1.43355052231169
1.44933030492285
1.43368552640358
1.45464532691267
1.49921971311876
1.49407477180596
1.48103967553819
1.45629452264556
1.4549640331326
1.47976397100127
1.43722158446198
1.41849612941908
1.44147340144476
1.4047675044928
1.39611955606373
1.43263001906294
1.41009964527955
1.41829193557671
1.44361397531413
1.43952850800688
1.44722013503395
1.4422941989874
1.50443446069067
1.50021166224829
1.48962672358297
1.5346242737964
1.53009264100011
1.56614837693
1.54563293634835
1.57346618367683
1.57990808843876
1.61788649280662
1.61989725996275
1.65896669919874
1.74370977285666
1.7062299964912
1.72537109815268
1.77673550834038
1.76236546348215
1.77895795222051
1.78401912041347
1.81153883104081
1.8809664129213
1.90736435288924
1.99017210776422
2.02051319869645
1.87383177681676
1.89348764451812
2.00281831636592
2.06089008757446
2.32919539800548
2.11234111775757
1.9846720391772
2.10158594123327
2.14577087980491
2.3007222913498
2.15797815372224
2.21826282477446
2.47482414664701
2.25348845489225
2.36399831337338
2.26407378292881
2.37035267027623
3.33539295781144
2.30324921635625
2.38136001513136
2.37115929977208
2.28508044030516
2.42200515297947
2.19852721314515
2.08186268714077
2.158345113483
2.79196194302967
2.3684209635594
2.05483946646341
2.29391220055533
2.03708488936474
2.03161090200643
2.16056572266904
2.07380200625369
2.11082595572648
2.00019626754534
2.01765018041122
1.98764366380299
1.91227958407907
1.99164574083793
2.02982334756442
1.87592332647821
1.89447903702552
1.95392832422412
1.89080823447206
1.86110953885673
1.80297807488847
1.8605376484556
1.73181686203108
1.65139174623563
1.67549252981694
1.65835350401529
1.65583452919421
1.58910946916056
1.53996987763772
1.52405956107958
1.51583499045358
1.44197461637478
1.37342690828595
1.3563643573002
1.31833985943502
1.22699774976456
1.16935402966055
1.12422860254035
1.08326233072393
1.03228024650542
0.971971772011934
0.934723317712392
0.882865659410508
0.84383589038362
0.816570906678004
0.780791395854312
0.747658582993501
0.728357205510627
0.703945535034712
0.669865723279541
0.656123859422088
0.63966314569638
0.62042270709591
0.604929501525955
0.595372414685832
0.588142326784714
0.577163115178222
0.569713637444493
0.563463769665186
0.555512355978349
0.546623707607222
0.545344135475607
0.539483604247208
0.539773863878644
0.545247864940724
0.54172805980373
0.537813579546771
0.536249618432084
0.548465141141618
0.558712818215684
0.555701450625271
0.561015442835717
0.571729974438269
0.580093434112241
0.582470840492856
0.581986901533585
0.589921451307725
0.598427457379793
0.603837369843851
0.604898813405705
0.60724207762235
0.609979211217094
0.612946046407104
0.609247938002257
0.614993203433617
0.618599326113345
0.606640359602102
0.614383698786018
0.624635590324846
0.617899172755951
0.628111939782884
0.637041986093989
0.632302259485855
0.624855063349662
0.624340090657062
0.62398122944869
0.616384421905171
0.622306873624332
0.615029336555546
0.605465800604145
0.612028858118561
0.608917700972503
0.59952941332043
0.592811141064103
0.583022619074661
0.583447797324262
0.581536266065762
0.571726573944255
0.575165604680603
0.578521134637665
0.569017988997799
0.565804237756153
0.572778997671766
0.563641929814951
0.553593802344537
0.558426881937088
0.568341431174321
0.566726284070934
0.572820115110252
0.576466029997429
0.574309992593839
0.584209779740158
0.587372461472369
0.589721175820012
0.60327850232847
0.600397559340519
0.60625076299401
0.60708358118062
0.598450519868209
0.59338001700691
0.594937818962451
0.591264338559462
0.575545253480128
0.569726418090585
0.564507446268118
0.547768191487636
0.547772893085675
0.542104725630676
0.531965345828474
0.529708979383727
0.538293429478132
0.537744808752063
0.535104612866079
0.528965464941263
0.531692662334428
0.538647081580818
0.53681741567027
0.538417485776634
0.547940527018173
0.545244144167698
0.543206387969181
0.551292397618755
0.554784181471623
0.555471351017138
0.563247402759388
0.558454146690204
0.563701076165543
0.562774053720461
0.557009957892712
0.56329532278599
0.571160433457433
0.566030292459624
0.564985757168435
0.576234900237281
0.57906276180313
0.573949353546817
0.580464830497239
0.57122870715141
0.576069457997797
0.570262496297271
0.570278116651396
0.577648695676419
0.58279785837933
0.578201462983063
0.579034330270069
0.581852079812942
0.581295460939564
0.579160949773948
0.586966882998442
0.573620216028025
0.557800300024592
0.565733800722084
0.56829720082963
0.564786048944475
0.561523230072984
0.553884832639515
0.554565319435508
0.552532882413832
0.562765496622682
0.554379730873657
0.542609804483222
0.53606755834102
0.531858972398242
0.528014117515931
0.530187633832396
0.533670947911075
0.535477960978023
0.522728626742909
0.533766699472001
0.51774507175101
0.511652475721349
0.529115193693897
0.528571591505659
0.539015522697409
0.553558305715976
0.522560004887641
0.511079944951585
0.526795449983663
0.538333606745558
0.53426215824901
0.533288274582516
0.538970391090688
0.541897321147093
0.554516253421087
0.539443281011494
0.548957232846949
0.550522226923514
0.539966348078356
0.572471622310842
0.560709433849433
0.556863534794719
0.553792100520656
0.560932035257915
0.566842178845193
0.590238161977768
0.585736957357763
0.594654278577091
0.598580924044626
0.624489748470295
0.604064823495796
0.613558029519733
0.627667003364333
0.647457189643587
0.649610884530601
0.653215472124187
0.684333687121982
0.671329988576197
0.673619690104487
0.703503161617669
0.680091696112198
0.715531230849237
0.699921421144187
0.71671164169667
0.724485659537112
0.744435238560816
0.729160337487361
0.762923891362253
0.747464192666014
0.729072493898495
0.760436590535821
0.756490731390912
0.755514911944118
0.766988096274794
0.760259925523278
0.766759640133573
0.751789734463044
0.819084305059975
0.831241543803954
0.787408222911202
0.791752822658534
0.829269441172853
0.775918153740654
0.821589279777257
0.827697769023333
0.809490404293635
0.803260934245073
0.820065446613021
0.819119733166837
0.845646463928536
0.843484938853016
0.84262231278052
0.798698561708759
0.838350776087901
0.822481012515408
0.763204230946243
0.79169475451084
0.846014408828149
0.794250887883522
0.812520485974519
0.799218978076016
0.837185975651904
0.77064652363611
0.777088649157958
0.781852973422191
0.771045709184172
0.742440719634234
0.7978582691829
0.779124877094924
0.755024827446598
0.741719863357309
0.774510840838497
0.746021573717059
0.829055356738253
0.737970046367425
0.865141251774847
0.859236977383184
0.78566397736444
0.772692271085335
0.818322346323318
0.809567046969727
0.753725913697081
0.73002326587117
0.793072092904203
0.776982130947594
0.802421302604206
0.726826963554352
0.805834705732884
0.846835734384438
0.830240157970008
0.820113883269325
0.849259760198071
0.852812432436341
0.825903890789467
0.807055498022672
0.850914795476154
0.869763795139592
0.990788166973662
0.868212584351202
0.844956162694641
0.746932755753545
0.90873495420392
0.892179704924388
1.05295117225618
0.930629192563387
0.95246370841037
0.957385331441517
0.887104650524812
0.87224863544988
0.994496880529318
1.09161912221362
1.35096026040903
1.06211233215236
1.17188891119399
0.996468871562812
1.02031856374584
0.870456314274774
1.04048542714883
0.968047692049832
0.96884760525749
0.8116916911799
0.848404799150999
0.878232741789909
1.11305129984732
0.96610490704981
1.02144950999209
0.998635268157637
1.03105935328419
0.884840554367108
1.1466278219584
0.871665809753936
1.2342352196927
0.945971580945126
1.03173177618072
1.01783624654442
1.20205407708412
0.877326899279365
1.25613830382488
0.704139520867451
0.974587834241946
1.06807913598366
0.965375509959648
0.80983708283944
1.24978753684917
0.783358873177262
1.06610370301977
1.08683043682247
1.67619185661744
1.03546411682831
1.39900426241497
0.862377033299455
0.930638710682206
0.757666105830853
1.02485623654441
1.06612448135173
1.79174987428961
0.857950002580241
2.46444333797402
0.811438693426849
0.709667260746541
1.23575837933534
5
0.980651519000082
1.12671226829947
1.44545803600872
5
1.069639602328
0.804979883432929
1.19966819599222
1.14651069307252
