3596
4000.36533379555
650.420452594757
1
2
2
0.0643230899946017
0.061831797647659
0.05941035438438
0.0670329381603865
0.0504398133420218
0.0632497719262245
0.0532187591974942
0.0530342609777918
0.0526322207684038
0.066300423965895
0.0525628003881078
0.0548254386493299
0.0439129686628223
0.057903543334329
0.0585784997548076
0.0566238225762053
0.0562454721962018
0.0589777789020324
0.0615070588539199
0.0548000645071519
0.0523729056643859
0.0557751015245943
0.0493369386528664
0.0617922959616154
0.0589796378646713
0.0561000965392079
0.057540152995792
0.0563031749887871
0.0539558658992097
0.0624186633815611
0.0567664804069913
0.0612532446954548
0.0504479661032206
0.0631763213779189
0.0512440577343827
0.0685272132350471
0.052145563725708
0.0575479740101265
0.0490875911214375
0.0608127861156751
0.060621968161632
0.0586633912105122
0.0584644442554832
0.0616080135528417
0.0515415310162831
0.0619464312652741
0.0570048128242939
0.055768484239334
0.0520939692985415
0.0680346038937643
0.0602464910213623
0.05132804758748
0.0633127882525613
0.0704436108059749
0.0479346383232589
0.0700651968740746
0.0542924678035744
0.0538457993944022
0.0513101590928874
0.0568840450951347
0.0659475326619234
0.0637179181106515
0.0464253561495238
0.0571744362740785
0.0506153861672196
0.0564150461604385
0.0462549592307093
0.0586834107137182
0.0484519356619055
0.0658148285750358
0.0444837357609835
0.0696078226981034
0.0636474546000674
0.05742418489901
0.0595993698899528
0.0593445880358904
0.0538993726189347
0.0556471471915656
0.046610119802671
0.0629937396011612
0.0556925589280422
0.0595834377586151
0.0511541870039342
0.045081562568209
0.0520801145950483
0.0816970484084287
0.0432076349034206
0.0619392310288312
0.0674837634831055
0.0657588511685866
0.054143128065537
0.0553844028206736
0.0458855631109035
0.0582839393093611
0.0498225954855244
0.0612873040841916
0.0431706418879223
0.0631319142623171
0.0408003493303617
0.0635300461499625
0.0494935778784028
0.0517269407158827
0.0828664537646177
0.0445845279300535
0.0943831498477979
0.0668883659536872
0.0483169028996281
0.091488065596458
0.0574519951693151
0.0642273218005529
0.0457511031665339
0.06785361607442
0.0432438607365187
0.0684526126150842
0.0286298795299023
0.0768993131246845
0.0679043204117226
0.0671224977446334
0.0532144400658245
0.0756951438795079
0.0274011965829987
0.0797203648475008
0.075660293464617
0.0639836256543759
0.0585966814235059
0.0557220225002267
0.0441037459710089
0.0880052497203588
0.0695249396160875
0.0599680945233469
0.0471540730839851
0.0569285855321316
0.038466809934256
0.0531374930382036
0.0808253844650905
0.053254221165296
0.0533993537099447
0.0360090283891068
0.0563820422604129
0.0987854851026369
0.0603412254098381
0.0626527596680548
0.0357250811383563
0.054387172771081
0.0784251947983781
0.0667530426649676
0.040052123946806
0.0724158411628756
0.0532860024747414
0.0547570781965902
0.0454884221988921
0.044225076137795
0.0593109826939461
0.0674080996778039
0.0088101258528808
0.106419018702627
0.09135223423896
0.061742758456459
0.10037518810704
0.0552809423586975
0.0698358188560233
0.0492219521774861
0.054060313619625
0.0471287169809209
0.0597973566666255
0.040992794198419
0.0583756162998641
0.0772272208569818
0.0506095424609036
0.0523302343806007
0.0784183007274996
0.0573476002716551
0.0323794080544252
0.1112105544463
0.0518031171377054
0.0504581283911296
0.0734943404681174
0.0684094307293419
0.0391773624368356
0.0616641518361148
0.0744711632237023
0.0602426272433521
0.054960123495567
0.0461534699961216
0.0505862511765618
0.0668548339441035
0.0554725868367944
0.0567198348569487
0.0536188182148924
0.0383892954097167
0.0459734395778288
0.0893525648320599
0.0727191832770512
0.0554874214494773
0.0572153355688422
0.015624733759398
0.0852447625863898
0.0829268801764486
0.0533051187366725
0.0606223404621152
0.0488967487279032
0.0507809945684651
0.0427755957109907
0.0529770525176209
0.0433440058168042
0.0245755877776865
0.0817240615306981
0.0590703751577872
0.0557862995389536
0.0482929356162075
0.0504034405386077
0.0276758220090816
0.0977351452166502
0.0743142378366057
0.0589270801394966
0.0551406269747016
0.0381121323781515
0.070175252404765
0.0674609464162489
0.0580982278853142
0.0524136016966076
0.0519778308035102
0.0550229986371741
0.0465097316395532
0.0454807216950459
0.0524724740408554
0.0520150068598607
0.0527186421778106
0.0522224337498502
0.0529524493939719
0.05794755921114
0.0519096881470374
0.0475217673687157
0.0590882149546473
0.0343968266821774
0.0604880771389554
0.0703405806477157
0.0579629560297851
0.0541978007998915
0.0503132222424184
0.0532447992509917
0.0491608694461931
0.0520078936239523
0.0589557382780783
0.0440371281682379
0.0381309284952861
0.0882676913596328
0.0492864919008275
0.0621117876716926
0.0348982861979842
0.0705654492440489
0.0627029341278129
0.0623459396770169
0.0476901352554723
0.0588069898368555
0.0401038556024955
0.050205570554161
0.0836300092864374
0.0643596094682903
0.0470086905886485
0.0641688284785699
0.0534452629988939
0.05626652052059
0.0503501949030359
0.028068926910703
0.121800675288625
0.0534244550368929
0.0465046528536383
0.107754845056758
0.062406312504393
0.0657810148142511
0.0477709240608559
0.0201827314564122
0.142868701663418
0.102702534088592
0.0620029923715029
0.0509288227714647
0.0759124914682472
0.0423727467640403
0.0637600368556407
0.0522233312916272
0.0671309511678894
0.0679706342836873
0.0891924899721726
0.103731885943912
0.0301072683536801
0.0873167833098902
0.0835510958726045
0.0658117012010022
0.0575107861571622
0.0625164046152603
0.0522761665924809
0.073429015236086
0.0708724923836153
0.083434519319149
0.0637656004388912
0.052409686105738
0.0863279008632484
0.0688862060434118
0.0637649507674068
0.0661232449413523
0.0771844218200027
0.0523054996833906
0.0666924921806079
0.055816502891899
0.0828036245219875
0.051404805655733
0.0585328003647399
0.119687342644244
0.0698503994716998
0.0626942628387533
0.0950327584280261
0.0689116750985957
0.0762456547978522
0.0616599996742439
0.0689299306386593
0.0625190141939065
0.0651976993837083
0.0530834653830937
0.0991999372061758
0.0678889857139047
0.0781465189702257
0.0617323361393037
0.0653719454530661
0.0649462986132866
0.075830338370737
0.0686684575219798
0.0792461338377476
0.0726285031392758
0.0592259432573543
0.0745388258898437
0.0970367050634021
0.0425140425437229
0.109349804411918
0.0999650441531591
0.0845951926439106
0.0703778958252229
0.0711460872910876
0.0817936244958859
0.0772836763782827
0.0862459401190927
0.0799812998086318
0.0760583943989836
0.10033269344714
0.0925461953140109
0.0731580635821975
0.0687164899613405
0.113945607331116
0.128180681856262
0.099330269100083
0.0944333333131421
0.0617678622948987
0.122884921190618
0.10385177180511
0.107205302178624
0.122429707562213
0.094243877698708
0.105515891853191
0.0975430403464641
0.106738695925544
0.0953387113614727
0.114820898989257
0.100382012194767
0.115746309177371
0.100818337393405
0.117668826922187
0.0988900612066419
0.113392459105613
0.138352888704665
0.124588811040428
0.113300468074613
0.127668996787348
0.092671167317755
0.166499363905196
0.119591539308081
0.162033588398691
0.142811163855407
0.156052971583291
0.167595765221275
0.138951986217612
0.139354226250309
0.133334632483173
0.140316691327389
0.150480836310291
0.139484763377362
0.145097561557776
0.1392121141086
0.14841813562591
0.149084190535468
0.154946937205504
0.157949362103468
0.158700853018997
0.169061564646799
0.160713987879002
0.16409044878069
0.153951495199512
0.177685789258837
0.21065289631464
0.217346158948104
0.174724986500243
0.196416545795788
0.177934640988494
0.181578756923571
0.191709790545384
0.183959271658833
0.202072965448499
0.184005646945058
0.23446967192201
0.205903042922705
0.222390135668357
0.220475612528108
0.196224531084382
0.225910850088229
0.216094029549618
0.2207571780741
0.244416490954191
0.227858448974782
0.200994419968168
0.251200926712515
0.258593070404486
0.230274808318176
0.272015322122762
0.235999502316313
0.248545532516649
0.229516946774032
0.259101065320758
0.240509601106957
0.255105149068159
0.267847897710332
0.273302137000273
0.264960834936343
0.275362261339451
0.263512876601102
0.300157638707104
0.263922505795332
0.287912177071565
0.287097230360579
0.284832608065313
0.29254013141443
0.29021631005384
0.324010229414316
0.311883016708818
0.304428201714884
0.343208818714911
0.300958702220513
0.328057961945033
0.304785923660705
0.337850540196449
0.314905927117143
0.343656719917226
0.327814270022784
0.332280600104216
0.334585913273524
0.354734759869911
0.338432317945346
0.367553827045173
0.33454146652495
0.365202848128622
0.355086181100424
0.373832652936691
0.363735679190905
0.375534757188008
0.412420074772222
0.415712357255423
0.420935059651345
0.41438394740942
0.393567806844464
0.411454339991563
0.394191635896208
0.41854409659204
0.400944920221736
0.439288286590383
0.403875898961224
0.45084093464765
0.411789234865266
0.442947667551977
0.423359793522796
0.448921000764689
0.43749954843471
0.464311100129717
0.447520976804287
0.475762714507852
0.450782558252366
0.507471820872311
0.457794236777606
0.499743116449022
0.475766004087302
0.505781344518889
0.475705924658892
0.51572616930094
0.494793884084936
0.515434693721063
0.477237614166698
0.545131615428921
0.495582909110143
0.52148078158104
0.530857878802181
0.555181293882912
0.541749201828904
0.557100209117071
0.532533627780847
0.578124842629785
0.52086613247392
0.582197090177538
0.558521236442678
0.606534832383795
0.592531955562496
0.594922814093878
0.576692056504559
0.607010508083945
0.577037786404089
0.636489994206306
0.591232199501091
0.638396645206969
0.571098474125136
0.634412519976482
0.595842387290503
0.649416551094382
0.59590929523603
0.652210383003103
0.618508921254691
0.682446627232198
0.640368210529127
0.680856277915193
0.668780152388316
0.68933389195709
0.632196556079755
0.702938708789458
0.649813081937782
0.704583805987147
0.669461477384414
0.743271691928514
0.663448700534869
0.719960751904225
0.695344950670809
0.740317188741465
0.693666084015368
0.743550157471926
0.67263431367737
0.762017952380483
0.698938153110119
0.761662998338664
0.718705858844461
0.797186095522852
0.741133530928272
0.80616936177204
0.731564170555195
0.787345342138156
0.784667183264981
0.790892847322205
0.760458687383353
0.798599924562378
0.764531453668792
0.841521484838671
0.760413271702784
0.835711815837367
0.821375716413321
0.851872351209839
0.793760210621179
0.875695516442138
0.820300836504268
0.891082040351799
0.829645645065111
0.868935215870046
0.790072555295675
0.896059304945474
0.794971874112801
0.890503637198836
0.821634059049207
0.903416396398087
0.831900183371555
0.891992427519012
0.873913831387633
1.00013651650535
0.841508739488204
0.956093312741946
0.889124312433854
0.950502832175575
0.862319630086057
0.979603026804499
0.870875543624509
0.976242117482471
0.927813854872854
0.975531352956456
0.945464535547059
1.0104580883534
0.934909954476056
1.00625152045407
0.93849343811901
1.06952805429838
0.977360086497674
1.03393276349614
0.959670767394565
1.05986149371538
0.946173592057699
1.04334470740296
0.907181950664217
1.01247183461102
0.908405188518784
1.03403411490683
1.00119238546885
1.0498499285507
0.968472356410134
1.07920203142828
1.02313985050359
1.06546945692974
1.01945706978251
1.12396501246096
1.02122956894393
1.05505806860509
1.06230759055412
1.14397671904073
1.01803063169726
1.14197148568162
1.07224754906423
1.15081787667185
1.01964331202574
1.14522317277223
1.07119267481137
1.0695267356436
1.10943811368643
1.19571464349899
1.13680191513249
1.1990082415857
1.07569834435063
1.20162335189964
1.10403188565161
1.19144085176685
1.09259677070869
1.2069784506993
1.08927185470203
1.16074085517872
1.09418730925164
1.21365010087777
1.09742996253788
1.26555880845341
1.19501485989968
1.18881396286717
1.07325882507431
1.18711658401219
1.10252046939444
1.12011615270642
1.08253284006066
1.32745216873124
1.11392171407129
1.31153926969708
1.21365239864288
1.29651203521435
1.18398138859519
1.34097894733645
1.08379638016013
1.30334124915861
1.17000069396307
1.42190515617719
1.20347697021594
1.40522141087082
1.18383373817007
1.32126979619403
1.22650842067404
1.34693658160543
1.17037349895112
1.37474400663084
1.12606325630325
1.3444652276279
1.20365348031045
1.37897779439424
1.14757681372709
1.24654686101358
1.26480643688847
1.38486018430894
1.1990941835728
1.34929395696124
1.20422889222148
1.37598386214442
1.1618682268778
1.33678517393045
1.24220505627671
1.35789696703655
1.28928673928206
1.35638261316839
1.23394633808028
1.53223263003708
1.2966733413006
1.49937901232834
1.21324430004164
1.37262823239596
1.25491856057487
1.38810316291818
1.28191221187951
1.42078285100546
1.33718415888764
1.36908041642172
1.26703251801541
1.39906972942023
1.26500897925761
1.28916335801006
1.32019601065539
1.46002100421573
1.34638769259446
1.43331845685145
1.2162569076868
1.35349076405314
1.42904895714315
1.39471350219358
1.23051060220721
1.41594580506778
1.32384669247847
1.44499436252318
1.20950542367749
1.47380980036305
1.46267300227103
1.47935212508268
1.26884436011027
1.43490043868797
1.25023356968933
1.34396239692616
1.27316341077955
1.44724033342596
1.40571199924848
1.55850493166842
1.34578160709626
1.33450965935421
1.30396964676318
1.50689862947179
1.29220201156948
1.42269476050105
1.29670257879774
1.49449306233833
1.42828785383499
1.55816167083121
1.31870753451757
1.42138269461161
1.34113554988394
1.4010760875787
1.30068594355175
1.52809971464619
1.28011093050964
1.44378965041535
1.31582588737403
1.35174968013172
1.29487772918003
1.38373316483235
1.32952124495621
1.48911435697722
1.28198819516533
1.4940024274304
1.29749076533362
1.44162668430416
1.32061667564584
1.44205861125362
1.39246482659065
1.41076198765081
1.29703877305366
1.51557604086005
1.36053900803926
1.49415772521067
1.38130774911998
1.3305338755628
1.27621160043692
1.51455472740776
1.31343679896123
1.47735776183339
1.30853973993385
1.47645921528428
1.34952304054237
1.51192339151096
1.35012944246555
1.47477748299659
1.32510884183619
1.38120529799787
1.27383728090286
1.3994709444983
1.38707750704563
1.4536209352241
1.35953358801127
1.39304546451208
1.28892515954157
1.40454432592911
1.36942284952408
1.47036049600424
1.32516699517448
1.42734407981326
1.31298693162813
1.41130867682601
1.34976886992288
1.51096538260732
1.33423087504281
1.43956016365183
1.30821779755161
1.35196564881366
1.33686931968266
1.50572687623391
1.28308416605091
1.37371794667739
1.3521732066057
1.41962456783721
1.25952782989413
1.33564991942779
1.2973664239568
1.38590477237133
1.34220084674447
1.45103367109858
1.326881521807
1.38154860817076
1.4089556388551
1.47718732503387
1.29519140247703
1.38679875965401
1.26375423894285
1.37825351898982
1.26300872788192
1.34519972704935
1.26298542071162
1.39353887364085
1.30839149624419
1.39019856578979
1.27727812137007
1.3930837283807
1.32355126704365
1.34798329896829
1.25523232037524
1.28421045532186
1.24624732911904
1.34222351446417
1.26063556956346
1.33180807850523
1.2648587549416
1.32457505421003
1.2408620158547
1.36032274806776
1.27743956714499
1.3351104579362
1.24780143355567
1.42465116838631
1.19626199462263
1.32071317167638
1.25889083692293
1.26823517042958
1.20851222457459
1.29729817037464
1.23196599547519
1.29213553474082
1.23402151808167
1.27179683316396
1.26896632800751
1.2526174013659
1.19753283707682
1.28735819687377
1.22355003654342
1.27112508849523
1.14246884902559
1.30278363104736
1.16986725044743
1.21906178318265
1.17626192821491
1.26023015617294
1.16081783023379
1.26576495918891
1.19256693141555
1.22965743081583
1.14224792861449
1.22031719192779
1.16529298642617
1.20187511068578
1.12564243790894
1.2109942176859
1.16705752978602
1.21830659422675
1.12468891798243
1.19774138700634
1.11157014052001
1.24742882612638
1.11740747373099
1.14559554545508
1.09394039144919
1.13010898231936
1.07949093275151
1.16801530681517
1.10848612446272
1.11766349195523
1.09222244713855
1.16200090694025
1.07515617439537
1.11223995952981
1.05532902702591
1.12182251818528
1.06566058490246
1.09729650256474
1.05211651728032
1.08120106258075
1.05307762989167
1.07116459736325
1.05800636872798
1.06014132633298
1.02267877541663
1.03894231523874
0.989530974138412
1.00372739755872
1.0003175262495
1.06280460810082
0.957358037606822
1.00987270096787
0.995968261299707
1.0126653733569
0.97514766767074
0.992252908978111
0.946514876031371
0.961246945399501
0.982789156488094
1.01384470980816
0.966517219540887
0.991351725491881
0.974531495590865
0.972210674753477
0.93625993669683
0.954288142296657
0.919393957761761
0.96283935043181
0.91189930639838
0.951900996937631
0.925214640286697
0.918392605936806
0.895886230755897
0.91896881083377
0.874968805861445
0.937263756537211
0.891920430940339
0.911638741080103
0.890425430727091
0.917434661889787
0.880433263518132
0.885973229158553
0.85386802868275
0.879048949364136
0.853952174800108
0.866863313657019
0.828463002187933
0.854920481510112
0.822436475094026
0.81823117145364
0.817588524884619
0.862990004736174
0.796583274299571
0.826485870097999
0.792725463047416
0.80844338234833
0.791228682829376
0.829685040456418
0.803023644074105
0.814981443098475
0.787218134025509
0.811528083394571
0.769194379247753
0.796171716419765
0.766513075754851
0.781017693658641
0.7498066822071
0.764002930406194
0.735695804412995
0.758087065313677
0.741096118981129
0.762293809352611
0.726983947277987
0.752074481265205
0.724002396440352
0.743924419887665
0.713985716828561
0.727990269222076
0.707653548865804
0.725308178292085
0.703140470322749
0.713100844007257
0.696677151509838
0.708989153678747
0.683802310445742
0.68997193007365
0.684659918538686
0.704804582108082
0.672636917764821
0.679217268370386
0.65816855581413
0.67574704038034
0.659106892727977
0.667664665499402
0.659059967171245
0.66524611327163
0.641819742358844
0.661440542554264
0.639175002227615
0.651525085691867
0.632115731044167
0.639156294824779
0.631323081360224
0.637112004065945
0.636978479798042
0.620376664045429
0.610545085579793
0.630741302423711
0.603447190669661
0.603340188895254
0.599284329383516
0.619124159288776
0.585225104635078
0.604217433586986
0.589684573701789
0.594696932994825
0.580878791693128
0.58604983949687
0.576110618225584
0.582669639911222
0.569057361496219
0.578244313121515
0.569910320696121
0.580819970976613
0.559907921224058
0.562511698712401
0.555304345998698
0.557636838209523
0.538522319235865
0.5537253009022
0.538162425445532
0.543048978206253
0.533904965780102
0.543171618012622
0.52816825272866
0.537498468700561
0.514159425461075
0.535120804270125
0.517910117048369
0.532247621817886
0.508963044354099
0.511570802378594
0.507684136122233
0.513199292916604
0.496955489394136
0.508813793599248
0.497566466651297
0.50074615826706
0.494704464111053
0.507408765521008
0.490118277218444
0.484352727088959
0.482479996237781
0.480955611485864
0.470238899472897
0.480538583968732
0.467613531160374
0.474704325790362
0.465517814699369
0.471462936339648
0.461436637358254
0.464232402871358
0.455489694625822
0.462413469818389
0.447601393107261
0.453841884411482
0.447361887709154
0.457092306298321
0.441384229875928
0.453657715369785
0.440070879257911
0.448871575334756
0.439655592009129
0.444769868601184
0.432383983196243
0.447011966706415
0.438635775013611
0.448823364360293
0.433818628683372
0.439311256709389
0.431148849513334
0.442820696106549
0.427113843140615
0.42773711846518
0.420651933784542
0.430670533788809
0.41690471113654
0.428934991422782
0.42464227561046
0.431343980234627
0.4207981695989
0.431319955197535
0.41854663601946
0.422948840893092
0.414373256720285
0.435350811305365
0.421809747471924
0.432800244725914
0.425639123826575
0.439484625382809
0.427766968003873
0.441330398885006
0.433777147597245
0.441861828741611
0.436788280560543
0.446547103295042
0.435072615116863
0.441521951272939
0.437411145402804
0.443312812621315
0.447368085168385
0.453750685969952
0.443836304465631
0.455360897883724
0.442431656229787
0.460035867413659
0.452302073807698
0.45749401439619
0.448825459645686
0.46614276355723
0.454989566378738
0.470137786663427
0.457670621960528
0.468469302247968
0.461131034757967
0.467698381623962
0.470816276763681
0.477902133121839
0.468545339945236
0.483702708230295
0.475941579959198
0.490876448953553
0.478450676808591
0.488442641936467
0.478316586152017
0.503620775220939
0.492554568274159
0.510276378503033
0.499906703033662
0.518096384774855
0.509894513225499
0.513671084163928
0.516161131223494
0.519228242961346
0.524469900934991
0.53572504576937
0.526263017418962
0.542920908575192
0.52999434168619
0.553141763750121
0.536223526136751
0.551296519466868
0.54574746870802
0.558793386920684
0.547318387503793
0.566823343567087
0.557749204699726
0.575852850648401
0.562029496631002
0.572553774945762
0.551241964937723
0.578326128449366
0.560158784091704
0.579602208416441
0.565494523512722
0.570190727373797
0.558261021699834
0.580991292921753
0.553916763246286
0.560711153865564
0.558005078122724
0.564874716679998
0.546273942712476
0.559701893488269
0.543747571136385
0.55988361409586
0.54578508224903
0.549963181253472
0.548175361227035
0.556092287553841
0.540512170890679
0.554671772694388
0.541928068610594
0.549018171174257
0.540112525176925
0.555752041388773
0.539038159438033
0.554363277501621
0.544889886927778
0.557382551085322
0.540198799269522
0.550398265567953
0.549028345202328
0.557710659173178
0.541111694912565
0.546785487147918
0.554331722748722
0.56282743396212
0.543126939661423
0.556278901813682
0.549008229335489
0.561635566799271
0.550013676956894
0.56040518518688
0.553162608186906
0.561680590853751
0.554058284949551
0.545907210472492
0.538944008336457
0.559685058754198
0.544686324480471
0.549207079307141
0.535668647030713
0.538363604776376
0.526783678912985
0.538987896614389
0.535629802412609
0.53873666744201
0.535978565444079
0.531211874107206
0.537887598583351
0.536358923504241
0.522559150776548
0.526560612542829
0.510676198152572
0.519959451404202
0.515347006940494
0.520286574262013
0.502612575860948
0.506887419784508
0.489219895352649
0.498554405600461
0.489464413326685
0.491670349871064
0.473064824148385
0.482264521647954
0.476450601437611
0.472793307614645
0.46939939193841
0.465816439477868
0.450466268670746
0.457433846016477
0.441092270123657
0.450136809056876
0.439799688984351
0.434864275788497
0.439579997448713
0.430461314514694
0.427925107817367
0.438312692022109
0.426540281505979
0.434168967309651
0.419133913073424
0.424426991809084
0.412975959801951
0.409033888919222
0.404676492203786
0.405104678777551
0.395972814734518
0.398996643440601
0.387746032668749
0.394011871179271
0.389502588607898
0.389246945713801
0.378665530424624
0.390560689485702
0.381373106517796
0.387088396939229
0.372110823770746
0.382627306992223
0.373350650125382
0.376965702722055
0.367418128223607
0.373852571009502
0.366231401743356
0.361618907301422
0.358274458548906
0.361202943864292
0.34927501336621
0.359023988308703
0.351611934696881
0.353556545659262
0.346898179280996
0.354478245147149
0.342035449491231
0.345957653407377
0.339214563436057
0.341768759104645
0.336317757799325
0.336735971748869
0.333173261344462
0.335383006128064
0.327547284234073
0.329909491402926
0.325162916758508
0.329224079429063
0.319573646353607
0.326003004710967
0.319125002292889
0.323436231227754
0.317562783322481
0.322774561780285
0.311291494435894
0.313854483328246
0.313400399894759
0.315123428039483
0.309474332108072
0.311047979690068
0.307218848504733
0.30598826118082
0.301911749997369
0.308618898323813
0.298801075668927
0.305720189281553
0.298539964287377
0.303925817064816
0.293002144306361
0.299567903282853
0.296242244140534
0.298030545542871
0.293517287868666
0.29458480429001
0.288411679681033
0.297558510694101
0.28709310905218
0.293393694352654
0.290476516312712
0.294674298958737
0.287030829862036
0.284700516686769
0.283245187448494
0.281381304659623
0.283086027044863
0.28802905434038
0.278755925849229
0.281502746793078
0.27846960644085
0.277707381670051
0.275166908830763
0.278846227321491
0.275046297059652
0.275176339996292
0.273260321981573
0.277216407545289
0.273500895858556
0.277793625021192
0.273423318480473
0.27047657220358
0.268297115393759
0.27605343268199
0.262127644832395
0.273418687008752
0.26809270880784
0.267245154249432
0.26609500253002
0.266443408025357
0.26048171030638
0.266534707333035
0.262202065403322
0.262849985981274
0.262442732183568
0.262689880979296
0.257961998916301
0.264224791773878
0.257079760448772
0.258813468549977
0.256240280647705
0.262997649745762
0.257387175735733
0.263013111593056
0.256323218741354
0.262216751372822
0.254651192775872
0.259164255115347
0.251978100355195
0.254954794896703
0.250581313362847
0.259077888895765
0.249219421127644
0.258706354744401
0.253932737395874
0.257525362774654
0.251480138601097
0.24972901200701
0.251261181992588
0.257101566773835
0.245353381245641
0.252377686360887
0.252339622754207
0.251620188632751
0.244472144540567
0.248877211804236
0.245504496718536
0.247719730404677
0.243484826532806
0.245748228438305
0.24333650033316
0.247237798755259
0.239516190836115
0.243307848528591
0.240501023032478
0.240406718057432
0.242213186574229
0.244063727583394
0.238195819529464
0.243064799681532
0.231970791700502
0.238720361653363
0.231682188360209
0.233627744374923
0.233135031605069
0.234454330941965
0.228187048679289
0.233414451119031
0.228777742670143
0.233918024818893
0.231878760401089
0.22917112674507
0.220141627368816
0.227465841909584
0.222759350045508
0.227265556390206
0.221952338629223
0.225754588854839
0.220403363967393
0.222993052148233
0.218076675413396
0.224300774270033
0.220758798596045
0.22065401510893
0.215073878682808
0.217626319373146
0.215014986054985
0.218044293518674
0.212971309970755
0.216263961170567
0.209978171945433
0.217635843312836
0.211935945038717
0.2147351609664
0.211732188246866
0.21117001159903
0.204752665553345
0.207640279372904
0.208687623530345
0.209231923379862
0.204105792760142
0.208245262069248
0.204177555140037
0.202471992207936
0.201405113967802
0.20147389455507
0.195385042176689
0.200872671099767
0.197227395339584
0.201045228077174
0.194974238908082
0.196418956639327
0.191199854917072
0.196612639324162
0.192093860855482
0.196839109476571
0.190100709256924
0.19213410705234
0.187576227690852
0.188600312310793
0.186839290648091
0.188897826138575
0.184355943892338
0.18658827452919
0.184088605537045
0.181341246483295
0.180707422548574
0.183686313614829
0.176766635304525
0.182355919426793
0.179768549592717
0.176663967282969
0.176544259072625
0.177948791102934
0.174160766786359
0.174643331426978
0.170348425523972
0.170984972170254
0.168362254302504
0.175853122949027
0.171081601983278
0.171814888884759
0.164674323875534
0.170360147400167
0.167922925415565
0.16808006396675
0.165992053949544
0.166393755621273
0.163583449302833
0.165830045891805
0.164185334997807
0.165878457433259
0.161968414068558
0.166942285015117
0.158752554215367
0.161891007428909
0.160717235377571
0.15970943146543
0.155005606899158
0.161019388798857
0.158360262887317
0.15787428747952
0.154292908243014
0.158560321397381
0.156083966838142
0.155914285304174
0.152229202806607
0.158081390671087
0.153281454428581
0.155384395536397
0.150375430715207
0.153519001796206
0.149414321556945
0.15200111396405
0.150445357918939
0.152890536190428
0.148676202262856
0.148544953900525
0.145303549721461
0.152620522135061
0.148127749941608
0.149242672997485
0.145075641751476
0.147137474426896
0.144072762312341
0.146198157791829
0.142838610988903
0.147617030194182
0.140543382926067
0.144182660205812
0.143610802178628
0.143619011232176
0.141330907537591
0.144996831774359
0.141867469827213
0.145128439118322
0.140949366827253
0.143137367952908
0.138608035976993
0.14021203118084
0.138480735602401
0.1413855164958
0.138744974406495
0.142082150192164
0.13609563769041
0.139019699342294
0.13530556127774
0.139445736559666
0.136467429678874
0.139967917861124
0.137231021516787
0.136880721435336
0.133187541695207
0.138957375385622
0.134565560087437
0.135602589134421
0.133013132444278
0.135364847913881
0.136396589581147
0.137988109453234
0.132706895832675
0.138224792153831
0.132771219136853
0.134618413232912
0.136080520531726
0.134659417288402
0.128117679588997
0.135321786153574
0.133267787982769
0.133423769375591
0.129167946526555
0.132020331409405
0.132220247662407
0.131957978011137
0.12823136900524
0.13286251242204
0.130060017532531
0.129302525800156
0.127758627733239
0.131726865056518
0.129103677421699
0.129183835585471
0.123727773823782
0.128737196588114
0.125997693053767
0.125631907869434
0.123857103206716
0.126751937129148
0.120015451926474
0.127212782387797
0.124212617239453
0.127246295016393
0.123404391174511
0.12656777788868
0.124672084015394
0.124143090062324
0.119851568237831
0.122005593722036
0.12020329349122
0.123404685732969
0.119390467423378
0.122250735976977
0.121706864662324
0.122523581974621
0.118457020696242
0.123572817746788
0.120434687966108
0.122550053674927
0.119182416659353
0.12009702748313
0.116775267496297
0.120349656299517
0.119211681507536
0.119840388396867
0.118096780972381
0.119851213675999
0.116499716810623
0.11929694630095
0.116559699029421
0.119933626830227
0.117547685024095
0.118212425139622
0.11160481078075
0.115392210932579
0.114486716450351
0.116762956401491
0.111738957051359
0.113119536445323
0.113987260918195
0.113673444332716
0.113529412125122
0.115769583797769
0.108731116763003
0.112142334564694
0.112309410966277
0.112268119975019
0.109093051910389
0.110134869787064
0.107351826606251
0.111135351429572
0.110544019075297
0.108634026365632
0.104380429597415
0.108717968665827
0.10616819199022
0.107282498208417
0.104170660213385
0.107993425077534
0.10455582554299
0.105887720366305
0.105598028232987
0.105154594429663
0.100326977312027
0.1034821280868
0.102088861135208
0.103046713689718
0.0994182053868252
0.101744752809504
0.100408073764922
0.10171261926933
0.0977490947963129
0.099769532692179
0.0985122152929907
0.102219377598263
0.0979482594621315
0.0999405142387487
0.0959205665744699
0.0996567501582338
0.094761169508494
0.098371807778587
0.0981705590132905
0.0972402686590041
0.0960916662313436
0.0991689436933381
0.0952476610246035
0.0983045530259117
0.0940472394299322
0.0931587034612785
0.0938772744425718
0.094100508545797
0.0931890094846651
0.0957480675286935
0.0919390062038273
0.0946788059913156
0.0908119070637614
0.0935770430407565
0.0926235999270041
0.0938557759407731
0.0908281195256248
0.0923191798442992
0.0889418274677599
0.0915573533579905
0.0894006129711286
0.0910930900814735
0.0872200480354845
0.0906660720394387
0.0883700137644021
0.0912473724101959
0.087693561871074
0.0887269595057112
0.088723451387533
0.0884217939988474
0.0841098130447083
0.0866015186461978
0.0836000069063226
0.086550724468597
0.0848304240339026
0.0866629081315703
0.0837571728358249
0.0869947041146613
0.0831645687484092
0.0857878002974143
0.0826127572046218
0.0843137514166619
0.0823302596985628
0.08626000776187
0.0816177879547885
0.083802358587054
0.0810459247840505
0.0826163915857624
0.0803864495788702
0.0812808093381583
0.0789889304155913
0.0810913300964539
0.0794972126528974
0.0807424515720473
0.0776463923958437
0.0805833596480514
0.076580966900326
0.0824348267272452
0.0790527467385123
0.0817701145981251
0.0787365971161389
0.0799834315846952
0.0782068253739859
0.0836227820052709
0.0822469318309056
0.0827769853141913
0.0753843125490454
0.0793993535412487
0.0785453996678153
0.0822352993042202
0.0789649359871376
0.0782257483765554
0.0753536655836059
0.0810789130283247
0.0774200870162612
0.0805856466348436
0.0778471587052842
0.0818706379524157
0.0795840114255468
0.0804197859501899
0.0723964558392528
0.0745413279285583
0.0689473998840563
0.078130264790928
0.0774485206835013
0.082597223959872
0.0710427317983148
0.0718725568410916
0.0739957065843703
0.0799910813655946
0.0689466133167923
0.0768044566360475
0.0700457375041653
0.0746363492237667
0.0747250077253985
0.0717129785217452
0.0670780682405922
0.072787526758048
0.0728546351903885
0.0839887126262003
0.0717368971924898
0.0807949012036732
0.074632284870919
0.0762756985514726
0.0687990161227624
0.0818257813184015
0.0707326040859436
0.0810185462534522
0.0699780436556383
0.0763150405927339
0.0701856468784752
0.0775425995690406
0.0708901752776464
0.0775592972418479
0.0674394540484784
0.0778101669024167
0.0685690664062943
0.0742479798759085
0.0628338686460265
0.0705874281598854
0.0647893988629073
0.0783738244595747
0.0710121018541399
0.0823033350701426
0.0703871627280137
0.0753068673171517
0.0666877261466983
0.078330146733419
0.0746125338776184
0.0740761928707439
0.0668584571026377
0.0731375957314386
0.0787364417165566
0.0717186389709974
0.0734165285378498
0.068157781160164
0.0847164383401735
0.0645655847626809
0.0757983399965243
0.0689107923743315
0.0815868996802979
0.0643533621051157
0.0833277826083004
0.0690191295244469
0.0739076524447239
0.0722290429252019
0.0732359977802702
0.0749525106350893
0.0722732401772788
0.072567771612779
0.069202012953993
0.0751743532077107
0.0706461848334211
0.0708004684016117
0.0720889182296679
0.0704724471975141
0.0718024251419388
0.0716987710512309
0.0725269891473734
0.0675913147378138
0.0692073179802017
0.0702099025526935
0.0695048210699612
0.0695940168961655
0.0691903730227885
0.0706286205865651
0.0689403828409878
0.0688468606668881
0.0690659827728804
0.0701540905297249
0.068222004960715
0.0697293725404236
0.0711540658090433
0.0692144975166923
0.0693693403380285
0.0704853526629735
0.0694757749754003
0.0702713332821855
0.0704296913054873
0.0698284672985472
0.0714411085266602
0.0713668366337175
0.0692533744324353
0.0701860725487838
0.0688864540321623
0.0694087141016755
0.0697256495851067
0.0712099178762201
0.0693053719280821
0.0693499971892745
0.0711014083730688
0.0724197679483106
0.0729409412227483
0.0725735278264914
0.0692371891322074
0.0713982829200965
0.0710309077309925
0.0701772627268447
0.0699142984346112
0.072354912621522
0.0700860419071668
0.0727289808481319
0.0734105752671834
0.0721597074963289
0.0699326870156999
0.0720654457178381
0.0717425781665141
0.0723336210719659
0.072628575031666
0.0715023552825659
0.070162442551798
0.0723024843642145
0.0695724772489419
0.0729093357861875
0.0721052453981041
0.0720462041261077
0.0739483919432755
0.0733422321097625
0.0697328429283462
0.0734086811474517
0.0728420219541421
0.0728902640156603
0.0718859588004664
0.0723314875229395
0.0718711186774324
0.0714513887036235
0.0707281980690605
0.0739887036273597
0.0731762295829376
0.0734829933024158
0.0713581710040488
0.0713437888630604
0.0719147142129462
0.0729996963199458
0.0729904042854761
0.0743963240219624
0.0732231176857897
0.0729462064929933
0.0735899739697968
0.0746723235086591
0.0734727336808735
0.0757455616037908
0.0740704792235774
0.0750019404585508
0.0731371496245005
0.0763023223610549
0.0759500875588287
0.0751114965879734
0.074733926867241
0.0762226612364591
0.0736145540973651
0.0761373837433361
0.0751447547222204
0.0779381382418058
0.0756627789436739
0.0761428003386481
0.0750643398993113
0.0775899829053474
0.0763945404111354
0.077807759946899
0.076270683763791
0.0754600887654866
0.0764069964067404
0.0793381806670581
0.0761777743125077
0.0780545950716603
0.0768017945712341
0.0767826334363508
0.0766270224641959
0.0794326834793526
0.0794135410511353
0.0782482197038129
0.0763308990057377
0.0787742405612442
0.0793025103196782
0.0784362109535151
0.0761687995497496
0.0782367237537961
0.0753718500560028
0.079703343901279
0.0771064815724608
0.0773563503057372
0.0777370356762831
0.0792116077961234
0.0782431488355896
0.0775700957209286
0.0766123222201037
0.0784809497825287
0.0758010427046094
0.0794268199866446
0.0790717635054104
0.0815778371243192
0.0803706378762895
0.0798895994343179
0.0791378592007723
0.0812437409271538
0.0782725896964641
0.0800116485967584
0.0792233666303123
0.0804676289436162
0.0797854662943259
0.0816649434446756
0.0809060732738739
0.0814427126244544
0.0805962117526496
0.0826200217760309
0.0813994853726583
0.0823305543897065
0.0803069255194818
0.0805158209789545
0.0801029362158678
0.0837144212195459
0.0830726200941462
0.0836074528980081
0.0821113465893927
0.0821355620335155
0.0816610369625673
0.082866273329802
0.083004076968877
0.0837470078923284
0.0801240554339247
0.0816137835277159
0.080927970946114
0.0830770034494052
0.080088813880015
0.0807074100609548
0.0804941016643529
0.0803693149435171
0.0807180570108496
0.0814466907428536
0.0795458479045293
0.0809193613769841
0.0783743515155638
0.0794106867916745
0.0792542842129843
0.0815919317248872
0.0789466733482975
0.0815936501991181
0.0803142811971532
0.0788765912209529
0.0771897220246563
0.0778705880000927
0.0786187986267211
0.0794125285669684
0.0802229565976162
0.0794321714885576
0.0774924249065334
0.0787290391827666
0.0772594568627644
0.0772605523490574
0.0776465786043522
0.0782120190267238
0.0772130745574808
0.078903822416157
0.0795056938581172
0.0780683818512357
0.0772102122074303
0.0797565654263205
0.0778056189632103
0.0802472093229039
0.0790723951090261
0.0775160796398511
0.0750595111580906
0.0778887451879646
0.0752065670665916
0.0769747608156402
0.077126366580677
0.077530836876147
0.0755910323839358
0.0744714778895184
0.0752468102592791
0.0782650812720593
0.0757352472941306
0.0776351150188914
0.0760125482577888
0.0753978144292322
0.0757294436829079
0.0778114526731789
0.0763613320802127
0.075153290091317
0.0748054347764636
0.0795142436406056
0.0770817737982973
0.075680491589567
0.0753648579694377
0.0752396431396124
0.0739411068196007
0.0757672880115648
0.0748354547710579
0.0755920565786443
0.0745318488609619
0.0746562910070322
0.0742624526873087
0.0759172662847058
0.0764448462781442
0.077521909762575
0.0778987333320556
0.0770993984740242
0.073895031351887
0.0742507477228838
0.0741912299918442
0.0768262478912498
0.073552171992687
0.0747841294031849
0.073074898342228
0.0748803995859538
0.0743186612138108
0.07498395316371
0.0734222651615038
0.075206951373063
0.0734959120892665
0.0730979214508783
0.0742687764292987
0.0749520958234382
0.0726103105770014
0.0737739111907058
0.0721894993660664
0.0717051242298301
0.0725127148070173
0.074405856577661
0.0738142522133552
0.0754409697708789
0.072987963627547
0.0727971765493663
0.0730377989155211
0.0732442573488319
0.0739554453348154
0.0741292673114375
0.0715898555080286
0.0715399291218423
0.0709141792272238
0.07193866423211
0.0703555982801741
0.0719340735039699
0.0708072379262972
0.0712925518933077
0.0708951616518865
0.0706745009692815
0.0701368295532553
0.0701342087731737
0.0682875942919433
0.0696977668819308
0.0700641397158273
0.0698196515966171
0.0694651069893373
0.0697198330750878
0.0696441362939477
0.0681914985902536
0.0663608781192187
0.0702254218511774
0.0666769025609531
0.0677361829603832
0.0656193520121322
0.0680668771756194
0.0662186401612355
0.0666386318082545
0.0658811629924976
0.065913956727187
0.0672932925798218
0.06958857135022
0.0691832976790037
0.0684713157269394
0.0659905460854879
0.0649239719248406
0.0625076382984241
0.0637241147553147
0.0632127751647541
0.0660709516447492
0.0627491428157981
0.0635662605236357
0.0638035256961035
0.0635085855429015
0.0616284516925313
0.0626634350438424
0.0628277443825521
0.063070585600996
0.0618550226727947
0.0625435769032623
0.0611019268533845
0.0631759207801974
0.0615296777927902
0.0596548572103879
0.059421828293141
0.0610323894948541
0.0600278941399106
0.0593770041392569
0.0633784860789703
0.0680891636414788
0.0625573457046638
0.0600899861646045
0.0617592707896736
0.0597204235548047
0.0600444068158749
0.0602866264734325
0.0603429696744045
0.0599050989013123
0.0585208238441137
0.0589528832879432
0.0588298897771838
0.0592931304668677
0.0561521094585368
0.0585969692041804
0.0594161482082694
0.0606384270975667
0.059980208949931
0.0592560687279003
0.0580390672124794
0.0590966924050148
0.057180238346179
0.0573264221126509
0.0591018694541167
0.0588910939791851
0.0590021163013935
0.0611998404073993
0.061507271472651
0.0614830120493901
0.0579534648431351
0.0576017893991916
0.0570809139687867
0.0578866505037588
0.0579682250575589
0.0571508319247793
0.0553821676635519
0.0563572253145317
0.0563634165071057
0.056044456858175
0.0559087274410352
0.0557157341145003
0.0531839191765113
0.0543933724015793
0.0560218845662867
0.0558069947066422
0.0528037892693172
0.0542297225846121
0.05459927590946
0.0542723302816364
0.054506005081907
0.0583687517579735
0.0517298240062619
0.0566842665705267
0.0641689129709923
0.0601535186597772
0.0539679511360925
0.055748949057512
0.0514200171900944
0.0544211200705697
0.0534835248167988
0.0535948929110901
0.0519694314103103
0.0536379730277794
0.0534474501534243
0.055494684278508
0.0543865394846779
0.0555786404096362
0.0516741388412105
0.0552643875961857
0.0551137748508682
0.0546628720830653
0.0538705706960833
0.0544775422232921
0.0520687000102058
0.0626157979725919
0.057005173985645
0.0555163394283848
0.0527180211809044
0.0527388683613444
0.0649463274092273
0.0638490942482016
0.0526400895283104
0.0562722632877343
0.051865424491739
0.0546894468779252
0.0540564136841437
0.0522824584487403
0.0529682557765303
0.0537906907257672
0.0534587115655106
0.0562007836673914
0.0552171666765537
0.0515211982900043
0.0535028677731979
0.0527060456549847
0.0516547206093582
0.052845171723782
0.0510251693556074
0.0525695431063322
0.0530517998610033
0.050414343802756
0.0522306767103703
0.0540758851659221
0.0545464501154846
0.0561022118944954
0.0529472522545673
0.0538570118967396
0.0544792476597518
0.0499109363234922
0.0571168975390073
0.0629213721644907
0.0561927544164549
0.0506301696692793
0.0533594015470888
0.0527359484061771
0.0547247578545036
0.0513733490301463
0.0521295575863022
0.0524179220373564
0.0519369416446702
0.0522569118928085
0.0549031069982215
0.0536967311101668
0.0512277041688057
0.0525404830050533
0.0532464051778951
0.0539354760181938
0.05184646199545
0.0535458555513152
0.0505750970062784
0.0528558538996426
0.0625668064267852
0.0642128704915121
0.0619535597254262
0.0602789145650528
0.055451418787567
0.0516715734365544
0.0530087731119677
0.0556452718320971
0.054188720595722
0.051823716543355
0.0527661231175621
0.052869911102223
0.0552843821009007
0.0528494335822336
0.054618055029453
0.0514984905290321
0.0518136691143149
0.0505544351325625
0.055966461857607
0.0518403839548763
0.0531370489100079
0.0498415313369082
0.0544680301541435
0.0526320391972717
0.059954167297201
0.0518088630819192
0.0515666444355409
0.0645672533794026
0.0702896915263771
0.0589808426354112
0.0524503548709387
0.0547827387767058
0.0510790643159649
0.0526017802653198
0.0535762948763431
0.059534260293236
0.0543676913462014
0.0544627890098096
0.05489597241778
0.0582400258065843
0.0532108416741602
0.0514955598649863
0.0610013338627665
0.0750159076252236
0.064270989365345
0.0576138089162321
0.0533123421620573
0.058111426843382
0.0679716627721405
0.0642010649647619
0.0548425610921792
0.0595500695367752
0.0565178467347311
0.0577425168339402
0.0545966518419434
0.0568601118386964
0.0617404563303588
0.0605243884902943
0.0566638174196291
0.0555946469981468
0.0580246423574203
0.0571483198206887
0.0591285735725989
0.0616784876134104
0.0616591621560891
0.0612291388019822
0.0585670093804155
0.0613495004597583
0.0575096612908927
0.0598452970571061
0.0598414330513246
0.0583674736135065
0.0631113634395494
0.0637371971444711
0.0624323874201968
0.0667933459802918
0.066362682897618
0.0624348754835629
0.0607896212165956
0.0669157745821864
0.0646662637762093
0.0577965116293279
0.0642818348380338
0.0725688540026535
0.0806213698567275
0.0665079585018441
0.0712058334518073
0.0593215050675367
0.066877377565245
0.0551942484286939
0.0645726533994039
0.0668682950132421
0.0743632650581921
0.0589770955340304
0.0625776151730957
0.0642977445333807
0.0704961502648152
0.0679658927999451
0.0656335766995091
0.0652059871507849
0.0628799749911454
0.0726286442144509
0.0686001412708742
0.0655387064851212
0.0807479724411153
0.0865688983770534
0.0816103464555336
0.0713506541889203
0.0698091340191533
0.0787235961839732
0.0793738909638549
0.0697621932613392
0.0712609637408405
0.0720450724626487
0.0668984895069859
0.0718052217830554
0.0900774539703676
0.0799859651303132
0.0705604834492831
0.0699681043675913
0.0732229186074148
0.0861658448708277
0.085236317101421
0.0727494131367118
0.0815654385288519
0.0728378274561713
0.0756765555141998
0.0906050319863976
0.0939913600759042
0.0854730274494497
0.0898461455549341
0.0962914533283702
0.0858162705218987
0.0900633366440255
0.0808149317701069
0.0942201712463294
0.0973442270183785
0.0904563904105794
0.078245440097055
0.0981810491499396
0.102105597966803
0.100437746446466
0.0900644652772476
0.0941517281051693
0.0829796025568786
0.10778160473659
0.132525563350714
0.123405412730876
0.0987962280920483
0.103182417550402
0.111625126683152
0.111890975417819
0.0997719156812721
0.105015621229076
0.104443878131662
0.104228471623514
0.109424321801296
0.115154376990423
0.112290540663317
0.115126228228948
0.111197078310126
0.114895574114032
0.123473010543596
0.165177297906927
0.133473474526887
0.137939711802703
0.125568498602056
0.143189956946305
0.129999588844155
0.131403043130157
0.129663930519399
0.136421443576704
0.139796984561392
0.133014782285513
0.134928374068917
0.151141503710256
0.146477686191603
0.162223463054845
0.154830309690551
0.160984943451977
0.134171345011086
0.170925808454191
0.204376307363327
0.207402332865507
0.171077229100208
0.172924074457823
0.178612395175172
0.222274678297352
0.206127327252623
0.189008449262238
0.19841796918819
0.198730547042047
0.204684947287327
0.219265055794039
0.225166284438416
0.234167805610855
0.229940122276971
0.23428585868444
0.245711045443512
0.301348066584957
0.302536840360512
0.280359076810648
0.273286831663603
0.284309719707869
0.296944233098718
0.293521493522307
0.299784470298085
0.297341605583682
0.325824613873264
0.339308227868488
0.349453792271643
0.322256917323328
0.349356700374261
0.344605789918348
0.365268968623217
0.37444838142477
0.403332447260121
0.378456563500038
0.381401801481975
0.395615739297034
0.395288885943228
0.404230792604711
0.421451880364416
0.437528163544085
0.429277066911075
0.428585371364739
0.434382912109532
0.436179644811795
0.448076574802975
0.445637415273454
0.456656366951627
0.456371669705456
0.507188774120127
0.5918418068296
0.509495166032751
0.469978386461515
0.46096191956047
0.470769702663885
0.48363305895856
0.493727675877808
0.501393416381887
0.508635020749033
0.48312405548724
0.471697572163494
0.479809013871945
0.475577066020212
0.489883409616227
0.473039865351403
0.481186836123349
0.487561330414142
0.486670523852397
0.505149324949962
0.538764848102286
0.501426012307428
0.467252428129391
0.489119077437408
0.481232612642775
0.485389449012514
0.465759742300494
0.482838401580661
0.476209116249757
0.477925673511428
0.454771790676498
0.460351091301667
0.46993672197187
0.485912106726915
0.453404094643744
0.447558498107727
0.448684412708681
0.444568772799616
0.425388617232205
0.440203720489018
0.454426402268594
0.437018034341337
0.412407375347615
0.41954827701181
0.410792757737551
0.412272313088268
0.402029733935455
0.414275604065334
0.39756828333181
0.401836978171253
0.40071786542395
0.401751520798348
0.389188962981461
0.39591738230831
0.389013400751488
0.391228465678806
0.38806634028359
0.389246972999943
0.383637121681763
0.385102677217194
0.383841476038063
0.384401896887523
0.375710168239844
0.376962786068837
0.382631715488212
0.382879675080192
0.378839047726687
0.382090836743457
0.374949997521435
0.376363246972428
0.37175401018581
0.371595589549387
0.367317649392383
0.371071297485718
0.36897237346713
0.360787153422854
0.363603661972021
0.365471001671021
0.364299813044524
0.357041096729219
0.366814344294744
0.352195408915704
0.35660794169424
0.390663071593887
0.386994492139761
0.35419298753326
0.341061658763123
0.354592325890054
0.33149887756241
0.347907028342251
0.358601384471164
0.365475692977158
0.337379358478509
0.336336839868003
0.328573687959382
0.337497004955818
0.325518204890598
0.331986723693212
0.309343771146209
0.3207409093183
0.323154170374071
0.373692526424723
0.370218742362991
0.365342636993621
0.335591009116493
0.293243976119208
0.326899707785571
0.318761705100288
0.315202275253081
0.2913492378836
0.308603965953284
0.306604289336735
0.305718923588685
0.294464851875615
0.285554287625171
0.281612445948689
0.284080581628405
0.300230415062331
0.288629431502233
0.298321810578796
0.30275448223718
0.293045747943396
0.285384331061892
0.339941034814278
0.292123093777272
0.274342518193153
0.264605609670383
0.258451550084026
0.279021458116629
0.276960827369259
0.27310615478701
0.262539027253506
0.254005007911949
0.247370859032374
0.247686546408673
0.27053866833709
0.244564138178104
0.264268925763431
0.242311485031367
0.254412112440207
0.227446887654896
0.261252814270444
0.268703973457047
0.276720828196824
0.241975920457055
0.22906037413818
0.252356841799741
0.256902975178382
0.248125438320307
0.23223931262712
0.226409822756786
0.234932185461237
0.238956085167556
0.229170489798347
0.225402538379879
0.233570109714598
0.242065829438731
0.247741342391723
0.283771718145574
0.252877251665208
0.231174663028491
0.218409606742129
0.213303321753119
0.231553200009826
0.212360279098364
0.218656180492952
0.227527935253359
0.227135845029777
0.233279752959033
0.231356020070327
0.245832867227178
0.226489185039195
0.231653451587396
0.227855302034067
0.237444824406067
0.261862331251839
0.269638919388218
0.251701564746436
0.251886250292585
0.256421430918436
0.262908485518371
0.252798605560281
0.268098958026709
0.259470898998955
0.273522593863439
0.278290421623624
0.288221756649466
0.283328319152857
0.296715016562153
0.294033952457468
0.32899200724868
0.31566908476337
0.330857586444947
0.308704374305446
0.363786891136353
0.357638844089823
0.359082803676452
0.353179066761809
0.354434382475286
0.362362953531375
0.36256220929676
0.362069205853806
0.393125851992794
0.393843612637402
0.403371459620645
0.38079646163539
0.399637806129779
0.388846393790207
0.413007708528982
0.409758140367899
0.433563844554282
0.450109747528502
0.4526707993069
0.439385840347335
0.421015641104835
0.433461556568503
0.42420569795707
0.436351081759231
0.435063337122988
0.426465936655793
0.435535312228478
0.446730991241903
0.445402305717134
0.432664622369455
0.442932795755921
0.441818795313093
0.442046848956042
0.453289518729817
0.451365190674618
0.45283063354038
0.466495523471834
0.453237385740374
0.478047891905485
0.495745501165415
0.496541405450853
0.466971290686218
0.478516959802422
0.483888149348234
0.481819586411475
0.486257322928222
0.49612825703998
0.504994821264027
0.500866534646881
0.501609636899806
0.511661368867411
0.502912534276852
0.530300440977261
0.528430658791853
0.529613331424334
0.51136142942628
0.517701522648016
0.543253984956362
0.560100385063402
0.552500069704003
0.533334257419491
0.547128043667979
0.529121961971337
0.545188112716339
0.532461692868191
0.545591525397066
0.541914079382081
0.547232184913007
0.540897219933122
0.542122909026684
0.543278020598982
0.536409286072465
0.548513981084053
0.556179700255706
0.545595558462311
0.533658559864146
0.542479938596803
0.53473995030984
0.538858162109727
0.554167098256652
0.553332404983718
0.54484691108319
0.530064881113095
0.53994370329517
0.552166985865008
0.546788461102681
0.533375685244214
0.536889135164067
0.53585514385924
0.537914434624341
0.537832199515839
0.545192996489642
0.548501028150093
0.560170538689995
0.543259266501388
0.553400826615589
0.552565008398512
0.564320395937926
0.559782215168314
0.568663294916747
0.563325614146035
0.573112079222364
0.569748894769451
0.577997799245413
0.572707576896225
0.579623200177963
0.579515586222473
0.58590043882672
0.579216612677609
0.573271974171379
0.566770169996352
0.573799073047168
0.57571253821723
0.572001227202002
0.554075367948274
0.560187414102832
0.53997785633126
0.552991811651749
0.549657241204472
0.54894158585204
0.538783893935406
0.542345293771349
0.521381060214288
0.521754993753783
0.513294292140418
0.513360207069199
0.512559943374459
0.511696383346328
0.506603967099783
0.505520634402738
0.50020697738932
0.498465942498794
0.498533547530646
0.496738713160707
0.491344476935553
0.496980808185157
0.495360118291605
0.497627651457474
0.491091868377804
0.493639561349512
0.484206472261982
0.493155253492941
0.497517829787352
0.500087176451637
0.496326915184759
0.494387705640139
0.494664024856229
0.48884429418678
0.489772028995119
0.487206089397549
0.491729088776334
0.49018795665964
0.489689730934815
0.485900299772365
0.485225299075232
0.481994936654321
0.482922141208103
0.484101271213938
0.483605028931915
0.481451523734919
0.48377232225324
0.483744258313776
0.484775024647341
0.476044076533148
0.477284024865704
0.482668495461052
0.479541005672926
0.48569440308017
0.48467740572974
0.482667053364914
0.480181222881049
0.482902221553465
0.480818590966003
0.479362879431665
0.475429441706197
0.475669619278713
0.480211715602788
0.481284926196439
0.474876378032834
0.474200494298983
0.472875685722
0.469296229959245
0.466662112405914
0.468542836673744
0.462899664539478
0.459150846333656
0.455616695068676
0.450679560516268
0.445530067349081
0.44618361088442
0.44222299636992
0.4347413379434
0.434495680647922
0.431933399208439
0.426280917058539
0.420616886317077
0.419359606429953
0.424185858485894
0.421122020572064
0.415701807669485
0.412841936709916
0.415497951258965
0.41075844453863
0.411828988898119
0.408335795111798
0.407785402389179
0.408808433676641
0.410155956669636
0.409281687229537
0.411121704503826
0.409225379928237
0.412723895893871
0.411917278837496
0.412262796573291
0.414524162037689
0.418327784996251
0.416471823479674
0.422998378808531
0.422344990822077
0.426930748228541
0.432164548507327
0.431105984383463
0.430040270324659
0.431898116801121
0.431973092491922
0.435622182438283
0.435275725552786
0.437680234886313
0.435442138603892
0.4389283714835
0.435595861452945
0.434383139171598
0.435876644874826
0.438973719013756
0.437923843986176
0.4351651478375
0.433871673641601
0.435069078530643
0.430546287214053
0.433392428577488
0.434097352136598
0.42985284308236
0.42679369583855
0.424695310194133
0.423895206284822
0.425513970110956
0.421368218130059
0.421011655820968
0.41936111318687
0.417538642012908
0.41490719278735
0.411958751676547
0.412411825864964
0.413333613795309
0.408182970242627
0.405845172432744
0.403892096054279
0.406354789631395
0.403091753232889
0.401897692470497
0.401920159803436
0.399812177757845
0.397045101420054
0.397332948750897
0.395452606161987
0.397851755616144
0.397722467068281
0.395364400199725
0.39227423917467
0.389629263215336
0.387796038262648
0.386066342235663
0.383354807747768
0.382748527809074
0.379313639070661
0.378301582365731
0.374743244938322
0.375225668946713
0.369533158104382
0.369029264095522
0.365877285908309
0.362197256145023
0.356176305843597
0.357216320793935
0.355682325064204
0.349986872096914
0.351902757113617
0.352668572472626
0.351023473216163
0.350431871716299
0.348898924756487
0.348650376616381
0.349353649149332
0.347162114979745
0.343762036937151
0.343610349623513
0.341461468723002
0.338874418606654
0.334482254940422
0.332813071648007
0.328935040097717
0.323188519554315
0.320230519176187
0.31457114464113
0.310833350190868
0.30718064877738
0.305647100952519
0.304417405541837
0.304719656063195
0.305597404577502
0.309876831157163
0.312592628381537
0.318570888644245
0.325095444136183
0.333023608738226
0.344682105327331
0.352758670451412
0.36379863215977
0.377996827210154
0.395380688043978
0.41045666054576
0.425314361294301
0.441814587074304
0.460056201894791
0.47848157716888
0.490930168590274
0.505913803323211
0.525582821544627
0.54177737110635
0.55633190749057
0.571800612947282
0.589634948808273
0.601314169284976
0.616744496842966
0.629710869888108
0.645251573343788
0.658252935838763
0.672278657554769
0.686069147644639
0.688788074279137
0.698149703600363
0.710884744915753
0.71228312385199
0.724501013541187
0.72898106402533
0.728088432646822
0.733490401712848
0.737898652396144
0.736015260976817
0.744644849165205
0.743850691645147
0.741479833551688
0.73774719443008
0.738322426840887
0.741021641726112
0.740496158596356
0.740825894152228
0.739546371222289
0.742071913489969
0.74909763743141
0.753466455732927
0.755993042596988
0.760970826192722
0.769002085264825
0.771710745507417
0.780088297113423
0.787011790819341
0.794742334807966
0.797553624625106
0.806740314846259
0.81768325290307
0.819985209518172
0.831153531310911
0.848797899969701
0.866718548043315
0.871900943093944
0.884300041742151
0.898219279227358
0.914643895876948
0.918256718556053
0.926029388736571
0.935800411729609
0.946537812019547
0.956047469685851
0.940520555707379
0.947548587202041
0.943587782499954
0.940264227263943
0.938787249019742
0.940626482145502
0.933120647783614
0.929840484239556
0.918696497974837
0.923795798152903
0.924044903679239
0.931354096436742
0.942765362025184
0.95202791004346
0.959124109618703
0.977390006717638
1.00385659549439
1.00967027061212
1.01012569565424
1.0315272206609
1.04114006116995
1.07419861765767
1.07205920513525
1.10538525624735
1.11034379737134
1.13200397598633
1.13499837138152
1.1724260249111
1.19105980151563
1.20029941074178
1.20819640087946
1.23486327884033
1.26685925419973
1.25903987440829
1.28726801396982
1.32460767465703
1.33198362749377
1.37780557925927
1.39391493648248
1.42693232273162
1.4301765982644
1.48533286846063
1.47522225967522
1.4936753824845
1.53712804248764
1.54889658397961
1.55774690212195
1.60033437161019
1.56795786102563
1.60464719916322
1.60209517158548
1.63113282512423
1.58643497323962
1.5845326282183
1.61146796621157
1.65831834169102
1.58275934985201
1.58954351289935
1.64765534370388
1.61279067484457
1.54232801931566
1.58405163904214
1.60311042491354
1.63216135261132
1.6331884821766
1.62504038712247
1.59943993925699
1.64724144096172
1.66587439260266
1.66465664599537
1.60399995302201
1.72902122034744
1.74005912016585
1.7134718411895
1.76971623393911
1.74864613036515
1.78329444862173
1.78962407918455
1.74256431664379
1.95314753855561
1.79685347127172
1.92699267249658
1.84323593941878
1.82615858216585
1.77374441968608
1.87115331736986
1.83727427041948
1.91109195114253
1.91972246138173
2.00333124735695
1.98056006811192
1.97976329978599
2.01377788701573
1.92213335988379
1.94688180494263
1.9480343804425
1.90702896638167
1.87299777681305
1.93913804253963
1.93596443572181
1.95573605272973
2.0742259900025
1.88946236649695
2.00543046665683
1.90328234854427
1.91571976562137
1.8244461181631
1.82963639207903
1.75070543770374
1.74322434789233
1.70766985625021
1.65126100437089
1.57351993690967
1.6099594156984
1.54073529279491
1.45502017317207
1.3681859313258
1.33311152394832
1.26386767488647
1.25352088490784
1.21626092166696
1.18996589428592
1.1607047329871
1.18684292407828
1.14423602223772
1.14174108328298
1.12282926018863
1.12482962795306
1.10607469143498
1.10441666818063
1.08046404859245
1.05936770339262
1.06024943577461
1.04927231822166
1.03687083482853
0.997456589059316
0.975203946393484
0.942584743177395
0.92749512083024
0.909335189821594
0.876973860071083
0.860544002757623
0.825547760134741
0.801147419403535
0.780531126065938
0.734440597591215
0.703079778841055
0.675253517875567
0.636546234757652
0.618954977419902
0.588397108247614
0.555443767504935
0.532904719287456
0.507979456475821
0.479632061386272
0.463175815327751
0.443529469433901
0.428588130626181
0.410003900544694
0.397805092377517
0.389545144642513
0.376363888624807
0.368871680535278
0.364357120305378
0.354452160534811
0.350130917356826
0.343693007874536
0.342155763238271
0.341396869361518
0.339133364329658
0.335438642739689
0.337955136681481
0.336838022660169
0.340535172672937
0.34096145990613
0.347025522537876
0.340804349559471
0.34407784427857
0.345150120648248
0.348263021184237
0.356789967352376
0.354536086845995
0.352351727590026
0.354642462043208
0.348594204289159
0.349861262947747
0.343286502220974
0.340760615209597
0.340564286174619
0.338427573564827
0.329427288057142
0.335207298071077
0.334325129486734
0.335302906282221
0.330020303966043
0.329410249597528
0.332784341536616
0.332251106594562
0.332006128233526
0.33961193630806
0.339741869596118
0.341897358646302
0.34633375744478
0.35020323907858
0.348001508772499
0.34941973086811
0.352772703105768
0.355330633318823
0.360343050682421
0.362526923932526
0.363338053889472
0.368701274630434
0.369122622476718
0.368264038534272
0.370998494630362
0.371239337296886
0.365675085171907
0.374014251433337
0.376237624620905
0.374220453127495
0.372833147749815
0.381245050695317
0.378175848841189
0.383300310037412
0.393152696076953
0.395921518113895
0.403773087255054
0.41424085209302
0.419654113926736
0.426861266628553
0.435825027871402
0.452416975989109
0.462971647139606
0.488132090405309
0.490524396546846
0.503392866330252
0.507397381662215
0.521619943192551
0.520055127697309
0.51266471306952
0.510747949643202
0.504709263475576
0.492470804623196
0.494399027428371
0.490391929250642
0.489297035548691
0.481918168943903
0.464027075032297
0.464478449837511
0.461319100226019
0.45044490560624
0.461731379935866
0.457363371713924
0.457991480038589
0.463410763000841
0.472433556062185
0.457772885537426
0.467625661847598
0.462636852531739
0.452459062287659
0.454143973995829
0.448575072500852
0.445340203334752
0.44159214825037
0.42723319013844
0.435025795096363
0.433232152360138
0.426760775186694
0.414934100037723
0.426684376497822
0.417059786541015
0.417611718702576
0.405601626476331
0.414452193135782
0.417414594190852
0.407591944798231
0.398681897976755
0.409377342840965
0.400138104020518
0.404562755257745
0.398900277176801
0.401613900948794
0.402736522356058
0.404206772513221
0.386953115246751
0.391137434195545
0.396482198727404
0.390360294371137
0.389195534528587
0.401629112907465
0.395879070471403
0.386683823873502
0.385081841892147
0.390720520219313
0.381223312102279
0.380022972391259
0.388239929311879
0.379725591895049
0.370433141255869
0.384883977736611
0.373909804725454
0.372700314760593
0.375695050900639
0.381581155779686
0.367817347287975
0.380550606202608
0.376121662134608
0.371523541815368
0.363752323612176
0.38711978262314
0.378252763344528
0.378132478574616
0.378441571987283
0.388299255116837
0.373460154683329
0.398346991177291
0.380527094066376
0.389331760819066
0.378151393407108
0.398625049284213
0.391995106215679
0.410964897792631
0.388236738494264
0.409284226268024
0.422896435371847
0.424409464489123
0.418815249801512
0.42648720949335
0.413451555721355
0.443640141446852
0.415688847451507
0.432658995482667
0.431869284705892
0.435325491917128
0.439560978958238
0.468546988425655
0.459577585864464
0.479028745696952
0.469243782789589
0.481265404067203
0.490253232397397
0.490491331675257
0.522595082726262
0.528137648011348
0.55911592578978
0.58279866874474
0.565014684389074
0.597675436188079
0.607575440215661
0.61078949527571
0.607490806352463
0.647692061324502
0.644148032655227
0.690518499266189
0.661077390032727
0.681533914521463
0.654804103789907
0.667724353277441
0.668155697210301
0.700481810589638
0.662645363433831
0.671807467455474
0.675531233496492
0.64038281730587
0.628635973509884
0.674831017550184
0.639471736681662
0.634607826905888
0.64252143884964
0.664566750544288
0.649673739521397
0.646576044064393
0.635439869230492
0.658686380791501
0.624413921420744
0.643378394157698
0.593010538215524
0.624231449398519
0.624307934164065
0.625554471221047
0.590700825439302
0.636433685375643
0.595792551075127
0.625615795203478
0.60444949635011
0.626374618685123
0.589070297653958
0.61673686866814
0.594968518638889
0.581384840716849
0.534274211005843
0.608616670915866
0.552050010832737
0.579617008791578
0.580280968103813
0.632825421415844
0.593936075546219
0.605382656491622
0.611854616931662
0.606425764208008
0.556578043868551
0.607417450894098
0.628296868998933
0.627640220821118
0.566746854063232
0.613219407802275
0.617963977522507
0.631619035572705
0.605349400352771
0.596239881278917
0.593435886014357
0.639811565697432
0.596544354188469
0.655115996052652
0.62290308424544
0.663767415724186
0.587252188381504
0.651785153785024
0.632225754804146
0.683425752244834
0.639930988956448
0.714672046086081
0.622902811190903
0.660759012490522
0.68077909674152
0.705188794987233
0.689610665379265
0.754341189692135
0.666073023260526
0.768519167156202
0.707117710018604
0.86514890280883
0.743299553435041
0.771486557528776
0.760023179836323
0.825612116604953
0.770110602825345
0.843275784111929
0.767759196024819
1.00241632804078
0.820189701132753
0.946560144638125
0.811182269343289
0.868347856399004
0.87315171353142
0.821679918962233
0.797118334355566
0.954487356298864
0.920496296119954
0.790568871706884
0.840231909846573
0.930128081823276
0.660585528361904
0.831994735402898
0.69441252063737
0.852053508215479
0.794248098764458
0.721019012187804
0.603716247241456
0.905308810410079
0.764103741957032
0.916882871600228
0.785325889772286
0.976974758901564
0.732524448041366
0.797916862762675
0.628819908342394
0.754398419974218
0.752771144446048
0.672698069342715
0.73714902848112
1.22870861475957
0.665050389332605
0.83877448021066
0.696038258865858
0.917443619058565
0.786641772556504
0.916201452682632
0.692888579189729
0.934518258832322
0.632721857891776
1.26102389165052
0.641854062118792
0.863912179619146
0.692913388826784
1.45252800552928
0.913441589932104
1.57772796093178
1.09283935510253
1.27577937320877
0.721775775298892
0.891215218844439
0.592224223353733
0.983069195939374
0.67933332956495
0.769056028035407
0.9441625581578
0.722236290204483
1.1570099719173
1.18402785980619
