3596
4000.36533379555
650.420452594757
1
2
2
0.0881234201430445
0.0719195496766028
0.0820986809099531
0.0746007896620023
0.0830472735087599
0.0759821998426254
0.0844943924385354
0.065154340139173
0.0859384361030181
0.0734324713539465
0.0840584008589328
0.071550723758392
0.0800953314380957
0.0600105092189707
0.0870688220433631
0.0686703168959771
0.0843583186351641
0.0693893365618046
0.0844696516803687
0.0660681557963424
0.0820451066036259
0.0705825183428002
0.072066447192981
0.0742577951400122
0.0795671288379359
0.0705629785404456
0.080851835436217
0.0690652210888502
0.0795616714904597
0.0771744441725964
0.0830383945727783
0.0696128073341788
0.0786511716520765
0.0697990901482296
0.0831767964224278
0.0743251995441377
0.0805125986658925
0.0695287546372006
0.0787871450827948
0.0747721667586053
0.0903135814748474
0.0678836820570626
0.0866786073509197
0.071502440167939
0.0844408870434195
0.0752436858837643
0.0842669667854884
0.0667989423591506
0.0834834813941029
0.0719580582760664
0.0830388174653162
0.0653831755379301
0.0970768761502415
0.0847088071837665
0.0823903479250038
0.0877566679726658
0.0934769544539246
0.0668341455158324
0.081488310570802
0.071027998876394
0.106866738240203
0.0782372147340387
0.0819565194342316
0.0689322909847687
0.0777880362200108
0.0630686735821175
0.075687809317734
0.0711156609688904
0.0759949279866816
0.0710738181716463
0.07816905083856
0.0933503718434107
0.0982235231148526
0.0790135795233311
0.0874583092301452
0.0690018416816017
0.0761511266032362
0.0624775399475287
0.0733629071635609
0.078150861165209
0.0913234354513265
0.0715154160153871
0.0784984243923474
0.0615869367012667
0.0884624845149829
0.086129927213516
0.0659209825399485
0.0815870498086584
0.100230267959472
0.0826464646343928
0.07236284045141
0.0679092727207502
0.0794552957283811
0.0680260438300061
0.079709390614857
0.0718394427614205
0.0733532726520868
0.0694144521480846
0.0712413826822798
0.0807094103040921
0.0815930912120455
0.0762808526444982
0.110383927310804
0.0617397698352166
0.136838258270787
0.0720592787748568
0.0884089500455993
0.0988271684482154
0.0890250038383915
0.0829912716440133
0.0771888500471458
0.0751899192829503
0.0801151455823113
0.0808972158877393
0.0680154886827427
0.0945315839541606
0.0967332702346381
0.0800181280857872
0.0862694590481857
0.0751322871843301
0.054794476022152
0.0987051485738706
0.103016643420954
0.0792521811735722
0.0931105704214932
0.0650858269737468
0.0757567376893657
0.117595163232881
0.102292438918704
0.0734594252812485
0.0722627487686339
0.0674491185393382
0.0637967735966455
0.0651225109677793
0.112290485222707
0.0655060016858526
0.0795955426915036
0.0534800508143849
0.109164877622923
0.112077225482222
0.0904553222914103
0.0735531715610268
0.0636426227562421
0.0780886152209343
0.115542490699897
0.0780990646292138
0.065773374187874
0.0823535115695537
0.0824049291155688
0.0704054950058551
0.0729539418188723
0.0605066897207351
0.0877889111130899
0.0814542837764997
0.0391782844883831
0.118838764425384
0.129655184282828
0.0825766576215703
0.136281248955535
0.0656603766614095
0.0976260857329365
0.0595251736667924
0.081104396275129
0.0599678053424486
0.0866854694726148
0.0572936383085581
0.0885336535304095
0.0910226644620389
0.0795836839223827
0.0678410593098452
0.115756949770571
0.0843652818240822
0.0772914177482404
0.142337596064765
0.0803684314134641
0.062247493793109
0.11490649033234
0.0802338180010772
0.0666378753031342
0.0768756738547243
0.107110997298625
0.0665297035027891
0.0843417293446081
0.0596758929512254
0.0840300421324749
0.0819645415279123
0.0802830114671494
0.0713517947161938
0.0777759452376064
0.0575163469115831
0.0897857348409203
0.118153840722491
0.104167928760238
0.0704907345279646
0.0861465826730808
0.0339054996047989
0.133477609024034
0.0899075051723634
0.0840667681283427
0.0724181692388629
0.0694420137262432
0.0624550294522853
0.0721772471726866
0.0679381523986223
0.0671694095452509
0.0464124233166765
0.133702766312291
0.06942170001371
0.082768868025326
0.0613991801107434
0.0838703076684734
0.0503882720810927
0.143780826122728
0.0820820039844796
0.0816695457083357
0.0631236524783876
0.0726069013575593
0.0841220464214074
0.0929600278889527
0.0695522772111126
0.0825966109241413
0.0660892619762235
0.0843925357365166
0.0609841833193987
0.0695645266165458
0.0675794735728024
0.0760433565193327
0.0640463668040779
0.0740147618726021
0.0677744655960961
0.090600068625439
0.0671063476041531
0.0783496651784707
0.0724498115272758
0.0635297396446544
0.0851205335776822
0.098872159886682
0.0705349366324985
0.0734896848904021
0.0630230707766878
0.0776283427579613
0.064517249092888
0.0690436836186557
0.0703953272177777
0.0770206346236012
0.054649763010694
0.122355674016813
0.0615911396855744
0.0858649844768073
0.0503504882797255
0.116950483813153
0.0753316326933786
0.0860646274683687
0.0612073006204147
0.0835369049685821
0.0492557902684948
0.0850766149645806
0.0967285081486459
0.0863655414711493
0.062787164522099
0.0984500820779979
0.0684384672847095
0.0809621705470106
0.0665803138769294
0.0811695583923344
0.142078397958875
0.0866475196499747
0.0698775133673886
0.157066719776057
0.0789918460700893
0.0972194394493445
0.0654868832981352
0.0682763792779879
0.192162864087512
0.140598565376387
0.0689311753748049
0.0849696295079883
0.0956716960450745
0.0751537681964555
0.0839794225267328
0.0856641928594823
0.0934448771604322
0.110428444651674
0.119908047018872
0.158759914501534
0.0527776979538363
0.131155746445823
0.0918724053546331
0.0954357078523729
0.066980642534454
0.0918628648914056
0.0693255494600882
0.115071866229806
0.0908559937719945
0.121208926402887
0.0845787671246395
0.0915203123949909
0.10676895650194
0.0967801008594689
0.0731819011072399
0.100323672954758
0.086596334703086
0.0801110342609487
0.0841161312055012
0.0871343296572219
0.090087890360973
0.0821257519439653
0.0839243256953728
0.148468786316181
0.0909016794613281
0.106037007944039
0.117695953132852
0.103148608406972
0.0858402219985092
0.0910213931767282
0.0799710743243983
0.0928220679013159
0.0793865975110475
0.0871504251457224
0.121478349880461
0.0927455196494224
0.0951726376083266
0.0938566779267941
0.0802180902480141
0.0942872377102774
0.0927720290022995
0.0957807259628009
0.0905989180300579
0.0965594175406965
0.0776286632269602
0.116303910402597
0.118727480505216
0.077033663688626
0.144494469387065
0.126440366640935
0.0948981661826156
0.0996796232137582
0.0907636242780135
0.106957270786314
0.0910088184985329
0.11350543590265
0.0943894689694737
0.107398910171512
0.113713246705868
0.126327548863991
0.100730777374192
0.11930639428648
0.147243139315109
0.179090860862454
0.113360693258437
0.122460916155682
0.074433814087529
0.176434053287238
0.123982080051291
0.153375754999317
0.142769809338158
0.119980892561383
0.122172928601697
0.114560118513752
0.120324162378456
0.117717940398742
0.12539453993632
0.126517882627712
0.133277854116131
0.125931455742326
0.13301855514943
0.124790167270251
0.135191267772884
0.185355135100079
0.14098224998586
0.139928024559417
0.141537110315111
0.123082222499199
0.181349534638852
0.163433870103942
0.205381477898653
0.1805980640149
0.184575534459641
0.198375982554372
0.143326373012966
0.165915366139682
0.136229148807816
0.171085742981272
0.163301573994134
0.170783411829051
0.145224117103143
0.169872893079721
0.15396895444705
0.177961005305231
0.164098081750535
0.174026916051812
0.170512082378071
0.199372921931724
0.165792073427757
0.19356346813365
0.16050090052085
0.227324205589875
0.227271806840191
0.252181820522779
0.188103913761046
0.225772737016377
0.183456208918267
0.210807928474372
0.195909758477523
0.210216767452646
0.208855875970562
0.219863163509045
0.25553987103895
0.233599653329746
0.244342455593187
0.247959239375441
0.195823269375147
0.254244217724393
0.232742512094741
0.255659416533189
0.242810183868095
0.261785196705959
0.211646664516636
0.298118207285496
0.25370135104684
0.260330718152967
0.26484498125133
0.259787711254915
0.248788994402405
0.251317892931307
0.267533146378571
0.255181095848747
0.266660137321057
0.286729441898379
0.268542788233856
0.284627755582537
0.274430478303466
0.291878730991947
0.295006198529667
0.299706845447455
0.288919086163411
0.312137931587932
0.280212669699212
0.313385827179618
0.27685710103327
0.363186334694299
0.308967496253649
0.363755148733765
0.342789951006153
0.330775801434208
0.322203705751941
0.331944006928782
0.31896104985192
0.330585448756024
0.334517808226711
0.351901392459451
0.332947352882855
0.353141754645697
0.352375089130159
0.364529175180841
0.358470244389703
0.370745964784605
0.353332841260035
0.382893419548352
0.362385286913691
0.402239913586255
0.368627021432337
0.440751237259218
0.413380098991504
0.448530539267406
0.405982560562281
0.422252462369276
0.404054353919273
0.411175451517029
0.40837512433339
0.424755654345716
0.407478697908222
0.448280916427926
0.42144684756784
0.443096047341059
0.430002673801271
0.46185870676551
0.434404982317405
0.462871310631416
0.450103776699197
0.48206896596634
0.443522638625067
0.475236710134499
0.472348002763202
0.489041726366351
0.492683600532805
0.523527725070729
0.484669747786448
0.527017781482606
0.481042513925554
0.516739978713446
0.483269981080725
0.538946475718802
0.491153605502198
0.556222969545315
0.488835532192692
0.553379333089429
0.517897728185616
0.56587324224135
0.528430720221137
0.564115143125002
0.541658549032799
0.579972171379689
0.536119555631527
0.565277668918903
0.567670432185296
0.598155116045561
0.559627441956836
0.616420202873495
0.557755162485392
0.631224735739804
0.590956926401059
0.638274628122571
0.591683184319137
0.634066987085138
0.617073941831836
0.592746550321894
0.607217414267379
0.628113234559192
0.599797679312615
0.65512813322549
0.613530173502604
0.663498161199607
0.636140394849709
0.684544991224297
0.649432756326883
0.678045961210709
0.665257249947579
0.671128136628346
0.680193531324751
0.704681221401838
0.662029102790081
0.717057370944022
0.702850454844961
0.771464828627788
0.67526131162478
0.733131440802403
0.659601721945423
0.697138498833215
0.693352417063891
0.769121807029533
0.713890786736519
0.789720301368606
0.755987530183606
0.748605356824443
0.731066818109629
0.785735050217727
0.747500337840944
0.802434735855
0.792393470685197
0.813823814865623
0.775994975104016
0.826695997754645
0.769828603101848
0.808348265430629
0.790083425435964
0.842909500962737
0.754870573441783
0.839404964311858
0.816230731590692
0.832455009400152
0.8158534018623
0.858956720629105
0.802006230938937
0.851475367766753
0.798358461754841
0.873285154906073
0.798283403462112
0.857937103765161
0.835341020126318
0.890464454429533
0.817576178761814
0.928018128234456
0.874373252762192
0.900613880166208
0.889005200252437
0.922733309113941
0.896025348001838
0.954175185426125
0.873521136130467
0.952665191267001
0.892710389169658
1.00757356381425
0.880004648830167
0.954872796158169
0.883303962742619
0.999831907024114
0.943262778970263
0.986612236067811
0.944106318447869
1.01831088141489
0.91719236841118
1.00910837819512
0.960639864020667
1.04325258332101
0.935868037445243
1.02920778924932
0.926152672742757
1.0926517802994
0.991510991182877
1.03428050498517
0.968371790345072
1.03264726441897
0.97398272174645
1.05677352317102
0.99345469637892
1.01783054377581
0.999814601827574
1.13755091271417
1.08049929058357
1.13057691391175
1.04802186923398
1.16216401606239
1.03785826449302
1.13918827995853
1.08523355754257
1.09340058842726
1.10518328509597
1.0924038865112
1.04209307003604
1.14056099539898
1.10729149280788
1.17840517503859
1.03679065026819
1.13631322750108
1.08176490239298
1.21586256852752
1.03764405906044
1.11389269646635
1.11719547867542
1.18831611229263
1.05331224589091
1.11894165337962
1.02341701439811
1.14180704072784
1.05633277759214
1.19626636339647
1.12902139632011
1.18089082714411
1.0789536370239
1.21817108713045
1.09555568269102
1.21085195894046
1.10698809959286
1.31286406487338
1.14281821137506
1.24232635310617
1.13365370441276
1.23258415549857
1.12916708762612
1.20076156167198
1.11962623703689
1.30549229966938
1.20158819488152
1.23059954176386
1.21389640894004
1.26102373985534
1.25524195530602
1.33850237786252
1.17420195532928
1.25966179933287
1.21097830566762
1.30738332657602
1.18383285564232
1.21865512590257
1.21742369847878
1.28919947133326
1.21828145372771
1.35430260901731
1.30269412607947
1.36425141552233
1.19720655586605
1.35538153272217
1.18192208536627
1.2504727130357
1.17295074544288
1.30359965702646
1.15186388059599
1.33162622668777
1.26028483513207
1.37231206233402
1.25579074965093
1.41669246964971
1.18540079457276
1.48662049039748
1.26742216508437
1.36892833724933
1.27845681733529
1.39695285939497
1.2543808082531
1.46088906379735
1.28639229746308
1.33512508167387
1.26373623426428
1.28069090318223
1.2973273684987
1.33154570027715
1.27056244801062
1.36570045902375
1.2360958648042
1.42510246824898
1.30858077819998
1.43177712586396
1.41053714752741
1.42161210069515
1.1894554097664
1.27539449591073
1.26269090328377
1.42493588418741
1.2157462804526
1.38532157999748
1.32890126928296
1.2954459273434
1.3886024551781
1.42358035083536
1.27758733690121
1.41690620171583
1.37237065727544
1.32023322162896
1.25438936511825
1.4162097298612
1.28612052203998
1.43796390590317
1.39614993789067
1.40258093659966
1.24261617104877
1.36132721767417
1.36072761749892
1.40653413750593
1.25962123696934
1.3284373244839
1.32372101164182
1.44018124968555
1.24192178044071
1.46761227243995
1.26882744978447
1.51338932842897
1.24954993176561
1.41209393619866
1.34717624427592
1.33866363078455
1.20856727253008
1.34652084019744
1.26915863517453
1.40218340970024
1.3022326484535
1.47515220529605
1.34808800993013
1.39725633557012
1.3254015140156
1.32210333667185
1.24010936524817
1.43670630350696
1.29119689140701
1.33751713869775
1.34267916529387
1.3912911677083
1.27523991410602
1.43095758837058
1.29573694745172
1.38536821374461
1.26367033094055
1.34874189425505
1.28258040223262
1.38317934805067
1.29902205193883
1.38906935488498
1.32520135948054
1.46270755013789
1.26460009226849
1.36187796984611
1.32805817928499
1.35317980913142
1.32083885665864
1.33643983369554
1.26391629163441
1.43938203506946
1.29847178132598
1.3106630253306
1.38865404617817
1.33798551379139
1.28203945601546
1.45148092507396
1.32556536670588
1.33316815489199
1.33210402980997
1.41471317792512
1.24887048378679
1.42045412359026
1.26913496213135
1.28228779225864
1.2657742171961
1.38931695216743
1.33958172698273
1.32300914455342
1.28750969398567
1.39898244997576
1.32946285180663
1.31735264659226
1.30698279571012
1.36316775982327
1.29551694177652
1.3084223449556
1.25250987169069
1.36514283935171
1.30211180213787
1.35744201001461
1.23343707462428
1.33988498236147
1.21314468690026
1.30840893956047
1.24222544203533
1.26905540619038
1.21862518773931
1.30628108293209
1.26735808650236
1.32049835911861
1.27827367152969
1.23890140218189
1.23628637062487
1.25677507455175
1.26758369620609
1.26186776940006
1.19451768151465
1.25165904302139
1.21890778062971
1.28583569809778
1.2153839607377
1.2840906087572
1.24831484476539
1.26124466499602
1.21950612862101
1.2276883417401
1.1558242406996
1.26266921141207
1.23970829526281
1.21963557617204
1.16571324021097
1.24161962077206
1.16986215397102
1.17425462275571
1.19883023417816
1.2728589392366
1.15129993611472
1.21868576796035
1.17661758705711
1.23946914399445
1.2095076014683
1.23514569707889
1.16537641160398
1.21395535868309
1.13775756218026
1.2087412322398
1.14602334590951
1.20060479169853
1.12517267532998
1.12849635404997
1.13014705505689
1.18101763881084
1.10667937441121
1.14292501577102
1.14046178425521
1.12601596313455
1.07065297178476
1.13250671183426
1.08994334364349
1.09414581129482
1.06605967516199
1.12408163782154
1.08273842578393
1.09273828157544
1.0979952441258
1.12008940720926
1.05355347669705
1.12762459223369
1.06985908023913
1.0453751961701
1.05440560453941
1.04933726667711
1.03698977520928
1.06589913207123
1.05559846752197
1.05402157070623
1.02418862267594
1.04461954559001
1.05676256613131
1.0693233472591
0.983269540148127
1.00817352149442
1.00551437706805
1.02927974277637
0.9940649203058
1.00090704260007
0.984776851756722
0.997316544219973
0.970053734229772
1.0376373769314
0.983713852365266
0.983126865090772
0.977535413433251
0.96069286868234
0.952595737579351
0.962537524280836
0.942211564999845
0.992751540062926
0.938948568506364
0.957387968296862
0.944283098582483
0.946091165830849
0.92017506164347
0.935432373739294
0.930030405154008
0.942493788966079
0.909231628168151
0.914736466934431
0.888000929865452
0.909358601505443
0.89089687268005
0.90764616017851
0.871339602265601
0.891659270894055
0.878036484786331
0.867717062518147
0.861692026468539
0.881988926491198
0.862731908089822
0.879516247290916
0.840135934028931
0.853457019728882
0.844383956829351
0.842251223750298
0.826529440338627
0.849559210804021
0.815434331359745
0.843984312797964
0.818357567880808
0.8059689006353
0.796100213913071
0.812942848698756
0.807765556072791
0.807215855075649
0.818737679181966
0.774669566229038
0.772914817122528
0.78944270519438
0.754261517440552
0.77690049562174
0.763448670898873
0.792056863438889
0.767765403971997
0.769753873658639
0.759171824650867
0.77842943919016
0.748561626605291
0.748746881065466
0.738464525433714
0.762954519981703
0.733475328033087
0.742577048519347
0.723638961910605
0.720950174701374
0.712042622931722
0.725760155031204
0.702227589921704
0.71708451122052
0.702492997968428
0.710226575881337
0.678524989626208
0.703295359119175
0.699533317595016
0.689264247163587
0.688340853079757
0.693330676375032
0.676534591028402
0.677538480459016
0.667914529261343
0.678720244785207
0.671145002947869
0.665526626616855
0.654818755173287
0.664581780362694
0.651534275067954
0.647855560769614
0.649530414588458
0.649488675761077
0.634431351798995
0.644889524634766
0.643117811479654
0.643512673701148
0.620523592864905
0.629773591097483
0.624854064308201
0.609634297330048
0.610530898457854
0.62010199876311
0.606215883139963
0.617305404777703
0.610850745834831
0.613460478582212
0.597160296515407
0.594642343177202
0.595302200338204
0.598837607488928
0.584368130748298
0.600595169892861
0.579390250159624
0.582255712664959
0.579127268507375
0.570636890571767
0.57006848732047
0.57269833384114
0.560492924921031
0.568776092681119
0.550398827658375
0.561546232205649
0.55052367633384
0.553391268544904
0.545527780426496
0.549237215810531
0.54025721660507
0.547953879220759
0.53706550551282
0.541636219999537
0.537439548207978
0.529665454858286
0.522008281399894
0.532964127560771
0.521501700577416
0.521368637028145
0.520267692696272
0.526399162004333
0.51162961602467
0.517506316302995
0.515936082123633
0.504305695135386
0.494332708731797
0.50565031533952
0.502648532720611
0.505515514192402
0.498739784898646
0.495804556168671
0.488162140863358
0.486796191107898
0.478196120220224
0.48499065973551
0.480857600877295
0.476917725842027
0.475479037305169
0.485251421366482
0.47010988149365
0.472708625713813
0.465159074951575
0.466474602445141
0.464548872755962
0.463672561942604
0.462389555201927
0.46759870556974
0.460299713935511
0.46581271863307
0.454050027621586
0.447906842279814
0.450006710290473
0.453620619372443
0.443451968860644
0.44710527531689
0.447172741387122
0.442721341574278
0.442526922640648
0.444004868971975
0.440422686659772
0.44745717259586
0.435465418273851
0.439382581681266
0.428150643278451
0.442304180460072
0.434838022583192
0.435600216279045
0.434195877056056
0.442934976253074
0.426038291337669
0.43534579673185
0.439937818798352
0.440447957734641
0.437406263831391
0.447019111547007
0.436713917543528
0.441569962591295
0.43753512260757
0.445735184817509
0.444791167589331
0.447515398812965
0.447622931930795
0.452829543796102
0.444735763676792
0.449119330201329
0.441430874818443
0.45131913216487
0.450038385416076
0.452319542266379
0.445128823338013
0.457931061763373
0.458451766025344
0.461770572739098
0.458971400855174
0.463499032181576
0.46636566275401
0.464795332759501
0.469323623015533
0.474238811669294
0.476189618829793
0.477159637199068
0.466209130296258
0.481509189400778
0.483349699534497
0.48379811392881
0.480196699728074
0.476920989267988
0.483609731090712
0.491004747796744
0.47890844709605
0.498478486042205
0.496770688142514
0.502345203548781
0.502460581720655
0.497291447374094
0.500058103581155
0.514614813714215
0.51839661477011
0.517129259460273
0.513568206431721
0.526356693126766
0.517726921364924
0.529515927010685
0.537594184229495
0.540753765088203
0.543305451587379
0.548845905120843
0.544888954269184
0.551944928661175
0.549595948634922
0.561689369044328
0.555156690637073
0.562197953883946
0.559020370713505
0.563815157402439
0.560557298679324
0.573384233462255
0.573640155628713
0.573032309605575
0.567893023577998
0.574864859695814
0.56863183406211
0.575574547169993
0.588811652815242
0.579542377305096
0.577314766915941
0.58455430241273
0.57253401937531
0.567578217266909
0.570942386375901
0.570824780377073
0.568553800438145
0.566082436226733
0.556797823687409
0.56761893999014
0.557667483685954
0.567591581144811
0.559651478670817
0.567399456869574
0.565154123257417
0.554676644337902
0.561122551310589
0.56763545501237
0.563268698503723
0.560870296319463
0.560102641427226
0.565671888171385
0.557380176454066
0.552250634357719
0.550250936415781
0.558574240004102
0.566445087610371
0.564965130934119
0.556521307745856
0.557866315267654
0.558852674317222
0.564134804462439
0.567103361644876
0.564438459527231
0.553309042118865
0.561629933832715
0.561665668608995
0.556020605323089
0.549412364309337
0.559419569180577
0.568534455087883
0.560936239709075
0.55397898910768
0.553587973622659
0.54699114826768
0.556924519332716
0.553286214738618
0.554246977631997
0.550589135756498
0.549119332312566
0.540557750306207
0.547191179125838
0.554495357157862
0.549043428708653
0.543193194064969
0.543599676225903
0.537454402228247
0.536039654071811
0.531049304705339
0.524796077712378
0.519514963816487
0.530722999283332
0.527209070271175
0.512201297346345
0.51463170948101
0.510074250265957
0.499415596570692
0.508008651371282
0.499037563479818
0.497446088307041
0.495419066804096
0.483520432390516
0.478801528677989
0.481576173826975
0.474522912798415
0.468299319902291
0.46101224244923
0.465265828744564
0.461018694837737
0.454695980837825
0.462126180166613
0.450798025631064
0.442469136919444
0.452176282550046
0.445389917995227
0.448111190271587
0.440362651248312
0.430711037151195
0.427996500130016
0.432661073528838
0.418544417382695
0.418778177679609
0.418935160260629
0.415355698787156
0.409747834292484
0.406800512534536
0.413780232123786
0.408956951486507
0.409554457472639
0.407152322587345
0.399962408034278
0.39958748844855
0.395511145620427
0.396167958008902
0.393601644144541
0.392332198265338
0.390162165153721
0.392326052671871
0.388429100341115
0.382355906737732
0.380731933648244
0.379440893128328
0.374963869201111
0.378915600097289
0.37447413884693
0.376945401239908
0.377018806956671
0.365571777457568
0.369726816467273
0.363045246308539
0.361336462625028
0.36411612600286
0.357141873966857
0.363656442283105
0.359420010958492
0.355424621024276
0.350851180667083
0.354246754383405
0.350459924059509
0.349146196108653
0.346556990462788
0.346624736897542
0.34464842508776
0.337606650802245
0.337048695978536
0.337110466829746
0.335450760006946
0.332794599364502
0.334129966404867
0.335296851292308
0.330711445249603
0.329722855268244
0.330859336194124
0.329657449301209
0.328429100135509
0.326271917457615
0.323107623596071
0.323047610738112
0.324147450588894
0.323254535225346
0.319925081826531
0.319802959399894
0.318306892047487
0.318401484822918
0.318898025776168
0.314843008250283
0.314988309706765
0.312350344353167
0.310790821061423
0.314367045757449
0.31084261245742
0.308804753779817
0.311072684647521
0.31006032496575
0.306603686045315
0.306745587336415
0.304809385141407
0.305660711359583
0.308439292500412
0.3063075690344
0.303131786122174
0.30026171083539
0.300867326816162
0.300498483797267
0.301093931247913
0.300212350698272
0.296807734362934
0.296768123023249
0.293074896295757
0.293201999210587
0.29895930468783
0.296262472919005
0.288401907737842
0.291988919878698
0.29448992355554
0.292037088861236
0.288924226194428
0.284903474057822
0.29048927908472
0.288300294804442
0.282727163624082
0.283736214687642
0.283425564937591
0.281572288688272
0.284567886635674
0.282785078887641
0.278976270017305
0.279650086687727
0.282108955519593
0.282420787816125
0.282205658597928
0.28535197939543
0.281786107762157
0.275877866993288
0.279235693400725
0.281256613370519
0.278496794845114
0.279362068590647
0.277681606702645
0.275917656273938
0.276500592516952
0.275603489905559
0.277111645905225
0.275049034564116
0.276405171241065
0.275617881912058
0.271900679654546
0.271085964008003
0.272830634267991
0.272887393330056
0.274939399425132
0.27276955405408
0.265885960629562
0.269508341419855
0.275226451936814
0.270051988456249
0.271586647699267
0.269435498992812
0.264556883908082
0.263696754926841
0.266514277678626
0.265317940932477
0.263959850362284
0.263706252684473
0.260408707768412
0.262173617048386
0.264597551406059
0.261104234507713
0.262131945926681
0.258755449278403
0.26004745924341
0.258175806045064
0.259138056568731
0.255295897134088
0.25077345573858
0.252140462346697
0.254490401445651
0.251602681638228
0.249037126813706
0.251333654253635
0.253059475691911
0.250799181579504
0.246706758226576
0.245261985041592
0.248937523690878
0.245189240706441
0.245270043324589
0.245011828781375
0.243065094633631
0.242443069615254
0.242558777071652
0.240085204842072
0.240971537907415
0.240797916792683
0.24485647665211
0.244257111922344
0.238381237029464
0.238803332482292
0.237699027406148
0.23732086527377
0.239702266370475
0.235661528728794
0.236398381739521
0.23564761894608
0.234030740049621
0.233613443928436
0.231244239501221
0.227143025965243
0.227777274414128
0.225079476127574
0.229154094889527
0.226389643246552
0.227700509361691
0.226077313846971
0.225595071388178
0.224405508455937
0.222707936084337
0.221327311994928
0.220996050894443
0.22115162059969
0.220155200069963
0.218127656782076
0.218314437685119
0.214794904737989
0.213237658338792
0.213942417707892
0.215035533918178
0.212595228336626
0.211639299195628
0.210977853904266
0.211877563242738
0.207962102302332
0.20661445816901
0.2100473741629
0.209336925139098
0.204240763545608
0.20255998616668
0.206834014630619
0.205881115216934
0.202406354870451
0.203456211474823
0.197966545231813
0.200859709379334
0.199225630953368
0.197023087111519
0.197546856180597
0.196914182232899
0.192723976573294
0.191903176139319
0.192281723725407
0.195413649233856
0.190808195296414
0.18612532901058
0.184502054141489
0.189652366401335
0.188501509772975
0.187984496294361
0.186592336686035
0.18722159896143
0.186690760625892
0.18409153096396
0.185043048381638
0.184211098885481
0.18123656841388
0.185504467881603
0.18137813914141
0.180916061577031
0.180172931755868
0.17811709714928
0.17746254381263
0.180812874161508
0.178614532879477
0.178432995782018
0.176492914619038
0.178515080107474
0.177658643339278
0.177542039713226
0.177581589388268
0.175066484437574
0.173670976932632
0.174806638988339
0.1714042574168
0.175339484307087
0.173843550445515
0.170123651851919
0.169569371068768
0.171873681697514
0.170631660766227
0.171159531829591
0.16838122902752
0.169094417028622
0.169015880681206
0.168121109586989
0.165805083977944
0.164786466070093
0.162343916037055
0.166457672736056
0.167005109186063
0.164217620641049
0.162423751407878
0.161444239994863
0.162362661567012
0.163868429401477
0.162085543983207
0.163862939538947
0.16275098813747
0.163526353437272
0.160147039236551
0.163950957500456
0.158678848737266
0.160154539058902
0.159450141083891
0.158639934689219
0.159700405448222
0.160945726050178
0.158808480267236
0.157252919613707
0.15541481156389
0.156415998813949
0.156391688359618
0.157602645464928
0.156907334675075
0.156013202494499
0.153134262066426
0.153663894516543
0.153981633152766
0.156047810794999
0.154250833778099
0.156825015818297
0.153349510196831
0.152047089249434
0.153544183267357
0.154345563259438
0.153419668712515
0.155151060084899
0.153362296675033
0.152805086501635
0.151766199610163
0.15293675015986
0.149595942888244
0.151178561361458
0.148307523891112
0.152217842475009
0.15310922198777
0.15075870355397
0.145471820960647
0.151567981693342
0.149949555742179
0.148424834455528
0.148776911772931
0.147919840826493
0.149277733418387
0.147258629491094
0.141727491708155
0.14769112692351
0.145053788425815
0.144453020444009
0.142549755816519
0.144774297726856
0.143598438259088
0.144137891724221
0.14411448488284
0.143595516613637
0.141808109504614
0.143134334340678
0.142908752550609
0.142492351223956
0.138777627299648
0.141030670497276
0.143597884625225
0.142051192058255
0.139179613190984
0.142328674764177
0.138605913456704
0.137835740362552
0.137545946602734
0.140595238319315
0.138087487774455
0.139724787806404
0.140230404037272
0.140060248649218
0.135999942462538
0.137269788163455
0.13889436457682
0.138007478911208
0.13574047032481
0.137613958886658
0.133606476980209
0.136482889738924
0.13539352581587
0.137450007315794
0.135687450215211
0.136478789514115
0.13510386377393
0.134073470765045
0.132883035115228
0.134607067397092
0.12991307965758
0.130889713075529
0.129588154218386
0.132359624975149
0.133508787813623
0.131871444537229
0.13034962736447
0.129848297761115
0.130939238645409
0.132554155405363
0.128706886709003
0.129469145769019
0.127591493885668
0.127656714421375
0.127540926852903
0.126589942532678
0.123149609440423
0.125567875757358
0.123430442076563
0.122695464629282
0.122465927637459
0.123315255009935
0.122145777764545
0.124092340940396
0.124081772567982
0.121409936124312
0.118418693641754
0.12177171561105
0.120816859808125
0.122822022389157
0.118010479941447
0.119847715607161
0.116865232601647
0.116951866314311
0.117791208921851
0.115624907183908
0.114634119495553
0.118524659633024
0.11448907845274
0.11482096071645
0.114285492681486
0.115841564644469
0.113296711922987
0.115619405660554
0.11244095880472
0.110777568041737
0.112487243794021
0.114668928956727
0.112202674626456
0.113529366400527
0.112102403649936
0.111783361749265
0.110365497725778
0.111328358470334
0.112113485495734
0.109549808351296
0.10799357382586
0.111728990353099
0.107844680164385
0.109194556530883
0.108122928824483
0.108760502813032
0.106286886612846
0.106913421937461
0.106294689414314
0.107619176612771
0.107755317836625
0.108019058235453
0.103975609994581
0.107726397154683
0.106645429056115
0.107048850366512
0.105698856646362
0.103438498983949
0.10324550454885
0.10421962954971
0.102073926190152
0.102693600744014
0.100006770276774
0.103180603495457
0.100584398467081
0.102327112421319
0.0989416520372325
0.0978509183602855
0.100648730376887
0.100987875455965
0.0974946056959152
0.101056225248118
0.0993488186658792
0.0994181734675592
0.0960015109141408
0.0978982424283965
0.0974208788533956
0.0972338516175006
0.0956438517602302
0.0953633892836269
0.0945706009831154
0.095678492964077
0.0980365639376126
0.097237871267231
0.09380650996951
0.0962581155646813
0.0951281539526927
0.0979934483056281
0.0954232361615428
0.096142211643256
0.0952467143524357
0.0952587613863497
0.096027598564606
0.0969260097197368
0.097007001564898
0.095146213848563
0.0920736956143308
0.0954088343764501
0.0942800641463604
0.0968838900895431
0.0963731331997757
0.0946617861147538
0.0971160983566045
0.0968748385449231
0.0935884262437582
0.0940010310948718
0.0946895522939714
0.0924531389163123
0.0939809152079318
0.0927965681700731
0.0869815919570863
0.0871339686084594
0.0913237780996226
0.0927192310954463
0.0871928997877208
0.0860376383877636
0.0836623687955998
0.0849080671143314
0.0876408282638234
0.0909047879034633
0.085392736025179
0.0805163264176887
0.0832636315793258
0.0826582599982844
0.083212193328722
0.083384912682851
0.0802076732297224
0.0841685344448778
0.084237690671635
0.0837519732595789
0.0875948848762323
0.0857325050668759
0.0916818682018229
0.0857986054691599
0.0901201113868524
0.0829413207501895
0.0883358842886886
0.0840281739233223
0.0838078372838499
0.0833330036391641
0.0841895851024621
0.0827274335762176
0.0843164452847874
0.0813166240012003
0.0782059729699746
0.081362148343255
0.0801959599695877
0.0812059621821242
0.078032454103165
0.0848534999786768
0.0762910865161818
0.0898772306178415
0.0791500010575198
0.0881931258943923
0.073784376143441
0.099159023579493
0.0723151411472107
0.102633904627819
0.0668323475807406
0.0991628823827913
0.0676701029659938
0.11443397711596
0.0622368669928689
0.112536684035209
0.0613806440473619
0.116243242135264
0.067010361142523
0.109920167271475
0.0641021986706146
0.105381949624027
0.0711756156383305
0.0973622870879112
0.0798616844379193
0.090183468132791
0.0836624419335593
0.0848208688344299
0.0894477423730757
0.0886808569477528
0.0911774539272877
0.0865387590298725
0.0844974772161205
0.088204358465437
0.0810937257107919
0.0882626421751186
0.0804728955212383
0.0880487720893175
0.0815400231442188
0.0873374174557923
0.0824004799490102
0.0833096283787824
0.0806054772554843
0.0852196390148185
0.0821500544820348
0.0859207186238335
0.0797016957775174
0.0838816160558381
0.0804371364246717
0.0855391327824287
0.0803415371933414
0.0816749534103429
0.0795413007654141
0.0860950904789895
0.0813018889901922
0.0834497566310872
0.0779490644067641
0.0840893362461653
0.0794371837975379
0.0850939341069639
0.0809382697350512
0.0856232890523629
0.0807075129526075
0.0853843660045058
0.0800086651602259
0.0855675816569032
0.0815112715649315
0.0837190645454373
0.0804189670904556
0.0844989323437628
0.0794886446164781
0.0834202495153475
0.081449081295246
0.0851707498401134
0.0808327018466618
0.0834384213691993
0.0808694451272157
0.0847816140867618
0.0800256794859815
0.0857005127316091
0.0809651268758289
0.0859648096568782
0.0815672192796394
0.0847374067546336
0.0842561778263426
0.0874135724334602
0.0835277402536171
0.0838060526761408
0.0824042928947493
0.0850209268871655
0.0807075758713041
0.0846153790891563
0.0818518499133244
0.0861008333170865
0.0802774068363634
0.0854381389314569
0.0840966434158803
0.084386359565227
0.0820893880360931
0.0855281536691251
0.0810730151514579
0.0856091672608054
0.0813858617458705
0.085308935095643
0.0847559843054951
0.0866034199616006
0.0813962326029664
0.0837775283910258
0.081531996727157
0.0867502168405412
0.0839900711214616
0.084718684358992
0.0809296204787788
0.084600762018428
0.0835550173494712
0.0842686158930457
0.0831614337267209
0.0871700991493522
0.0832271818958867
0.0858185511380405
0.0834038289106374
0.0859008805488291
0.0821560447123592
0.0869997410464559
0.0849297406853661
0.0872361960822793
0.0823752576761826
0.0884895657219651
0.0871126870257398
0.087740354960404
0.0833475400374211
0.0883752198948214
0.0853760420087499
0.0880553141255077
0.0868849817285501
0.0877807839826023
0.0854029119490508
0.0900091835003738
0.0866356670144119
0.0880001910695506
0.0862366075746269
0.0889570046623746
0.0862623704345143
0.0874898237024116
0.0882001218168979
0.0905990290445876
0.0851955571828789
0.0894948723458605
0.0872692744322582
0.0891172156280003
0.0866160336027047
0.091490440710029
0.0889199135745573
0.0892837674648047
0.084905125372108
0.0871702119392477
0.0870801605132707
0.0901374860501637
0.085894447922762
0.087768547833918
0.0840204678614091
0.0895838466408193
0.0883422056679961
0.0902526705080343
0.0873987574818304
0.0905094467172569
0.0875559276675872
0.0898989572404669
0.0859459712805042
0.0896370609562838
0.0856010302255661
0.0901396918806154
0.0887091805563484
0.0908973885337857
0.0899476886441191
0.0912207054632264
0.0893460195361185
0.092619515018894
0.0891079502090219
0.0921261320203889
0.0896626748190485
0.0917828596493771
0.0904203172845206
0.0933070927902391
0.0907777442676752
0.0944605488396819
0.0916503552122347
0.0952779534629646
0.0916947833674421
0.0912017974856323
0.0883791973878022
0.0917091431050279
0.0911992616268525
0.0973652320622247
0.0927994758276834
0.0965002783725841
0.0903449936676106
0.0933732539197075
0.0913539667792537
0.0943694016430317
0.0903675530411572
0.0965560177792961
0.0916248883281913
0.0918683453214995
0.088924854997119
0.0936260857112472
0.0905468843663755
0.0912947925393762
0.0919243245177722
0.0909074364801926
0.089982642671963
0.0927670721666384
0.089804360357363
0.0920126916822893
0.089314844579429
0.0932701843424306
0.0887303379870513
0.0902182592479129
0.0897003604574805
0.091240157009985
0.0891298964949064
0.0888559313209488
0.0864492116589423
0.091042307175028
0.0880803287822122
0.0908733217641984
0.0874178045202639
0.0899364455307866
0.0870493447523482
0.0885920736135924
0.0857765198958406
0.0896913715652793
0.085445290858069
0.090146257572426
0.087624091545047
0.0892968823822356
0.0874462083344709
0.0899773519711964
0.0854684992951272
0.0888042575351155
0.0859904828067706
0.089317156271368
0.0880289047825144
0.0899996498731845
0.0850100563082005
0.0884700163570032
0.0841116279522913
0.0866152359041768
0.0852553484350699
0.0879266008072771
0.0823115110667204
0.0872033851585736
0.0853116802110995
0.0884947512833784
0.0846954699659335
0.0866910238000006
0.0830207043659818
0.0847523623201847
0.0842385588360701
0.0883441737880028
0.0864830799897564
0.0881985062821482
0.0841053563819748
0.0908771336478037
0.0858645050116084
0.0851477755034283
0.0833310039048792
0.0861290299497433
0.0827423779567418
0.0869059732358746
0.0834462807529332
0.0859334143275432
0.084307192340055
0.0845905843304686
0.0831184382830115
0.0859336809712845
0.0857990472710625
0.0869159445657407
0.0831677284619865
0.0844207948266248
0.0804520491498986
0.0840009313780175
0.0832641367763838
0.0850028106286719
0.0798256520232364
0.0837565621941282
0.0808205022137683
0.0856713191858247
0.0835511050134143
0.0861568901384034
0.0870958497702234
0.0865498654960665
0.0799765924992149
0.0850807663623063
0.0818957490393153
0.0850759505316892
0.0816941323944214
0.0829156040253611
0.0791970851417047
0.0804069885333938
0.0820320254476824
0.0839160606628858
0.0807080477298869
0.0836984488071143
0.0803551063274673
0.0823353462294956
0.0807761247506403
0.0832385463681776
0.0804830472746531
0.0814404237943232
0.0806966427622927
0.0832309312876967
0.0775961770880162
0.0825355622905244
0.0777214245683457
0.0833160931983391
0.0796812143456346
0.0813503120408916
0.0796583214051698
0.0790782677300089
0.0777424102483178
0.0791820206118936
0.0749653398601332
0.0815055336383906
0.0758730910082854
0.078214366321671
0.0759193012118835
0.0792528420437439
0.0761846038452653
0.0791603524381902
0.075043160609972
0.0784804494160189
0.0761891984645715
0.0756370094976567
0.0723923480284235
0.0780797155408463
0.0722178392421194
0.0740933751940512
0.0741992639582986
0.0758655250385749
0.0761215402116562
0.077514772823689
0.0793413050618319
0.0757381076347812
0.072715620267475
0.0753152286667277
0.0717477850669107
0.0726890988789084
0.071538723268349
0.0734092447290177
0.0699499882369551
0.0719335284409171
0.0703905499980344
0.0712113348452655
0.0693574477250139
0.069841027969991
0.0696474727802152
0.0710353865731456
0.0688695844722363
0.0710593109364399
0.0707181497028911
0.0712079403234743
0.0673857445437093
0.0680670937308288
0.0671390976074973
0.0671589036796069
0.0686353701231015
0.0653403264559617
0.0765559391624873
0.0766442536666554
0.0695551295893019
0.0687022749180342
0.0705030050118101
0.0696232327768434
0.0663493796421115
0.0707183346988675
0.0661129928249632
0.0692025426393749
0.0660927402113271
0.0685611786303225
0.0660090405610026
0.0657204280658761
0.0631820368105574
0.0691323582922845
0.0648592933599452
0.0688025218308328
0.0676155300821355
0.0707793133485506
0.0647108162896236
0.0677360715984806
0.0642976613097053
0.0661960833836132
0.0650701001545765
0.0660343815834571
0.066274740578557
0.075324728233041
0.0656010145287162
0.0696159031815598
0.0625291767415321
0.066978799560818
0.062990276889931
0.0678465658541054
0.0620210643218368
0.0631317420137016
0.0614175283897448
0.0645951261993979
0.0619832780981291
0.0628693963624089
0.0622230705914276
0.0666063461524165
0.0594955616114258
0.0656280997783882
0.059372910915005
0.0645715118789459
0.059542743071609
0.0637674364858897
0.0593776493523204
0.0666953541702798
0.0608294454994374
0.0686633999110757
0.0540964588095805
0.0719105091379748
0.0783437242812605
0.0635232724953117
0.0636498013373914
0.0617432300306401
0.0595487969467785
0.0622667146813787
0.061469444875252
0.060750664093453
0.0588933957414795
0.060824408071714
0.0620198380297121
0.0600217920147209
0.0615852724667347
0.0625017998547572
0.0582857739258506
0.0608629917708604
0.0625720216150299
0.0599675953849889
0.0637073893852636
0.0611766839108423
0.0637775578098036
0.0767076101651192
0.0639832154944711
0.0633888669042581
0.0602020536706936
0.058527535264078
0.0860710282050055
0.0658420240062508
0.0658960847675735
0.0603967555139235
0.0626375746299292
0.0588132220391049
0.0640430189390655
0.0560537840611868
0.0640737069714648
0.0638186587824796
0.0598352942779738
0.0670366661586071
0.0587371833061303
0.0605868983889686
0.0593090965729981
0.0602146625555495
0.0589505164528374
0.0605320884631766
0.0576375030238581
0.0600173909164625
0.0594052982626243
0.0584556200156853
0.059173284776142
0.0574123677794903
0.0639608118898288
0.0625407361386653
0.0587806145995663
0.0595408558579433
0.0619205107608472
0.0551325268456305
0.0670694862722473
0.078017013615953
0.058427225788521
0.0649624173157623
0.055346872652043
0.062727229223496
0.0600430312417799
0.0636629696629373
0.0537926532453919
0.0606350740212099
0.0562665499587217
0.0621580122018668
0.0589770241318463
0.0594604240538515
0.0550774661700675
0.0601605080783051
0.0582133349920611
0.0629523349243602
0.0579848233333366
0.0599400004047188
0.0618885154342435
0.0587453678026545
0.0778583369396539
0.0787352978566291
0.072370170060558
0.0699986265663558
0.0656838752599077
0.0593756085293622
0.0602839378843579
0.0609553007281328
0.0586516011713746
0.0624860001079806
0.0568637138594312
0.0609959838415433
0.0581578575665983
0.0619700197242857
0.0573849267261607
0.0612010894016953
0.057189821227862
0.0591605463242427
0.0563928827018089
0.0629439269130193
0.0549378508219235
0.0636313297003892
0.0547921040647825
0.071284782072313
0.0611225243217386
0.0688543202067544
0.0479035672591117
0.107235504956369
0.071282323211374
0.0713784271949113
0.0616837648117877
0.0608721711042082
0.0596784463931414
0.0598725371999179
0.0600589584542768
0.0677236108937283
0.0580310240428717
0.0602355874340407
0.0604347194772497
0.0663278815750998
0.0616355682581836
0.0580620212668602
0.0703724554445544
0.0950919116341563
0.065359481636902
0.0727521825123779
0.0555743438901253
0.0755158080217509
0.0844111329481494
0.0653959547217007
0.0688280261709075
0.0633026059449217
0.0637649467607006
0.0624368216711931
0.0615529589645246
0.0622636752335654
0.0712340275488946
0.0676802145564676
0.0626947536301739
0.0669699744769572
0.0610626359254257
0.0701961977795082
0.0641587663860521
0.0770276150194889
0.0752750425352659
0.065736243893495
0.0703608952350142
0.0679867548907554
0.0660038396072206
0.0669535159335614
0.0675007749845601
0.0654219442149257
0.0766876472158129
0.0789785330288859
0.0688644817924976
0.0846857988468017
0.0756681510182157
0.0661729815262386
0.0733636895882354
0.072039688457756
0.0808210861398413
0.0560748521767292
0.0885320571967956
0.0919204334509213
0.0823095491903342
0.0908565676107712
0.0670810535447858
0.0757880306514364
0.065049006302353
0.0715534262563206
0.059814217683994
0.0949626865094518
0.0651644478512996
0.0802756724554929
0.0581900715016097
0.0921258327548585
0.0764187643497839
0.08147264904124
0.0723558194973676
0.0766695593717193
0.0676279137396176
0.092613797331641
0.0728374426987311
0.0738876066624363
0.103267604909642
0.0988156286366716
0.100542209315605
0.0800436112225716
0.074429070872496
0.118484003023526
0.0748036142521377
0.0879676253168036
0.0717226941261478
0.0857162569250423
0.0676569305765072
0.0865168692021442
0.108185036603045
0.0859984368670078
0.0804732197764554
0.0854958644141583
0.0724360716317515
0.113481691435517
0.0856630433907893
0.0887282377229181
0.0827337477756685
0.0945323278890363
0.074064339443382
0.148109075733215
0.0926812673355917
0.112383784366189
0.10623366613515
0.108775042822435
0.104455817267782
0.1034043364787
0.0940794955236955
0.11096596165534
0.114766289605968
0.103465129851287
0.0848236654501032
0.126253765716192
0.121252625689958
0.101856269700209
0.109557763623532
0.0967734437079839
0.100476029449587
0.147065438902004
0.160457423521639
0.140174275715422
0.107979991657269
0.112986292676348
0.142000789190933
0.116303922232511
0.111214041599824
0.112015810320345
0.111510746862372
0.117304132553095
0.115694278041711
0.135064218697358
0.116193310726209
0.128216439211243
0.11650368973412
0.130521458042542
0.14374054066981
0.193099937371071
0.16595594433914
0.140472070284259
0.182298305267439
0.154585092776519
0.146632500292444
0.136706675374418
0.137681958105596
0.153391834058657
0.145507777947843
0.148649769455394
0.1400539929657
0.184568741907462
0.158562480835991
0.17134629805676
0.175754446604714
0.164429055741094
0.166517027902444
0.167869985839716
0.370127330689195
0.19170729069855
0.210980659227288
0.180861939454592
0.211544428636292
0.267613424231649
0.214116882894537
0.207095767345199
0.212764732074606
0.211087424073375
0.222289104386636
0.233691623282769
0.243769678410138
0.254362207447083
0.249860327736704
0.248682269497022
0.287137692289876
0.341709554912431
0.335716652614378
0.303919008842924
0.290589370000027
0.311634958046444
0.320247969505684
0.306268176830063
0.325216643087985
0.312333093864838
0.346200269145778
0.390109194026452
0.34967542849103
0.359411779149957
0.361756120314523
0.403451621507162
0.357310810741932
0.452704083899025
0.419036094808211
0.419600547789901
0.398628311087141
0.415172761893621
0.417361242972918
0.425480560789486
0.468125269779727
0.458510727040557
0.446407045094741
0.454747366068153
0.464393269201225
0.47364262203578
0.468391231801543
0.48149649159329
0.475262910135173
0.553910598047347
0.494244256596553
0.67495302085193
0.525595224383914
0.503045292894559
0.492825745658025
0.508170399491997
0.537748684983316
0.512252884978371
0.543973652982274
0.533973406383767
0.503818330743501
0.514791717790034
0.496185457293958
0.511879186062954
0.507916295420027
0.516774770761785
0.490466627684041
0.547762162577021
0.497423384861148
0.574377613450689
0.572338394583113
0.520965255512621
0.507809017882263
0.506662640975058
0.493392363834076
0.507067326852337
0.496922515075364
0.493462775746583
0.513169685742646
0.490912384838057
0.488289520337514
0.47244726638766
0.515059134233434
0.503390079994023
0.461987573997078
0.473239724607392
0.453428108729017
0.467442856663776
0.441556664087223
0.476270716524479
0.505059778872169
0.449892634499677
0.429624724654187
0.429189133725415
0.423729350392745
0.425629574062552
0.410529425555033
0.424478984775379
0.416670490907597
0.40561591944781
0.41825563701577
0.413904273758147
0.408194824077245
0.405460092970933
0.401330934739508
0.40644348226653
0.399247175164854
0.399566455018516
0.392319546485647
0.398340583604055
0.387270749063139
0.391943587568381
0.391400333243916
0.393784166174943
0.390449458045708
0.389022652331706
0.386016165553193
0.385918809338545
0.380361006154483
0.384996512870324
0.381795193989918
0.382963087460246
0.377049873876049
0.383496194328072
0.373698574784043
0.376592062475785
0.373753913317931
0.378284728781433
0.377027489769111
0.370029773522687
0.367270924276062
0.371001234391592
0.361471813003047
0.436457449734249
0.390397777941701
0.366395053149447
0.356720479801836
0.359048117368265
0.361800978395247
0.358082951735037
0.398601312476492
0.377348349937242
0.353146962626027
0.357671701951781
0.341712274070781
0.358153307903771
0.353236418914207
0.344014655126589
0.347369518345279
0.33065564135312
0.388884063425676
0.405959528557537
0.405112251721496
0.433100942892224
0.354673343520975
0.322906667869666
0.347497060413543
0.370644775276377
0.324116545631442
0.328645365584711
0.31651960254036
0.362339899648463
0.330355504005081
0.320456688365261
0.312754142628338
0.31200788265974
0.334600918972667
0.343108494911859
0.321784138355079
0.340001318946436
0.348476550876311
0.328905677082177
0.360805186290588
0.383301786596237
0.334800300097695
0.296897188135644
0.300602871650602
0.293342707690379
0.302960595248167
0.353740377255552
0.295396918108847
0.315770383968053
0.279993388609289
0.275807397710971
0.279405495836137
0.305031425105336
0.288248849131766
0.286271692647202
0.307931877845246
0.263993358279416
0.285696054320601
0.296942149102089
0.321072231135529
0.323561486198889
0.27682183172438
0.254739654721759
0.293225921456841
0.304222833210024
0.268978900996442
0.277100227469556
0.246836884540868
0.257686741386313
0.280622578810851
0.245949681020017
0.264603937604816
0.264543387457586
0.270840229655932
0.313562227194121
0.310765190207088
0.303986382432904
0.251108591546275
0.233965848256611
0.23731076778309
0.240524065086393
0.24362968252496
0.229498343786073
0.265913879961563
0.249347960797858
0.240348663348699
0.292558106101881
0.252314030516023
0.242136764583675
0.245052764932234
0.24429997612865
0.254847889096054
0.289503212865564
0.29818880824578
0.277412881561063
0.272614898908707
0.285918696314579
0.268200306982538
0.272809061156308
0.27225447601914
0.278035717460148
0.280614363484119
0.297463524091718
0.294889447330461
0.297175901188709
0.303231460017829
0.308125497885851
0.332557429208546
0.354864277724851
0.325215235874019
0.364799580513438
0.361664347054325
0.406652179395151
0.367407508431179
0.362242510475417
0.368751974072768
0.372647591902668
0.380190066903612
0.381185094461963
0.398523476043298
0.425365730757268
0.401706451743141
0.407121990468252
0.403461421654553
0.415142750351913
0.421636974803254
0.450462167199807
0.440992301306568
0.495178566132134
0.488871009056545
0.457670357529946
0.4453716494781
0.436809042770764
0.448107353021311
0.448491719932171
0.440884826973437
0.44593079058841
0.449213286503002
0.4816165902153
0.452538919437965
0.451632852142984
0.456296130963078
0.454166025429789
0.453827102198183
0.465787592775633
0.461873504510194
0.472155252599098
0.473965224024102
0.477625281823315
0.47833118703559
0.562236953669628
0.506015576339078
0.493657827593826
0.489032367837891
0.496916326006674
0.501707758397625
0.502803974979848
0.5204193591941
0.518859254286067
0.510858476059059
0.522005645859561
0.521563120841617
0.523439112090325
0.533814521291042
0.556986437409386
0.529932216521557
0.540579757721445
0.528675551360077
0.567990807669952
0.597600777154583
0.566122382397911
0.561404002309694
0.558255331883209
0.549938367981906
0.554749468955117
0.552548310201343
0.551006682826311
0.558371960524145
0.554862479216576
0.562721222669262
0.553677275935838
0.553032120441522
0.560818046036532
0.554785797531293
0.574565231167408
0.559478184187446
0.54477279089236
0.547124421084836
0.551726502880147
0.545259403011098
0.576115178926841
0.576357737453284
0.562328264024188
0.55795778390029
0.556636892934371
0.576708605780297
0.576380947321789
0.545486499190957
0.552509131191659
0.548628895381408
0.559311442810296
0.555383525904134
0.558644163632169
0.580477861189167
0.562537887981012
0.557983570761419
0.566726987210635
0.566089242665803
0.568313135239088
0.575338712823326
0.577708379257491
0.576661374981109
0.587030377531794
0.583904040394047
0.592655940018247
0.588983586564072
0.597034701999003
0.596362584859587
0.606203465082727
0.584859327004691
0.588628599886206
0.580038628466111
0.579028421993466
0.583022382688065
0.578786484293341
0.572130909422648
0.570278302886109
0.564037351718077
0.567227585628877
0.584763255370934
0.554831147427182
0.556944704379414
0.559726193222834
0.539607015048305
0.538437444819128
0.530449057869313
0.530871580086788
0.523307680782633
0.532086275732701
0.517405909727601
0.51357258712285
0.51265450370268
0.518022684457967
0.512682498860446
0.513040271594716
0.513334050943693
0.510632781675473
0.510129504333158
0.511019463062935
0.504601959105812
0.503878517943591
0.504602501599319
0.504819650528128
0.513711761246775
0.526039545951276
0.515804599927965
0.513746199382089
0.507087362901608
0.509870877734601
0.500221167644093
0.503900469557695
0.499191551709273
0.500754964185107
0.501346923137214
0.504974234217829
0.500838826275466
0.50167298733972
0.497970010553408
0.500415528415599
0.496631952484527
0.495435330720808
0.498186303120501
0.497753573394149
0.492299064057194
0.499952195178964
0.496194967102964
0.500291590917914
0.501719169338676
0.493685258817515
0.501797303747539
0.498879658113618
0.497876507604625
0.497483741501484
0.499569150897977
0.491739567788435
0.490101815854258
0.498321296745829
0.490219263087611
0.487395455116414
0.48799551340061
0.490405757167775
0.48639886496908
0.484101186159424
0.481331286596769
0.483508985189644
0.479271762502603
0.472703775644794
0.470704468656129
0.462640388570495
0.464328367149974
0.459806687891864
0.452830983139703
0.450106115492244
0.448081543335863
0.442968353842454
0.441158930760872
0.440033224547207
0.435126574344512
0.435125673112136
0.432614650122651
0.433589506499021
0.429793999314498
0.426917833846558
0.426181761742157
0.425774409637239
0.426263088146432
0.425307419604956
0.423821636688598
0.424521147343818
0.423637895376983
0.425367482784164
0.422159235569671
0.426422120973196
0.42588995157501
0.428662875059724
0.432404035832632
0.432846402687289
0.43105167091542
0.439185633153866
0.437293795558624
0.436225508456994
0.43982604197409
0.440843007157315
0.442038838283471
0.444159532467824
0.447301445235177
0.447473012017505
0.447563330261887
0.448590537713882
0.451821759569248
0.451486097423536
0.451737443896986
0.453831491031057
0.449069863186213
0.453757438926297
0.45162537128577
0.450474946091703
0.453359314136847
0.452786846912519
0.446035228467819
0.446827288095131
0.446526634183961
0.446645301881986
0.44223453358516
0.44083769854115
0.441451488699512
0.442029975214798
0.43621683722995
0.436130966292782
0.436549590872359
0.431865655018283
0.429815833953119
0.431674129170869
0.42793211758461
0.428305739753409
0.424421652989371
0.426046811868968
0.424286677244313
0.423302375192224
0.419280057229003
0.415684589802797
0.415393167353082
0.413049386935623
0.413328128243352
0.415692462453761
0.41242749174213
0.410502174200777
0.4107051393084
0.409650899936051
0.407197864117449
0.404154829389442
0.402787100848556
0.402162832172764
0.401062403312313
0.399489533477029
0.393996093568723
0.392513467716767
0.386472052683031
0.388083359629631
0.382702229080661
0.38202795251955
0.379697129880162
0.374484667352721
0.372395169172924
0.373602962037818
0.370582817551632
0.366422981702714
0.366328594495938
0.366301164437665
0.363406776455084
0.364970325858268
0.365667745495472
0.363784977168611
0.363821445014815
0.361670937743514
0.359595322662468
0.357439367428789
0.355852048690797
0.35224889352091
0.348122494744645
0.345895870901344
0.340606612166358
0.337463967232643
0.333839106534436
0.328622358359886
0.325481913346901
0.321229874052775
0.317218768264079
0.317530758012269
0.319798937552495
0.319996329151689
0.320553121976434
0.324601937684037
0.328878764066118
0.334068643021463
0.343660986314885
0.352605156930408
0.363758367023973
0.37391236290733
0.387491839669667
0.403099054884101
0.417999403799751
0.433232139547568
0.448387127847438
0.462877376069143
0.48280379188539
0.499857734113461
0.510794241463847
0.530071633577042
0.544421087118268
0.5597343075601
0.58002318743527
0.596333633585944
0.606525190875013
0.62643765501602
0.639290709410629
0.647350651337912
0.667472157869634
0.683034807017953
0.696185218443701
0.706278931759324
0.717152139211748
0.726302139873033
0.732733544635128
0.740418666605051
0.74965337534032
0.750532226450029
0.753541877075512
0.763866047808802
0.764219862015038
0.762400639261815
0.761182750403012
0.763414365287224
0.760252602657177
0.755645079735233
0.762474316808626
0.76210963944945
0.755269722140937
0.763496015911539
0.764456404023541
0.764231442169697
0.772257791340343
0.769837665369178
0.777494779833219
0.777950142158101
0.782035357816668
0.789741967140252
0.793345906275081
0.803810527896818
0.805115577598135
0.816735431216653
0.818267463302889
0.832242926942434
0.850610494102183
0.859440507195741
0.864303348650946
0.881130141416847
0.89418367391427
0.90395287471095
0.915476150439532
0.926153974967609
0.928679370801823
0.943689102698249
0.952608979805894
0.951971706251881
0.963944200537297
0.950242326223749
0.947153680249394
0.953174555118018
0.950483514241248
0.951026651238263
0.948683384287008
0.935237452818921
0.9298380033563
0.935589655993824
0.943378082137841
0.945018530712139
0.94992398682007
0.96313441005986
0.973052344401174
0.979973487214578
1.00570564911316
1.01464870408325
1.02251692012544
1.03867147121628
1.04947072140785
1.07062626851748
1.0967823414276
1.11312917181137
1.12383633346099
1.12229631469717
1.14656300600589
1.16860867456617
1.19284325164564
1.21050783039632
1.20290621690693
1.21922167351869
1.24356071968239
1.26683618262762
1.31171457578529
1.33507324964177
1.34786359290713
1.40514360761599
1.41709969064719
1.42629312299241
1.46232245637871
1.4794653470765
1.53214985616785
1.51758632366724
1.53173627230939
1.55060118423249
1.5746723331819
1.60351237491021
1.63114743577962
1.60544743870794
1.60760692065293
1.61359288180613
1.60682174844866
1.62394119196606
1.64043932710478
1.62672315981299
1.6142341476147
1.60250727450631
1.5952578147346
1.58591937864518
1.60056405126445
1.58261268689576
1.61843098581426
1.62101344553274
1.62344004703967
1.58830466587513
1.62517046432506
1.68326303069284
1.70540215121203
1.65740273999228
1.68307907420171
1.69783565235922
1.71858394044245
1.76104053664312
1.77253799249677
1.76827611695623
1.75471714650983
1.76581772899407
1.75396766914461
1.84458327474575
1.97191643149086
1.79815545561533
1.8440140972605
1.91176924296679
1.92459295620947
1.85707440708099
1.8542075044958
2.0500720043257
2.14482827056185
1.97831450186517
1.91555095793744
1.94843046901634
1.98330651478617
1.97100288567877
1.93300654112471
1.94478059102531
2.02460610114948
1.87855326010238
1.89423965274144
1.97734793716932
2.01704602326335
2.03507962248512
2.0513093777423
2.17195544017177
2.1611934231972
1.97615781091477
1.9557027039242
2.01055305492878
1.93055975981859
1.77030673464316
1.76282234871401
1.76093339595087
1.74027032391884
1.72888045555174
1.63162102714609
1.5115837203864
1.46143712453829
1.40573349759749
1.38248725704137
1.33937052786415
1.29635165979834
1.27624129025039
1.27632279222576
1.23775325097926
1.21872629473032
1.23439424416354
1.22452031433495
1.21904908061173
1.1937254120216
1.1590069072638
1.15712252842467
1.14317400861976
1.1336126463927
1.11141177743615
1.08962547525968
1.06006332471673
1.0416297482708
1.0216745099332
0.993440963444385
0.983106508605372
0.953918930197968
0.920973508121295
0.895342769642724
0.854590565003612
0.822296608214273
0.786094198021901
0.75554461004064
0.731930854833085
0.692363878690447
0.65824518063832
0.637988130326104
0.603950893477621
0.57273043830338
0.548513415125223
0.527933566597302
0.508084326770942
0.487036907101639
0.466992715377454
0.449630558653797
0.434548206137953
0.421847155837196
0.411165010706049
0.400365668718172
0.391945029188836
0.382437990225679
0.376669595786636
0.377113230097145
0.369708451183994
0.365886720558306
0.364821307085757
0.35901706740301
0.354425289280753
0.360824322394695
0.361852418108338
0.36279985972588
0.366262494222878
0.367602312801579
0.367709063859467
0.370601196620213
0.374464186226503
0.376534760114315
0.378890564245016
0.372590574147609
0.372709273459875
0.37571694615345
0.374506408413461
0.372971282349274
0.369423473876522
0.371162658871818
0.367444012000244
0.364673080630518
0.364750704929806
0.36245924098326
0.356920909911555
0.356780888778717
0.361000421096249
0.362403800859468
0.356087169806771
0.358679577492008
0.366748731217774
0.371808512946547
0.373114073541995
0.373697283663452
0.372919492356377
0.381929585577514
0.382262432239072
0.380242637732066
0.382299177113079
0.385613354760264
0.386063918688012
0.387167733836424
0.394273504005096
0.392941667632371
0.391881151881466
0.39525346211389
0.399298430624861
0.396845205937375
0.39571972564379
0.400218820912381
0.402968401656266
0.401637946565139
0.39806964133988
0.403922364639861
0.4095065403358
0.413881975225796
0.418759344706963
0.423044432230102
0.429488304133982
0.431062763343986
0.446866857030732
0.463578756801706
0.472282168335555
0.481636855736645
0.493043559633156
0.507783084614669
0.519068730534369
0.533200501928783
0.537642863821998
0.52947275764721
0.538055608535989
0.543123140206582
0.528177988554157
0.523699250310666
0.51010029887395
0.51011764248556
0.500943043153032
0.484962474327947
0.479749492605113
0.481872205260199
0.471224375878725
0.46638634052868
0.48246246257051
0.474758507778198
0.47732533664785
0.488277722629632
0.480675007060388
0.482597112937666
0.484764293241041
0.474273250726174
0.462222185173507
0.478139821222163
0.475701182170822
0.456227088989745
0.454433809991407
0.454848217334809
0.445306953235548
0.441364376820944
0.448717384384459
0.443065296564852
0.437069397527685
0.430027853947433
0.429740899790274
0.428661098398333
0.42816952711345
0.43249304206504
0.424308046175652
0.429309138117973
0.428731596602438
0.422614156952656
0.42969235057842
0.423760514446065
0.413308623135008
0.415408396243156
0.423900479640286
0.414104953538766
0.421323484361309
0.419639416530846
0.412275705359121
0.409648460486312
0.401283583768278
0.406117835903799
0.397825935214722
0.406748552876379
0.414001930694566
0.393569985515482
0.39776706942788
0.398603278458459
0.39474710407002
0.39359894341056
0.39380223125697
0.401681303339846
0.396724303313277
0.395140011808763
0.393786905586241
0.392252840522676
0.380982727034692
0.38375590832534
0.377857562596475
0.386862091474872
0.390869838214566
0.382377923417454
0.385787522952233
0.384367155406005
0.387484738469485
0.392711872979418
0.394797006783372
0.392325818855189
0.403727283529343
0.405505005038211
0.405858286634963
0.406928070035674
0.410800455899646
0.428869264376516
0.415227743591619
0.410813918125037
0.424017879988474
0.422062011696405
0.426161786553045
0.432419161976429
0.446957093487761
0.439046572308283
0.434868018836043
0.446115295389648
0.448638568674608
0.442326711895025
0.470592997709652
0.479831818182363
0.47584077774096
0.473721678717064
0.494717480322792
0.489654743907766
0.502369045975288
0.544600786194135
0.555732147308474
0.53978113150568
0.577206733458379
0.593219667422832
0.593041381832295
0.596685373292257
0.623390572911509
0.646607653001246
0.662716358977781
0.678628314623447
0.647560226444245
0.651659936076425
0.701438111610938
0.689051094023266
0.711190541725889
0.695925137817951
0.664845725740502
0.668092729839017
0.684338628143933
0.671869144177847
0.679490694194931
0.656241821456873
0.646128304714792
0.644265304720569
0.655750780789378
0.660043667209598
0.646763462893109
0.635790035392053
0.662965627784008
0.669219019508413
0.665301676081402
0.675533493006668
0.654810712202768
0.623627299606269
0.654351845641801
0.633967987440974
0.624876215045524
0.640135834963488
0.642368445849959
0.612690463331273
0.639851998465392
0.633962149732122
0.59875216596424
0.592559734856625
0.634881795657542
0.606058246414129
0.61673285605203
0.606385746366521
0.612883706176053
0.610755561789333
0.628505090670163
0.593178785192797
0.587568075216339
0.586328817212189
0.623406400311886
0.614541189357261
0.603210671319074
0.559426203334762
0.60354555062954
0.620962546546439
0.626537729686999
0.641234230847838
0.632967190160922
0.67157379306351
0.6536995508029
0.630486244293199
0.6250605964927
0.603871427723201
0.632920925357253
0.649623087868313
0.624216608756338
0.643257119452305
0.654357820653717
0.591493828101373
0.623206714024897
0.608498071810591
0.720037384382015
0.656558323229999
0.635459501862695
0.669841455343581
0.713996255671852
0.664793373010467
0.71361540718911
0.710915553857144
0.692709119996514
0.686708492495648
0.782126385215562
0.739893086151509
0.772502868823483
0.735138813118244
0.779014380313745
0.861481035031322
0.948053519564997
0.753024019624953
0.844954585713505
0.900905648984148
0.894246054856484
0.810482756462762
0.841641104769177
0.783571709346123
0.931982702338356
0.815099133080209
0.808176242345359
0.803637291069748
0.887023098694043
0.875940024230387
1.02091935386655
0.86197122376498
0.852016506574916
0.73745983242096
0.825077055545597
0.89955757811753
0.822067895075704
0.732090051770258
0.939909669487019
0.788328895175924
0.827308895563185
0.767854758217297
0.805365839914128
0.757909604642712
0.818096991074546
0.741969543704348
0.901297311971367
0.691196703727649
0.801994484140859
0.834433955010517
0.972655761905273
0.958974154406384
1.03390814530664
0.909660939817403
0.825228070637505
0.897837542794103
0.79354914687964
0.498854561133147
0.85755379473593
0.854362291562759
0.976926079603143
0.614229524058489
0.659795783433945
0.740377188291812
0.927798522107405
0.708433481828737
0.823116801353256
0.618929030989463
0.787844734448365
0.798670435292737
0.95370769637979
0.820768093002636
0.972018557891741
0.539288579066954
0.83047049646018
1.33052681403746
0.878409944366993
0.953472886920442
5
0.680998386442088
1.15585467851486
