3596
4000.36533379555
650.420452594757
1
2
2
0.0859827166657741
0.0702897522703076
0.0780019436721716
0.0674662948031309
0.0750974712312691
0.0687995858757478
0.0805183577091673
0.0656239427878553
0.0851814053667804
0.0732977095115122
0.071161722065674
0.063207213706479
0.0685579956005352
0.0610166827323498
0.0869361136084714
0.0638972921194154
0.0769858453451852
0.0657952602674201
0.0795441295963129
0.0596995475196034
0.0748364673537216
0.060894543536858
0.0776339112772565
0.0723025795259471
0.076770632368973
0.0649243778535703
0.0766789709677684
0.0675578048184185
0.0794890927522981
0.0750275084665773
0.0772484570396024
0.0612496395758226
0.0805503170858642
0.0714606911714542
0.0762545569785832
0.070099934778298
0.0755366314985843
0.0689779476341091
0.0798707944045088
0.0719479516636663
0.0831785531410265
0.0630606263210176
0.07978188859512
0.0655508678305816
0.082579839561247
0.0732588009253777
0.0774354914334516
0.0616118940148788
0.0732539082510563
0.063307795724577
0.0822283876236648
0.0643821596323034
0.091234131125959
0.0815776117457358
0.0762570626597171
0.0839047468850016
0.0879857150505065
0.0671147114420549
0.0737707276681646
0.0599223613519032
0.100188130884237
0.0831311768247384
0.0799654995017533
0.0681165839941487
0.0698391975759398
0.0685680890777097
0.0749799626721362
0.0637434059143206
0.065156138515466
0.0637914585815561
0.0728192119160066
0.0825168939731505
0.098666153873934
0.0691696591994277
0.0870656568177224
0.0713555264563242
0.0721619035149878
0.0697477674373451
0.0654669074057198
0.0745349225708331
0.0883712365690965
0.0671579990017004
0.0795136337524144
0.0630709973287248
0.0868565525662773
0.0869975600731823
0.0657114686523712
0.073202120422112
0.0955462304464057
0.0734253345032517
0.0685102168211364
0.0668929140621671
0.0696545206614926
0.0625159677482144
0.077123770419353
0.0673281517413481
0.0662813018014801
0.0679796369423341
0.0652634410430299
0.0755062389306409
0.0805430506541772
0.077037297903771
0.117603895615951
0.056083817757239
0.132955031127096
0.0773638569627193
0.0811292682512186
0.0980537958010283
0.0900458771948307
0.0764537959098468
0.0734382482866578
0.0672506065467595
0.0742842551840512
0.0753107011028437
0.0595773058723268
0.0897613505584549
0.107043130187486
0.0706605328737253
0.0783623057039282
0.07300301092977
0.0538219606056086
0.0906919376614651
0.102189110603406
0.084157462169043
0.0874277982318371
0.0656234878303813
0.0753006259674682
0.109344433629073
0.0926026970780042
0.0703254965257632
0.0688352597300184
0.0652378613026873
0.0584064412676341
0.0610379937808642
0.11428461430782
0.0705854247263779
0.0754742518077202
0.0488185668359632
0.103650442514368
0.114489321787345
0.0894838426600713
0.0682367691591979
0.0632691502443416
0.0784142047032096
0.112395149150509
0.0738741353714322
0.0693591493934512
0.0814913416695487
0.0798841777268891
0.0654477545329361
0.0679862165499796
0.0550948361261293
0.0867850810457006
0.0768086247719723
0.0394885954693758
0.116492045649685
0.12957437707585
0.0825287288348508
0.137616233940755
0.0697742768644396
0.0842700280028029
0.0589448181412935
0.0675136829304374
0.0569779388169991
0.0808245281121224
0.0518957869755767
0.0829839391997033
0.0904209928091284
0.0827830314969666
0.0608296471831864
0.115232498463302
0.0754962184473239
0.0718489659734335
0.12642756120239
0.0807866606927267
0.0619124069118696
0.100004960415971
0.0814910234718357
0.0618704630396222
0.0744756067701099
0.100315876448971
0.0649161322285408
0.0802696920034773
0.0527994936675949
0.0721208174288544
0.0798678020966987
0.0738864770764849
0.0689457361463386
0.0726888709976
0.0465561747734484
0.0818099696208866
0.11570911292694
0.110346188143627
0.0740217682834338
0.0767863354419146
0.0286597982812208
0.120894411764019
0.099862415956704
0.0801423274717895
0.0618540862329929
0.0702427768483586
0.0590986507154306
0.0613828642607802
0.0623610369998887
0.0592332335898865
0.0421067582812238
0.120572184015284
0.0716856671108926
0.0763835557841921
0.0629324360344183
0.079647617987283
0.045734154260327
0.142066075900765
0.0929997554543075
0.0804442783669437
0.0579020366528286
0.0686220637418653
0.0834635874632116
0.0884862232277965
0.0673408667028379
0.0744847828804476
0.058998281348109
0.0738673285813017
0.058836338734081
0.0640678123559826
0.0591751738798689
0.0706815660915847
0.0660913924469685
0.069866062037438
0.0643565793093396
0.0841133072838843
0.0640612642795154
0.0691958885780999
0.0671909333786506
0.0584731240993204
0.0723019238565597
0.0928680917067044
0.069237282666321
0.0743633404900088
0.0572447015715714
0.0704952266244397
0.0587566013125075
0.0754953885692357
0.0647862381365796
0.0656088147715191
0.0536870907623739
0.11103459077326
0.066719611051095
0.0829344296690051
0.0425172347175086
0.108100814663834
0.06955998302638
0.088233475365692
0.0532070063970543
0.0773157530789068
0.0481144567033745
0.0797833012068079
0.0993294815935671
0.0884385830663196
0.0565844731590346
0.0862929154455037
0.0638244708773033
0.0811069013185011
0.0546842337227826
0.0690915277771899
0.155097985920077
0.0864303608093993
0.0644361507581755
0.152280642975508
0.0843083227683591
0.0926741739517112
0.0567508763616247
0.0570753744528394
0.173340486272692
0.138013204362056
0.0713829113201317
0.0877543607206584
0.0908099416766424
0.0689432088141321
0.0835617734029945
0.08330112802008
0.0931387522167543
0.101528046540141
0.116823126807431
0.142417272197661
0.047304185367382
0.12437195381005
0.0863097037009792
0.087825032751995
0.0623091754603691
0.0815244732271422
0.064253090714934
0.108824097616979
0.0871040001524774
0.108138078503702
0.0757351483738559
0.0826146528283725
0.100596198916844
0.0973162583529733
0.0650870474624223
0.0942927193274856
0.0869173144997198
0.0763956034695096
0.0780090169696212
0.084498753173462
0.0856794021474852
0.0714131038496411
0.0682698476730307
0.153679151644166
0.0866846884608753
0.0966653414049521
0.110694588312324
0.0970966117487148
0.0768352694624077
0.0887542147428942
0.0742622250456718
0.088153389267467
0.0690111019725659
0.0785780901931126
0.118985658739573
0.089691454870371
0.0813715143444692
0.0837361304921461
0.070181731583939
0.0897613002558814
0.0795464648546784
0.0921171461695306
0.0829532557205112
0.0885662790258964
0.0746508831509284
0.111910511486857
0.124874303146764
0.0679293765752052
0.125781811149131
0.123732878482064
0.0874140189538416
0.093250044708682
0.0885078302672612
0.098759420559246
0.0814288635869412
0.103730807529553
0.0839161491397956
0.101073467362974
0.105520767416938
0.117406593529556
0.093734223518265
0.102144686254807
0.145425509988387
0.177174397445878
0.117022532419215
0.116521715640439
0.0726766579835711
0.156491340527313
0.119705621905813
0.149778649297023
0.136789719210518
0.115472876679882
0.112243922646411
0.113452652465009
0.110849597379295
0.113671718297345
0.116634149847029
0.120868413515608
0.120964209561242
0.119394841405293
0.128666406618041
0.114073749447347
0.122820749122563
0.175720789342582
0.126349882463108
0.129509335132737
0.130509195050393
0.120616533391268
0.175258446351755
0.153493102712398
0.188145697570741
0.165900881974065
0.174502633586543
0.195985280313042
0.136651943916272
0.158481116004745
0.135690126946361
0.155718461248031
0.145368597925849
0.157054216662581
0.143593184059322
0.158469519209938
0.15431743323371
0.169356616320547
0.161423277841039
0.164868520424489
0.155979022725057
0.189779766658162
0.159765217974492
0.187470198876787
0.152665270906654
0.223976223681949
0.218049753516555
0.253912695637094
0.184325415582884
0.210595868137755
0.171847520396563
0.195499392665061
0.181937052742095
0.199158587563702
0.191517073792435
0.202060074397896
0.240592935837799
0.229650762985902
0.229589003017018
0.228529013278325
0.192062991072057
0.244468350485302
0.212358740189678
0.240372992632913
0.236804438748677
0.237302766392026
0.195247756287325
0.273973129404308
0.233036036951693
0.254919387397497
0.254527287631424
0.250301976434292
0.232223973134667
0.246577531224992
0.24584103998024
0.244206749593784
0.243762766411395
0.266767898221086
0.259092877431881
0.269187420098576
0.26317001485778
0.271791736110425
0.288081265537696
0.282962016034085
0.265810158664553
0.300777280363344
0.263199530119204
0.302055268945742
0.264193721486649
0.33780926710819
0.301902239172553
0.336848549745903
0.314078033031514
0.31550724665685
0.289754757721065
0.317033220106129
0.29631677330007
0.315435427072176
0.31631904343413
0.342752956041896
0.311741768953015
0.343039887650932
0.325974243595496
0.348866824376973
0.328678430861799
0.357215593170588
0.333696996915347
0.375534497549098
0.349480745136469
0.360391186544299
0.348321679009663
0.429600037083331
0.363798245688206
0.418356457599984
0.398587598268022
0.402765204715793
0.38603381507254
0.404817678718184
0.392648507558112
0.414445775311529
0.4046046835953
0.410487845924788
0.396736649491118
0.419328846332923
0.413421212640715
0.419182718161827
0.411506328753106
0.431352809007758
0.441320470931451
0.461575347466308
0.420120926987014
0.480027162295441
0.443332336294781
0.452062538193032
0.465282335365213
0.476308121455531
0.468180348275387
0.496591661106489
0.483612224327304
0.493631801922789
0.466191063096864
0.504668685785404
0.499549675558958
0.498180813485639
0.483957965493424
0.511461007850049
0.502478244470538
0.522773879114688
0.503414215458036
0.536666321044381
0.516488660623331
0.554467464385574
0.506838858619041
0.574797670384985
0.524478017681134
0.566511176524653
0.549331354748402
0.578214550526366
0.536482889114326
0.594530573133541
0.568265750424412
0.624871021387498
0.569441905349961
0.597223100806958
0.571024258756624
0.610865757456064
0.580107590583337
0.615892235669352
0.606032791186604
0.597226034706209
0.58914356436272
0.645339108076501
0.624119558705979
0.646106959473905
0.623522706630415
0.662201667500584
0.623399847281583
0.666154443287778
0.644617850984653
0.676348047613347
0.625770717611236
0.710702908869452
0.645815319552392
0.703435605642104
0.645662507476538
0.718856268738737
0.658984550333081
0.711684377565052
0.685258901047323
0.712883803733073
0.690810392613455
0.708408272108085
0.721346934530753
0.745758459706643
0.727526204709099
0.754912936852629
0.688766749833574
0.800116174755349
0.707311420812174
0.730685226007656
0.779070656461336
0.826923817874629
0.764733083388586
0.827185083764872
0.75102810189154
0.809785746962617
0.746846726818458
0.79369732941987
0.777166798000458
0.809993726243266
0.760747373036595
0.853657884963635
0.778191454352845
0.828768950119108
0.776880615084985
0.896456973195385
0.782427070518363
0.825576460553732
0.771962906293968
0.882108936792025
0.784305290664497
0.954456496564152
0.858143388170809
0.894133534716599
0.862727651853265
0.936137707172456
0.857819020363147
0.922956962633191
0.873624748465939
0.945130496185427
0.878317137759063
0.90506914684873
0.857592740265749
0.960143026028315
0.858023913247871
0.975351327933305
0.926136855832608
0.982760905972253
0.923542766430122
0.976580040627195
0.969203421989794
1.03233692363896
0.947522017908502
0.950174709492761
0.925213164442974
1.00705336275053
0.954639356803984
0.97542885434448
0.916608936082528
1.01320938475398
0.919610053314344
0.99875876101752
0.915388369827759
1.01778872404361
0.929849897426285
1.01432279033127
0.985277242445556
1.07004645542659
0.973345649111566
1.04329699376573
0.978008647600136
1.07855197975188
1.00930875596427
1.07888074972482
1.05466004539666
1.14058396813128
1.03148121864138
1.11079680845052
1.00040708896675
1.15270535818655
1.03781022852187
1.12941142946024
1.08056407564206
1.11928059753672
1.05012000026335
1.11098644653826
1.03403309270023
1.0614133472947
1.00781663041684
1.1875132737178
1.01165871331564
1.0920229031018
1.05372303281934
1.16344310574369
1.13444048502178
1.13373079897188
1.12460386353731
1.19553660017753
1.03121491232267
1.11122902238648
0.977198384357577
1.09764258084613
1.1272444650296
1.17643130794578
1.21553739287579
1.28899242630703
1.12140083414858
1.18102914607341
1.18284989200682
1.18950999275165
1.16907602492787
1.24351730047294
1.10249661563898
1.29707482670877
1.2216793776772
1.31290587840907
1.17421893266525
1.27443368315802
1.16608626904355
1.27177312508328
1.10880995924691
1.21430160220908
1.17375738034268
1.25829731711161
1.18683084449818
1.24359602306682
1.09360001031142
1.23031983306202
1.26055067163066
1.2149781580239
1.16325489764703
1.1973989888578
1.2352472857835
1.26440535228093
1.14558468722358
1.27775048147383
1.16586056032874
1.30043977852856
1.22550063687314
1.34400456152363
1.22100088154277
1.3177729709663
1.23882854381216
1.22882400454076
1.25817829316607
1.36170422315145
1.15314181841795
1.33198426164803
1.21017313771975
1.23509287039657
1.23851140399764
1.31342286735615
1.21912466493529
1.29987161145077
1.1932532203423
1.32125565268645
1.22627479812534
1.20468105137375
1.26841578370234
1.29725802991153
1.21663876663896
1.28788277889556
1.21872189012351
1.30860742125178
1.22409506904617
1.39721411307567
1.33819253955021
1.27415091525909
1.17584893520242
1.31884855042291
1.3197002791858
1.41565875850195
1.23961512672163
1.39994573133689
1.25720418087438
1.33130423981634
1.2616833775472
1.34938772314898
1.30500379879071
1.35656290411876
1.25785248399815
1.29600866409754
1.27265200682872
1.30756647252765
1.20382684904225
1.29281507737981
1.17869743455457
1.35950307027337
1.29881714448391
1.29711092111592
1.25376741840112
1.30090082037099
1.31023542843618
1.2821960925163
1.28741371763497
1.27561141578303
1.30534096280004
1.35152570660322
1.24730524667254
1.34262177210005
1.31334356998433
1.34377545513176
1.24514951649016
1.25343788961804
1.28868670770386
1.26690609812479
1.23282803423589
1.37350004255009
1.22085408699944
1.27352090927564
1.28604739387861
1.36467837122676
1.23555681838276
1.27767041176266
1.25913773306446
1.30903013172083
1.20487304890404
1.24215117228827
1.22166987166433
1.28982552420663
1.22865683400616
1.37539481495477
1.25091390535792
1.3421102260207
1.28871405265172
1.32126596237561
1.21955241295234
1.40561330699566
1.26757207455364
1.33161950066234
1.23297303788017
1.35547015118428
1.23150398292193
1.27809380923091
1.24362172328955
1.32962458741437
1.29899857170376
1.3065011317448
1.25780246371126
1.25081939221936
1.18664128841075
1.22627552640812
1.25072342451215
1.26258212055866
1.28811606129997
1.27658314711626
1.26305047891555
1.20955395938019
1.25207200579933
1.33407390818021
1.24940367982084
1.26034835861622
1.31779889404392
1.31898803960151
1.25365518025276
1.28370272316727
1.17575510227357
1.22290283509093
1.16803110446014
1.26703036702046
1.213623417186
1.33417594826384
1.14680764055332
1.28835175205153
1.22147218877136
1.28064626625647
1.13672888737991
1.27596008491133
1.23719404817383
1.23175309983075
1.18701159237016
1.25614765124768
1.16321878394373
1.23075914804059
1.22670260194375
1.1972336966168
1.21104762156464
1.21836604429532
1.17521755582925
1.3158787468957
1.17730015522763
1.2145718572999
1.17740186739784
1.17171156006795
1.14712497301686
1.22475276850195
1.15049323871097
1.22845321614972
1.20145798956557
1.24294278746803
1.13530574849123
1.18357723826175
1.15672536295709
1.19261415329821
1.1241140085662
1.20544328980918
1.10891517563143
1.16632291150733
1.14090222498908
1.15421525148033
1.11554519594494
1.16649501858411
1.11389882387667
1.13459739583141
1.14384697410603
1.15015232535053
1.09418761585357
1.14537715381751
1.07174436260611
1.13372317302547
1.07067768068116
1.10293007124351
1.08060290574849
1.14266618428041
1.09599295830165
1.1214786789405
1.09426007891191
1.10936082683219
1.10323787857339
1.0982181510529
1.08202905992913
1.08694216849855
1.05546468180483
1.06857227750885
1.02572529763595
1.05879814475112
1.03062285978125
1.03963435396156
1.05296995357161
1.08059937431733
1.05995979377855
1.03930654681938
1.04249818723098
1.04502587845023
0.986524802360404
1.03294479334079
0.989089715219433
1.04725622584047
0.996008879631351
1.02276461063622
0.999231591746138
1.02450600004908
1.00374610381045
0.988089651906752
0.976429558443686
1.0061189603183
1.01124470020161
1.01345967822597
0.98875310774442
0.978271586064856
0.924166556703349
0.962384559969978
0.95179973625826
0.965160636737924
0.929334687192348
0.954697275746942
0.943980462770255
0.948694293082991
0.919265275125043
0.968199980592675
0.91478842573345
0.927362386394104
0.913427871813638
0.929526831109409
0.899964792732149
0.908371456907064
0.902428216894466
0.929965159762701
0.885760938481637
0.898486742073282
0.866432341288897
0.892779722468839
0.853386637248562
0.905881814460664
0.873584878143849
0.869464401074308
0.855119492373994
0.864646601628196
0.857236344924312
0.872691800780124
0.818504221659908
0.84964544721148
0.840458629622864
0.849374491284312
0.841389759096176
0.850591941151788
0.832776217236134
0.842521998925294
0.815275608643222
0.812423073159245
0.787709576988503
0.802293409555958
0.785334132425363
0.803323333951993
0.776801162835378
0.788949000864322
0.780857110216172
0.802330911330849
0.763403106615034
0.781957848609863
0.751717203929107
0.756795198895435
0.733696934931366
0.771170383610187
0.742427888048225
0.763511672629154
0.750428208556777
0.733227435434614
0.726627806925618
0.747254092621642
0.732922477173854
0.761345720055919
0.728567114854936
0.724064094724334
0.710260235338991
0.714297582506051
0.698886562545494
0.712451192785759
0.708263431151359
0.707090562191591
0.692012770749584
0.71201443224803
0.692950549011857
0.695209454755189
0.682857391598213
0.682807394769193
0.671195808059589
0.671841689878299
0.660981240963557
0.672588124815628
0.662599604530921
0.656516108943303
0.643278312593068
0.651008259807005
0.650630769746461
0.654266292297316
0.639157853023528
0.644778256452197
0.628869124103178
0.640274619480791
0.618447652562697
0.620443471269083
0.619119431102552
0.635532903007795
0.613206175149039
0.608069862340099
0.607280235351974
0.623389829154939
0.597236947576418
0.604213066758587
0.596915587009521
0.610833522253053
0.594620071242304
0.610979143365416
0.573762825555206
0.586525200522899
0.585892518165946
0.585066735090916
0.564228063743152
0.575798086870292
0.566293452398082
0.580602729670294
0.579568143461637
0.567365700472189
0.558254246195513
0.568786665091747
0.5579411616339
0.547689279380496
0.539998064682775
0.550136527362747
0.543385320482035
0.554965435064031
0.534390692603889
0.535841833034044
0.529513823342303
0.526639357254748
0.518224021585246
0.52725751062611
0.519971414851167
0.531386127055804
0.514395006906711
0.523055006739811
0.50724803549884
0.515127507888217
0.501325441289143
0.513999078565649
0.500740815728394
0.503684899579287
0.493327735779808
0.497601869716797
0.488751339898521
0.492946106845876
0.489946138180011
0.485092385801359
0.473906105283076
0.489352835439651
0.483017914692862
0.483652939610414
0.462837193489296
0.479212729655876
0.474272891922035
0.468244295967316
0.458271949587208
0.466458812338876
0.453005188098642
0.454275618693007
0.452742329032062
0.453066867972991
0.448942596714297
0.448694081458871
0.437164020403674
0.440078988792669
0.440727592880184
0.440722264730789
0.439350881256842
0.437395587278914
0.429742141167397
0.43923939390957
0.429276614673126
0.434261772738183
0.427150068639095
0.434374717210145
0.431246683590121
0.434539800124845
0.42700252576649
0.427134688332933
0.416590146209085
0.416012993672654
0.414740082205507
0.417544221443696
0.411653333303258
0.409088732953816
0.404862101266115
0.42070821445924
0.40825908286274
0.41468181146552
0.414098047724272
0.409961556286539
0.400678176132325
0.41221935910554
0.405006583013941
0.415503657229284
0.408087383462034
0.418717445970306
0.411898010765568
0.407928384360678
0.410231473769738
0.415877961308283
0.416720501121202
0.422389250157778
0.410338196884289
0.421503195687558
0.41799234538316
0.423784340512276
0.417904137437429
0.432265027726218
0.425439643383765
0.422251216093447
0.422667492512979
0.428718948243997
0.431169380936126
0.443529248264937
0.432253044888012
0.435355089404918
0.437266271199293
0.436195640178911
0.434804501884464
0.444710076970608
0.442106465813625
0.444799665137731
0.440038613838373
0.447351593319951
0.446054459345078
0.451035121529996
0.446543551286029
0.46270827931409
0.455854641130754
0.4644992920064
0.465650764271474
0.468326180328918
0.464098482832972
0.468258485995681
0.471396424154043
0.478028476311345
0.473088752511039
0.484801843217412
0.484347195272668
0.494585161506187
0.490144991192888
0.493612931608167
0.499712667991461
0.5046463386656
0.501449222614799
0.521210173333836
0.514847643933943
0.518472264544414
0.516066600562122
0.527156944773739
0.523453188193661
0.520116522805024
0.523973440060292
0.5366013538607
0.533540934016131
0.545480193211098
0.53139866656006
0.543518315209006
0.541311890588884
0.5484073271174
0.540368501242454
0.549185250178193
0.553368642391247
0.551742215488468
0.540163493564872
0.563686427468152
0.546445066676295
0.555793410520431
0.549340236341285
0.550810761832322
0.546436773543316
0.541576456717421
0.538261710254859
0.550399202713385
0.543332348970061
0.541845948768159
0.537498509731097
0.535428953364249
0.530091126824216
0.540936587636697
0.534377516325558
0.539231508723904
0.537487726677017
0.542481532560095
0.537617916395841
0.546276881081757
0.53381446482185
0.535607611796023
0.535319435966469
0.548330126118651
0.544949599265787
0.53519928561115
0.529872392782351
0.538639856251606
0.535157169375044
0.535220081065354
0.537618032100569
0.538030890283667
0.537547420561812
0.538614786641947
0.536133218166595
0.537666102584255
0.528499911669416
0.537454445661069
0.535837593922854
0.538457047733599
0.537785444564528
0.548057535211628
0.531769635933459
0.526060082376513
0.530850280743832
0.541774503053305
0.524389213385187
0.533780515244179
0.523699001102841
0.531459544657161
0.532326436451738
0.527155786689389
0.525458179709056
0.5227530349858
0.515771582794593
0.519889125428793
0.510289379516297
0.5072603421021
0.511289072619168
0.511842740610141
0.498461652816304
0.506734628729765
0.494067738584695
0.49297445519916
0.491528831255953
0.483609439299692
0.485262219600466
0.484337118642813
0.479493881875317
0.472559526631512
0.470799714518805
0.472718155352974
0.462826034321292
0.460143504388301
0.456506315974035
0.447936528345383
0.444543020157225
0.440654236471977
0.434475269154805
0.431583016939552
0.435231743733456
0.437496238676183
0.43064315668162
0.43526092075586
0.423022478751446
0.427400827312989
0.417687976739437
0.412538745931705
0.411281708237127
0.406939312394199
0.404106685276289
0.407908975571939
0.396995989044746
0.397911858833288
0.392130977587977
0.392053022793606
0.388033731031785
0.387956530554255
0.385515216659281
0.384189866345087
0.378829460241291
0.377947054776096
0.378420775258159
0.381543202604203
0.374699216813562
0.37617405149925
0.369584892703714
0.370871777510254
0.365135918027074
0.370739532430737
0.364308543286161
0.361313472657964
0.35359334989309
0.350856634909251
0.355242966999124
0.352088202818618
0.352422742080618
0.354142754176508
0.347815660933111
0.345641816683731
0.341337129814347
0.344228770743311
0.339604562879043
0.341298395819608
0.333816679097681
0.33429919409502
0.332075411003285
0.328264998042543
0.329939213600928
0.331734347287873
0.327402425275784
0.328314218625628
0.325746068745006
0.320378419801782
0.319176804064233
0.318227183967912
0.318529520649148
0.317260182715752
0.310822463668262
0.319328605330588
0.313063980185499
0.311330234827276
0.310534855934725
0.312670013442902
0.307692159432168
0.310438241353439
0.302637921421885
0.303637798104187
0.30629294908607
0.301177613979102
0.299822529536855
0.299358891001283
0.29766128796766
0.299251404680516
0.300137485148696
0.301904370927492
0.297866745778601
0.297522635519273
0.292642773669825
0.292257174828521
0.292403664037864
0.292195552948599
0.293849528282896
0.2920724335463
0.286537691773987
0.289006396419812
0.283956277551064
0.288033545901153
0.286351865785024
0.281457121933513
0.282671012697362
0.285982148032934
0.27947833939413
0.279548500937656
0.279421673926594
0.281645775158782
0.275846437722573
0.27538126551486
0.282195690703709
0.279181455846133
0.275897152808398
0.277926606351747
0.273260286563648
0.273893250984115
0.272901023218759
0.270557328751424
0.26588311747375
0.266649379641197
0.270685350309973
0.268378146086789
0.265512685113438
0.266187376687306
0.268441628671988
0.270080131674852
0.265701200345274
0.266902494484953
0.263547814080612
0.261184897107374
0.265570939179533
0.266061047935684
0.263201043201377
0.262934044528965
0.263940235421454
0.260350246790468
0.258187177669172
0.263140908583425
0.261297080362901
0.260396701427146
0.257062760459544
0.258626683617551
0.26060291217534
0.261661053637984
0.257507975988193
0.258378442453743
0.260817960924021
0.259009990982172
0.256661214886336
0.2561577042655
0.254388568601366
0.256344507584296
0.260019427151643
0.256865863770822
0.250233082823662
0.25492225705737
0.25644251119436
0.254337420763971
0.252641993444501
0.252249431332503
0.251204321044917
0.25024741007234
0.24954512779106
0.248355705093673
0.247278738090894
0.246873877652444
0.24385436744125
0.244238265847613
0.245224399563986
0.245771721834016
0.245546229598327
0.246718920593182
0.243010791805726
0.240981571084248
0.243275745524305
0.241424162246109
0.235656776043509
0.240216147346625
0.236284488777766
0.23027608571418
0.236385517705917
0.23637139824338
0.233540639350677
0.235998859635838
0.234237046340451
0.231779258630853
0.229565289665496
0.230435988428736
0.232309920363198
0.230281255373899
0.228356460285238
0.224982871807535
0.224021083394055
0.224482927665445
0.226644862961886
0.229363787239507
0.22591061975568
0.223566475471758
0.223109534144857
0.221479579701252
0.222313313005247
0.22005351882967
0.218779038591917
0.22164820197235
0.220229876869145
0.217888471592713
0.216660437241783
0.219284591585432
0.214654543967596
0.211359360198911
0.214443198720002
0.213729772778939
0.213803540724505
0.215034130212996
0.211385490389795
0.207965809385021
0.210283857356087
0.21184538422933
0.207120247472191
0.204139749318526
0.206054845634519
0.205973789313367
0.204909203359117
0.205760444853171
0.201818281931388
0.201928045703026
0.199345440273818
0.199893869415374
0.20374351970007
0.197361425954271
0.195234403032296
0.197777487027813
0.195415632918905
0.193800078754679
0.193991396754292
0.193244429685604
0.192673999695193
0.190414711875534
0.190928582307595
0.190432514852896
0.1880072593908
0.185247575611336
0.18621148407869
0.186432176152808
0.187517680915798
0.18544978448719
0.182096784788124
0.182150009941745
0.182788190757977
0.180845577203386
0.176956437889367
0.179272904898003
0.179950269259991
0.176391890308251
0.175229163592364
0.174156235733836
0.176699620313337
0.177449682460053
0.174719281230636
0.175373790519232
0.172282963676772
0.170513263822776
0.170371893848172
0.17312320384819
0.174536486173893
0.170632305214985
0.169443936316577
0.169328582007819
0.172582490412435
0.169000356767623
0.165313171188618
0.163583841683687
0.168241535204343
0.167613902433979
0.162648868944988
0.164737659558151
0.166575244645782
0.164469503368742
0.16275774466495
0.163033435958515
0.162358157344167
0.159758101169561
0.161453514708697
0.159377948690822
0.161482668129196
0.159685340636171
0.157802336730843
0.160444932744005
0.157739358777216
0.15414971291864
0.157961407848907
0.156263919089007
0.155677139268571
0.159261831902671
0.157839904307909
0.157218551115385
0.152222066029476
0.151114158150877
0.156035506350443
0.154785956246041
0.154956444040883
0.152862392594502
0.148348965495986
0.148728604676991
0.150729590763866
0.147293667810738
0.149024796344349
0.149762239446837
0.150112570141985
0.147548403552344
0.147691186259681
0.147728283833011
0.147987554739639
0.148833492056415
0.149807868189473
0.148827831233704
0.149273789614099
0.14478557564817
0.1422870807806
0.145002461881855
0.14435035858673
0.141803075589979
0.146575544374533
0.143955914235876
0.140926707573142
0.142835611143346
0.144892547243458
0.142037753201131
0.14345369476625
0.142169411033465
0.142346454490251
0.145002837161655
0.141182182101068
0.13868784674164
0.14193608456706
0.143314776967806
0.143651771071939
0.143629747155861
0.139076721381196
0.140763067605008
0.142870709226812
0.139232180774345
0.142277435257653
0.138764616822721
0.139366685036187
0.141271572618245
0.139961932755586
0.139968816773582
0.137093211252514
0.137286312267102
0.13839968909777
0.135929079803119
0.137292625806374
0.138285307618165
0.137105952644948
0.13415473421205
0.135452449003077
0.133354066562458
0.134325585228381
0.13323156308788
0.133106570224064
0.131716747342816
0.133177881166042
0.132355292574323
0.130788039904233
0.131863464357655
0.132116501346807
0.130991142590014
0.131829604448688
0.129988780296406
0.129275614493188
0.128367897475735
0.13021206496519
0.130340278226911
0.12958296517161
0.128392962807107
0.128222443483606
0.128887774069566
0.12899160092663
0.128085918307568
0.128528792689314
0.125271795231971
0.12611564181353
0.126646351683135
0.128164379088765
0.128628568970267
0.127893467875479
0.126488515966975
0.126986005066885
0.123224900734063
0.126559147164559
0.126054070385328
0.126524644437597
0.127104481098639
0.124811166269993
0.124661645008224
0.125983360846325
0.122592239519166
0.123008807587881
0.121455657983415
0.122469727122104
0.122435285028314
0.12179729557096
0.122813646453886
0.122827755539944
0.119227833622921
0.120546779708358
0.119055214550471
0.119566505995749
0.119764530298691
0.118059725954082
0.118618324682363
0.118508381648178
0.117962026434813
0.11752725720737
0.116547908992096
0.116064989887071
0.111727062372725
0.116006132910328
0.115285942923216
0.115904539861809
0.114383284988088
0.115300773941456
0.113997891193024
0.112214183397244
0.111284353974134
0.112616262896652
0.111864234490564
0.111798551811306
0.109752536319411
0.10821053883684
0.109837595246029
0.110229942484892
0.108027853539906
0.108478284599804
0.106671509157828
0.109653953728674
0.10751882203584
0.106273876291533
0.105428024058132
0.106295208765784
0.105980171829098
0.107108470217668
0.103866831321827
0.102148480571868
0.104977484668198
0.106312007959535
0.10509283047328
0.103819254962105
0.100601515307702
0.103742077501
0.101570440421451
0.102917376742662
0.102162865758091
0.10309312885467
0.103664051585722
0.104066871867736
0.10036917482484
0.101411665869867
0.102165063545984
0.10045442513713
0.0978521126445972
0.100113388987169
0.0994568607945507
0.0995507694583197
0.0976133884970967
0.099071504401195
0.0973380682809482
0.0985902577219546
0.0993183206780134
0.0985812379776899
0.0973430472074258
0.0962083749591848
0.0971419243462086
0.095007966295773
0.094501038659519
0.0956799427495704
0.0951704964855515
0.0946880941379025
0.0936839250734914
0.0941952884159853
0.092264978516528
0.0930081078359314
0.0925407253920647
0.0924306023942326
0.0911399429486124
0.0915637040584598
0.0914264828617814
0.0923473574797272
0.0910819805349761
0.0913016474487716
0.0895987941037404
0.0905670084306911
0.0879190629560168
0.0871025467905643
0.0880870267519936
0.0891356686037313
0.0893169519654992
0.0875771572586692
0.0879289284907336
0.088810886185956
0.0877467048941847
0.0913743495067584
0.0866281276682864
0.0864264526104243
0.0888110016269346
0.0899818589628743
0.0884477714876441
0.0902279557567207
0.0893523478962075
0.088601186658888
0.0878893201274545
0.0887217882196666
0.0876711119936269
0.0899231512025372
0.0893155418661179
0.0865261738897294
0.0900695430571166
0.0890285308100921
0.0885829704334977
0.0883809897831606
0.0885577962516503
0.0871361049124691
0.0840317118051395
0.0828248337926563
0.0813380890441468
0.0835142054689591
0.0846471073022451
0.0832878343526445
0.0837384314565336
0.0795908081850017
0.0795437168925134
0.0754526710973436
0.0804075783490717
0.0825375086635147
0.0789113888207433
0.0770083409681403
0.0803401625676726
0.0775988040287748
0.0742084699868515
0.0751265311668735
0.0780064866203883
0.0785638847385365
0.0829082640817199
0.0783931502256295
0.082944914110059
0.0812886519144546
0.0854007310156612
0.0809513184214901
0.0827607673465916
0.0777585777543807
0.0829290504961325
0.0783646907670014
0.0801475618042599
0.0766724730587448
0.0786565260166755
0.0736761399441004
0.0774576103032806
0.0747639783831608
0.0754395402882839
0.0734732536917949
0.0745502097810373
0.0717307941276473
0.0752413105158379
0.0782658567418535
0.0756285536804229
0.0836524248009783
0.0756514839952988
0.0803653735452475
0.0735322303880875
0.0851911910487454
0.0694216808013378
0.0912267724099146
0.0658358786892373
0.0910466455640055
0.0663202497300742
0.101900082512765
0.0640129066714881
0.0988730625491454
0.0599741091732808
0.10921376387279
0.0647546622414377
0.101170686307077
0.0662255658735735
0.100428773011106
0.0675521819164474
0.093385820928127
0.0762610563309314
0.0882553203919771
0.080444114284417
0.0844351771170868
0.0825824625486283
0.0827933864653521
0.083420857596111
0.0831964054960581
0.0787558025559112
0.0830993052838987
0.0768625095018702
0.0834019594638483
0.0760517506266738
0.082690649223586
0.0766505595577524
0.0820456178657861
0.0745175916234174
0.0775236367610178
0.0778019331922722
0.0805694470149884
0.076930677050392
0.0798569138932949
0.0754433116421855
0.0811305448995124
0.0745920681017275
0.080163996263177
0.0759293848570034
0.0774194125359766
0.0727853198982836
0.0802365604595256
0.0773703671769138
0.0785116549217728
0.0747990718831337
0.0795274672834371
0.0756571178024472
0.0796523436865407
0.0780133913325831
0.0805741494302897
0.0784453693858385
0.0816055708119464
0.0754319720370014
0.0812971043859582
0.0763433615436399
0.0772441447598826
0.0769954589225145
0.0825485850877794
0.0758110611483847
0.0814337724932831
0.0757249791543296
0.0815557401768741
0.0776830311665696
0.0794083331402752
0.0770199191304857
0.0823893986026674
0.0780973054807517
0.0817578422931359
0.0760561002818637
0.0814451528532535
0.0764515783772204
0.0826738804015192
0.0802632151775533
0.0814800177495385
0.0782102010677182
0.0815831400252272
0.0785249556741061
0.0810098394111102
0.0804614603078147
0.0792653165741119
0.0783782451363155
0.0819183470859896
0.0768235623292783
0.0813917560139059
0.0788778447627206
0.0805522077703746
0.0806956443099721
0.0815886291583553
0.0786241366318955
0.0824816749777992
0.0787729462841126
0.0803039820954288
0.0810186676115311
0.0834947027779452
0.0788128813979302
0.0805246091296772
0.0779283107619019
0.0825968232817442
0.0798787183557014
0.082577233142011
0.0784075985243394
0.080119080073442
0.0800582809855121
0.08271314102058
0.0799975832544776
0.0829976901403584
0.0778492693870452
0.0822433772157019
0.0810901709341305
0.0831225182553744
0.0807348398874925
0.0847552617527549
0.0809529491877934
0.0843490803596692
0.0787381219371992
0.0852747385917635
0.0819013458269198
0.0836047519261694
0.0804497244172044
0.0843452897413227
0.0807699107738587
0.0834714822125306
0.0837634254223901
0.0852755405703001
0.0840439399135993
0.0872715771064134
0.0831512958380081
0.0853035842489534
0.0824770897465412
0.0863911238983717
0.082565201550149
0.084016034836501
0.0836264920310137
0.0870009027694351
0.0835566343689488
0.0859893133790455
0.0829938326572726
0.0854168628043372
0.083576242914261
0.0873716980068994
0.0857499295876314
0.0871403282684362
0.0815324260796715
0.0853635676411438
0.0847903072385568
0.0884368233033257
0.0836790542995746
0.0857734894825771
0.0825890114892524
0.0870756644734639
0.0856925289115577
0.0874846167452542
0.0843723463053061
0.0872860791386024
0.0843095501628269
0.0858110065415204
0.0832972043286451
0.0865908348408714
0.0845815647948723
0.0868387281680945
0.0860732650197854
0.090717697974695
0.0875821681526336
0.0884581468244883
0.0847578867697284
0.0890156854112497
0.0858924169743429
0.0896262132931057
0.0856031057085778
0.0893174110464863
0.0888286665746558
0.0916567882768085
0.0891475220508393
0.0894796855777593
0.0891451591272675
0.0913830048880711
0.0882560798797896
0.0918409729842839
0.0870095356013028
0.0894078521363744
0.0877412447149832
0.0925012067690527
0.0894861375992969
0.0917528373859865
0.0882452730987391
0.0894555790096895
0.0876232280839777
0.0913924417621096
0.0895245624202455
0.0916770232884238
0.0884693502484766
0.0916482569543634
0.0842423146132517
0.0906970323459049
0.0867467205598129
0.0892779694394725
0.0875303534006838
0.0872973702060957
0.0888978485579774
0.0893495608486494
0.0879154442218344
0.0893818030939195
0.087069454901619
0.0890675444945246
0.0865666822236894
0.0901027245157368
0.0876045459411105
0.089232321596211
0.0850827705829005
0.0881203774734566
0.0838899060647209
0.0856775361119328
0.0859438405562499
0.0892846601112778
0.0856766391004336
0.0858769596947953
0.0847747573239562
0.0865624877093289
0.084929157893285
0.0871060256251176
0.0825799250467873
0.0870062907098667
0.0854303358013637
0.0864516612906391
0.0851344873307611
0.0873638590040646
0.084240836848609
0.0889128672313719
0.0843984619631704
0.0861874787251053
0.0848662128533295
0.0869435716983291
0.0813425125758708
0.086882066391481
0.0829824517843638
0.084008456821827
0.0855095673783707
0.0882894269274355
0.0822618817896136
0.0839902676162833
0.0821543681238938
0.0855557542892659
0.081811499622805
0.0847384363072173
0.0837123006528187
0.0855605969336843
0.0838757961072426
0.0860359404189792
0.0829195137048978
0.0870715663252074
0.0830446315059392
0.0886113783763495
0.080701705990108
0.0855405903344218
0.0834443278735485
0.0839532231701877
0.0817104404798051
0.0843083315303187
0.0811171516820517
0.0852274778577445
0.0833434325240802
0.0830982514994162
0.0814781600734667
0.08546930252141
0.0841163955362176
0.0857809720331334
0.0843777682056562
0.0861526882402722
0.0790905344871217
0.0831606653048629
0.082160191731069
0.0841646221520641
0.0807008047614963
0.0818553676896912
0.080904886365953
0.0838624970570035
0.0791781793599481
0.0853263368159748
0.0843906235146694
0.0850280750215435
0.0815710258370452
0.0823233705611788
0.0811828003567323
0.0841691581593728
0.0789724762845906
0.0833075323449988
0.0791356628446368
0.0808386404299091
0.0784211477435073
0.0823469781013743
0.0791759242424501
0.0810892234679608
0.0814601626628365
0.0804665881499027
0.0798333630556823
0.080618088154937
0.0811005859414717
0.0810149955811323
0.0773480204859629
0.0822996143856206
0.079361961624244
0.0822851507850112
0.076280252080198
0.08382670184068
0.0792458847493989
0.0821226627969397
0.078289017668889
0.0788970807377689
0.0788343344081087
0.078608493616407
0.077207414092831
0.0796086026072037
0.077309048746713
0.0794838271137149
0.0763828805868554
0.0769692402486398
0.0750847037169928
0.0775198798018532
0.0740561085167104
0.0790747050808436
0.0724550906810215
0.0775953143980545
0.0742756511329651
0.0775701995613166
0.0720244327410214
0.075386186889164
0.0712350211012298
0.0759393411399735
0.0743328016192517
0.0751696518422463
0.0818769488755147
0.0763328258373299
0.0729001514041125
0.0731696642872044
0.0706546257840095
0.0717877233496324
0.070079055239668
0.0733295297270374
0.0692780314150645
0.0703311542481429
0.0713495119684445
0.0698996082958077
0.0677673136901767
0.069929673891918
0.0705244429766405
0.0708642034435006
0.0671284704306717
0.0691185742414817
0.0701661394111917
0.0707792294691755
0.0668250489183971
0.0684862809409433
0.066754762522196
0.0671800730789499
0.0683446418385174
0.0647835565993821
0.0776766791061718
0.0779954603879053
0.0709381589874318
0.0698082203976088
0.0694862279982473
0.0691321760236826
0.0673815840141859
0.0685930448380172
0.0658471352548157
0.0697803034087088
0.0650133808110946
0.0691087560018794
0.0653313540251764
0.0682141903039558
0.0650887968689511
0.0672058719044669
0.065052237025625
0.0658258663507433
0.0668684330255922
0.0691172238248017
0.0648043413585477
0.0673129204197735
0.0640147820938534
0.0654470131415529
0.0644306476930394
0.0656373299842901
0.0662959445138311
0.0761027633222162
0.0666787602898897
0.0706639323072795
0.0622320670184567
0.0673897039742403
0.0612888524486246
0.0676893576035953
0.0625896906857925
0.0660828333551951
0.0622244245032015
0.0650333772352408
0.0617975030165002
0.0645621294764879
0.0627472408499958
0.0653009109958398
0.0592179247530401
0.063171941159589
0.0591390347568667
0.0644836004147934
0.058314225195146
0.0649061211835193
0.0593564338063058
0.0642503055480882
0.0586791731619405
0.0693003013387917
0.0560314842531281
0.0709925647047986
0.0754112975825333
0.0665582927904049
0.0644397715312002
0.0625675072615598
0.0600826600978358
0.0602306118195026
0.0618986439274849
0.0626468432834171
0.0597737487495618
0.0608940408365205
0.0598285206864831
0.0605150444174335
0.0609933075502835
0.0630658992265385
0.0580129744721276
0.0608468539208557
0.0612720805226458
0.0614424585947621
0.06191606457223
0.0593933833196601
0.0642510934724
0.0752297864036811
0.0634149389550727
0.0645995691170526
0.0610864901674107
0.0585375253482174
0.0862345612794979
0.0653442674194344
0.0637835989683767
0.0600935532822189
0.0623765779395187
0.0578342907146997
0.0639096589646301
0.0563757757831727
0.0628345547691201
0.0643080290008944
0.0605063284025535
0.066243749268961
0.0575389509912912
0.0596811711881685
0.059882628768582
0.0609108684541606
0.0589061474253176
0.0600138069453858
0.0596718719572703
0.0594404346935911
0.05893966538676
0.0574217940747286
0.0599797662987715
0.0560813286764688
0.0631952517789825
0.0656474999557784
0.0617601717120093
0.0578971621076644
0.0611953214665274
0.0546731961984523
0.0656631386478659
0.0756791238367841
0.0581955304111278
0.062252207330359
0.0539096563952829
0.0621815946835152
0.0588036487430967
0.0604204611804949
0.0552434721108101
0.0597157066080266
0.0545668656709598
0.0605111435214252
0.0583791906486571
0.0601902646581257
0.0559908958538226
0.0603055703597334
0.0578854701189261
0.0626348745623061
0.0572178685392025
0.0589739715840454
0.0589088062160335
0.0588197502732379
0.0765772512276245
0.077253676544027
0.0750034418630661
0.0698897609411023
0.0644725595913212
0.0595829257308484
0.061643202544598
0.0612463486446435
0.0588139613108149
0.0623573716989353
0.0564629984146161
0.0619608861132621
0.0586189873051457
0.0608002089308982
0.0570588766477628
0.0587011396264563
0.054393534442011
0.0583278668929544
0.0562454519303296
0.0613487372388784
0.0553480735239379
0.0590688079127247
0.0541422352113045
0.0696157711556091
0.0610121952797393
0.0679094296333354
0.0446065595889698
0.107159595997236
0.0741686431122868
0.0713496391874234
0.0606566465892771
0.0603361330445068
0.0575562635196015
0.0572431952688877
0.0593183162363515
0.0678113492939823
0.0585581875314369
0.0626654830415719
0.0588998447133939
0.0664399267187254
0.0612774593238817
0.0548050367309286
0.067444387480224
0.0944586419410687
0.0670744150962256
0.0718526710495874
0.0546852499426971
0.0735120014149875
0.0864197053832603
0.0641557062512645
0.0691264997613405
0.0631835577661203
0.0642321299977213
0.0620335269771238
0.0601635736645799
0.0617951304367349
0.0701705388056773
0.064501087871542
0.061426337740573
0.0624900978309692
0.0589996780338766
0.0691351046660301
0.0622872481840828
0.0750906565065653
0.0714628430229977
0.064063079780504
0.0686522135337042
0.0671525735252978
0.0631341347002143
0.0635748845149907
0.0646292380408511
0.0633769014519402
0.0747285890027721
0.0759402250351543
0.0663758771802186
0.0857860802840676
0.0736179298150273
0.0632473314752239
0.071838183367135
0.0721278755477952
0.0808373784902295
0.0562366216629333
0.0895584954127687
0.0860970994670087
0.0872221823530549
0.0865462141696552
0.0668431762842374
0.0753162417071582
0.0618824255808968
0.0701511402811373
0.0588282218538502
0.0952956673048252
0.0627066679959068
0.0812560778552346
0.0546388443798236
0.0895392027853833
0.0740959987582819
0.0819482924885229
0.0704860963435442
0.0731608865551883
0.0627027187553459
0.0943612628783116
0.0672771509966772
0.0754321571179316
0.101757642462082
0.101288494222765
0.102809670437755
0.0766368038304708
0.0711786677755253
0.117304328669326
0.0723512939694052
0.0846325800978749
0.0676206883663472
0.0834572966819747
0.0637311273016244
0.083959950142254
0.106013076547193
0.082510259369064
0.0783406757381714
0.0840134236734651
0.07143213090381
0.110843493286222
0.0847662595222965
0.0852689735085521
0.0789957226056834
0.0919272219126663
0.0689314696359939
0.146836733870254
0.0885700426304783
0.112916876179068
0.0998682817004802
0.106504804341889
0.0981481552650803
0.102829507858376
0.0889572789632425
0.106939074856479
0.109784609987597
0.0993304607035582
0.0792833069120315
0.120879163780682
0.116643350989777
0.0983781033132295
0.104991616186446
0.0935168765059495
0.0933213881490412
0.14236013137515
0.153331764611857
0.137824299989238
0.105442218032717
0.10665815252101
0.13735856594374
0.110485328582737
0.109697668851501
0.105877878663898
0.107459553125938
0.110424824896947
0.111408951230376
0.129289263459307
0.109398364828969
0.123174417320508
0.110083266092472
0.122293745723294
0.131688051210528
0.187137486854468
0.162635855670933
0.133156768788635
0.170773222321357
0.147465313731209
0.143845188593029
0.132512585152012
0.131639921541734
0.145105768716105
0.137376857702509
0.140775970045294
0.131937922171289
0.175974840817001
0.147374104721875
0.166278690394752
0.167467491647878
0.156449139198299
0.153306569288843
0.154422315495226
0.344208062451934
0.179275323619373
0.199295454119584
0.16324449667312
0.20366283034417
0.246853078986459
0.196994685410394
0.186821712589021
0.193195424383896
0.190815365499021
0.20430338919158
0.212414840768397
0.223010273154856
0.233170042441201
0.224860267744775
0.219678945459279
0.257070475753245
0.311873329706917
0.31483739819401
0.272779991361455
0.25620207734582
0.282082904012838
0.28558611125949
0.271815195278987
0.294261299475381
0.276351441382314
0.30763500946468
0.352540738150695
0.315570527274605
0.321302328645834
0.322546304919063
0.364534481542974
0.319853261684201
0.399281194984037
0.369469716629108
0.370793991335393
0.350053175809062
0.372877992595678
0.373780254004291
0.373474798069618
0.42704855160958
0.408533418050479
0.39622000442471
0.407759013462839
0.403308014192088
0.415210642700971
0.420199229066727
0.422755747295079
0.421802961766227
0.474096432398651
0.433121289341637
0.634840256077403
0.461800528665384
0.454690854774741
0.442717201131456
0.445370980272282
0.485993610155452
0.463457852496926
0.492706170748375
0.477682212655522
0.448235769977399
0.453339997418973
0.45744813725327
0.460919768196762
0.453732212494953
0.469067849437611
0.43827854433349
0.495338194383149
0.446113420550173
0.506420196198789
0.524105895822775
0.466223962699318
0.447080476353866
0.454751977553207
0.443104103624302
0.457925431846546
0.438121800827639
0.461883134517568
0.465329823567826
0.436435643249489
0.444636590317983
0.43021319611768
0.469513025997295
0.469499368738972
0.429995615588015
0.427276258750415
0.409359662621671
0.430630119612352
0.399124358435442
0.422184746487338
0.457799329089541
0.419190435768053
0.395078431570626
0.403160112058246
0.39237470659878
0.394392917812262
0.389097566458974
0.396275197922547
0.391402131021828
0.386200573469052
0.386470154688017
0.387465119069663
0.377277797236183
0.380234899069471
0.386856508773841
0.377266864552258
0.370629772394974
0.374631085133969
0.376117969784931
0.376244537129206
0.374303193361649
0.372202680869093
0.368065570193731
0.375661322871042
0.371875356110169
0.372906680374244
0.367579764717563
0.369539499851086
0.365802989312911
0.364025059440453
0.361334274867618
0.358498910088797
0.357855603647491
0.35757933570281
0.352779457412456
0.355429198951902
0.352547356967204
0.357838548159781
0.34950970323905
0.353067556834956
0.344593615179478
0.358938541345754
0.335213488053345
0.409964378993123
0.369827194430431
0.348562886402133
0.339705260931988
0.335861619382865
0.336614030311255
0.326253663134745
0.376709656472085
0.361303459689812
0.331846585795481
0.32889434016163
0.314865202305709
0.332110998834956
0.329159592091798
0.309657781025056
0.320007717936179
0.296668663227395
0.362050540621096
0.379558541353563
0.382087828488396
0.39470537106228
0.329466296852381
0.290579751742157
0.315738270960664
0.34213741362986
0.295462574193838
0.293981510044413
0.281288489780393
0.328438929841425
0.296871126917948
0.282951268323084
0.280018409166541
0.278220218401694
0.300543289136558
0.308232377029669
0.288510223556955
0.304757717095598
0.314782567298435
0.289298805054126
0.324318481620295
0.354314317857209
0.302469908846944
0.265957671997323
0.266095017584332
0.260287678304469
0.267110098423036
0.325375031132812
0.260680192422936
0.276929629912971
0.251317178487294
0.248063496343974
0.247371893929324
0.27229293922956
0.257736935171474
0.256312024165358
0.282108485806676
0.234694432530041
0.256349865516301
0.257176865932133
0.289899549090681
0.294168109995158
0.252080464639287
0.22891817890154
0.26975564840719
0.27755888707992
0.243732919741097
0.254825985299892
0.221806597373875
0.231537102392299
0.251927555127315
0.224644398821038
0.244401383458723
0.24299636694445
0.250916007476063
0.292004966685869
0.293766710295118
0.288725117764535
0.236003784966886
0.217982002283591
0.21901620963695
0.221697091017293
0.225022535056626
0.20822943298147
0.251614904065571
0.227959224480257
0.224256362047572
0.278093208975724
0.240436355092056
0.229221526158328
0.22978249757922
0.225605374425024
0.238582325480162
0.26726580398838
0.287938852956046
0.258638047466448
0.255481099577559
0.272198888700916
0.254932080223096
0.260282924513895
0.256491367063115
0.26027814808085
0.26186461762062
0.281321688087786
0.276122404089023
0.281336039776479
0.28916631601542
0.288633557834411
0.323290895769166
0.339970956108821
0.30790377793737
0.349342540484851
0.341777247907079
0.395641908719835
0.351412689398198
0.3467601778656
0.348312005427273
0.352523570979068
0.361042231103213
0.355668362537247
0.367650361574093
0.405942864280974
0.381188699667187
0.386495219163539
0.381877246103872
0.393601866731008
0.389311136255893
0.434920404695359
0.416279391839919
0.477496155107464
0.469513128921263
0.434297881641885
0.424925661097991
0.413248781053072
0.420927098322812
0.430013701195104
0.420735469897665
0.416834293972311
0.420900923549138
0.459197069111169
0.43642749838038
0.431915902837118
0.432021079785214
0.44289868335188
0.432041766803773
0.440459760873231
0.440990158338641
0.44516814674887
0.453279956473214
0.458069836380068
0.453354167785996
0.53338693650895
0.478170029283197
0.474465586383257
0.479732387589108
0.481575876022491
0.478064420106494
0.477125349997244
0.499772855629924
0.503456341916699
0.493247987694811
0.503707727017124
0.496967830913304
0.500920056767696
0.511991061930253
0.539584842789443
0.50144128688181
0.522076465004279
0.503960495491695
0.540628283050377
0.564134234266217
0.545551536159857
0.546777017446662
0.533653555893486
0.530279613176391
0.539714967325655
0.5296316122494
0.537227771901675
0.540107918714258
0.531618728859868
0.541132713405762
0.539304024494501
0.539784987711101
0.535672859894301
0.534467808970667
0.554538447861492
0.536768026611457
0.535719326128275
0.534126829273257
0.534083229213866
0.527718147390666
0.55609762069212
0.553667277829365
0.537795534948639
0.534421618868221
0.540439752952213
0.557097104133035
0.550510571288992
0.528559565990628
0.533407370337718
0.532327126031418
0.538988280336608
0.53249039371089
0.542129941469331
0.564422443749015
0.547170708578422
0.541511129441039
0.547914303829274
0.547154621416226
0.555674470620749
0.547477774178883
0.549921479500767
0.560705781618399
0.564139354837517
0.566690486656215
0.565597737727825
0.571765210112383
0.580272335257406
0.579504772952249
0.592343759224045
0.574462134735728
0.574747281786485
0.564988929292023
0.565294394530728
0.567765982743318
0.558987614201602
0.557920776085978
0.548560078695606
0.54255443235038
0.539799361428628
0.567296954741757
0.540888567569726
0.542415252430714
0.536551199373823
0.525781837535381
0.525658812584912
0.515084844403344
0.514770528026477
0.51510797788762
0.506999482972589
0.504300410730985
0.503030506313004
0.497022213942903
0.502140039668992
0.497162138719938
0.492512464964169
0.492484609636686
0.493485801380019
0.49752886980303
0.493642472594697
0.488766747665545
0.492147096056955
0.485696632083331
0.483464845232237
0.502332197118201
0.51102236777118
0.50588411368237
0.493951841239238
0.494460036784142
0.493673525752238
0.482379725763625
0.485740962169523
0.483002616008016
0.488567167038716
0.48525819128704
0.486395695772379
0.482288371688799
0.487311125210147
0.478011376943892
0.482510058337867
0.486955752302856
0.48197373721663
0.481444829408462
0.481148809251339
0.476552017950505
0.478971642561035
0.478848145977901
0.488368826319198
0.48516465221862
0.479017409729706
0.483151633226429
0.475269916100597
0.481818908417375
0.481962776672262
0.480448326770363
0.47691644992166
0.478086298004741
0.47723709397
0.476166591132857
0.477130696308627
0.474377303121499
0.471871330126347
0.476807670239599
0.47393446265741
0.46602169985941
0.469798507913767
0.463539225465607
0.461237366361069
0.456028661781211
0.449658872863688
0.449885868565027
0.446759434397545
0.441068275558105
0.436062995591452
0.434362518292667
0.43121377670717
0.429980447963839
0.428208571799594
0.421849779510965
0.420216509503968
0.415905686330367
0.415849078892759
0.415523068505509
0.414426059889991
0.409295363573963
0.411166456029393
0.405158446601781
0.409263878697183
0.408690892493125
0.411639723893787
0.407944357382326
0.41063644315174
0.409923986933673
0.413262137366932
0.411393195806435
0.413462783172877
0.414885338752899
0.416796749132185
0.420934596125685
0.42162231218966
0.42108046834324
0.422723295722623
0.424505929778104
0.424968284943499
0.430179799880916
0.428322368066943
0.428747152701119
0.431862536184812
0.433418643199089
0.435055034179256
0.433898008847973
0.43817128440346
0.435244854082886
0.438879234568622
0.43150937665104
0.433035893281926
0.434958137155116
0.434880327106136
0.432601519988764
0.432875794438832
0.433397396312614
0.435679889105789
0.429538781110287
0.427299544493454
0.425142922101969
0.427726513921039
0.423513506979575
0.423604042519828
0.423698794519477
0.419200674938795
0.419631884083147
0.418296146627916
0.414417148477029
0.412652154164391
0.410799279568915
0.412526958744164
0.408972846766037
0.409009959627078
0.409340930942727
0.408911513909066
0.403278874617803
0.403191857643679
0.400572224279573
0.399743473519211
0.400737303228585
0.399638432250072
0.395715716924403
0.398308739146605
0.395876842558359
0.395319610162819
0.39516942401161
0.392589317891986
0.388009000798981
0.388888544825324
0.386042161214991
0.382021636048165
0.380442296201328
0.378647239370684
0.376551566589693
0.376687263567178
0.37213386048704
0.370034947351725
0.365055611646804
0.362974258166824
0.359523013446181
0.358466999756358
0.356010358526663
0.355778523271993
0.352999145825528
0.352350641712575
0.351406904072023
0.352108325139331
0.350649699496505
0.350572685987899
0.347863761033869
0.348502447330685
0.34758476199407
0.344389436944592
0.342775933283905
0.341056755623231
0.336090476349275
0.332562831345806
0.328485809133498
0.326389323283439
0.319640980373823
0.317162632454286
0.315442592540505
0.310508648895524
0.305051303733594
0.303412195110026
0.302836370061832
0.306258411524134
0.30739039561242
0.310382000031181
0.316226473694856
0.324286878493
0.329084299700725
0.338535595201638
0.349518842548233
0.360891499819843
0.372131299539474
0.384002579366248
0.400225485684487
0.41768800811061
0.430941931550984
0.446672376278955
0.463360575032054
0.48108240499264
0.493217388564084
0.512296898509844
0.528148339965806
0.539703841049661
0.558571154227114
0.574057613498422
0.585135817203045
0.603341834730371
0.615204240707312
0.628065082707186
0.646586340143919
0.654299627738656
0.66773897264521
0.678474264487814
0.684198635681586
0.69758522720931
0.702538052374114
0.706843783141347
0.718567123982067
0.719012435794925
0.724041146568176
0.72828481918177
0.730854222283799
0.734295772520195
0.734824519234727
0.726706004189626
0.73067599018397
0.733037027837068
0.733774647611958
0.730196666050473
0.732959593579659
0.733006587230991
0.735764536024188
0.736614516710259
0.739149728810058
0.744810569183136
0.744359469666609
0.748948810363549
0.758437870415003
0.758982574418638
0.761147906306524
0.777406101472294
0.789396339117691
0.791985334133724
0.800975870393331
0.802895440026086
0.814043549792331
0.816821457408657
0.836649924424848
0.853973453372028
0.863525393754116
0.879643365735371
0.890650337147939
0.892836928869963
0.897107298840267
0.907799549366165
0.918592613299179
0.925317539607939
0.931162299801782
0.922293641415754
0.921322287035592
0.925308957066448
0.919843464953959
0.916425058734186
0.911907064027247
0.907440139225008
0.909076199039573
0.910483015612329
0.916154338389548
0.91128794985149
0.919965864615649
0.936078020568471
0.940162321728019
0.943520420603726
0.965601091878906
0.978677876935774
0.997169633987253
1.00526168750619
1.01392620157073
1.02878830040132
1.05123440674396
1.07999532595566
1.08057889532116
1.08522818147292
1.11147170037249
1.11689160240288
1.12935001135446
1.13705629051876
1.16082224407083
1.21164599190811
1.23028159085086
1.23610626588552
1.24682012115604
1.27955555588799
1.31754139024981
1.32821182038322
1.35798630460043
1.40270322526418
1.41471577878415
1.43262527690581
1.42856423628366
1.43646467989867
1.46470966323458
1.47630250144013
1.50018282954414
1.52310807670721
1.56974946505749
1.52432310662756
1.54640416920625
1.56661885265729
1.5566320540919
1.55584907196067
1.58810249328844
1.55048559310956
1.53132871989805
1.56492310287173
1.53498881620203
1.54286165899213
1.55221375766487
1.52668684082444
1.58286664572134
1.58145633943421
1.59893399410302
1.5815002691416
1.56241835723437
1.59579521628408
1.64654576431441
1.61416906751742
1.62237657846423
1.7028796964847
1.68750066950687
1.65243535771939
1.70558983723941
1.71995451726258
1.74915887293857
1.67102186289663
1.78905980130831
1.85517379748965
1.84595249455938
1.76385984916415
1.79606722341896
1.85898765407956
1.83984448454524
1.82956851331729
1.9321748293513
1.92640421200527
1.90460845569092
1.86833269945441
1.86058559233911
1.85623675864846
1.94422072521486
1.97501269464543
1.96956339967928
1.84281732448901
1.92053631116497
1.92974619257999
1.9601197825096
1.99434639643006
1.95502588712781
1.99990662550868
1.99359336933619
2.00239164515576
1.93988227952905
1.99534227710821
1.91097154378729
1.9420752348642
1.96797989529458
1.87001777325452
1.86456181134144
1.8184095174572
1.70451223560855
1.69155490174522
1.62614672681373
1.59230637130207
1.58165030592262
1.48839834757957
1.44632598247316
1.4430697506178
1.37400551066553
1.32391685343196
1.30381029682281
1.27441568412394
1.28800201806349
1.25798631815677
1.27979019117893
1.26834833976066
1.2326436927469
1.2088695615347
1.21018054191627
1.19670085937683
1.17855737220893
1.16089324118737
1.14726375430331
1.115866733243
1.08890765373046
1.06799528341735
1.05987108150855
1.02806206044878
0.996915072126209
0.967468158033654
0.938593513328355
0.90426743099919
0.876126627626401
0.83585649370913
0.79823838879408
0.773376556930948
0.738264175450624
0.704539946652076
0.670782602015712
0.639762001992875
0.607512122422429
0.574443043815236
0.55777685950423
0.532533670835534
0.511955395535277
0.492776247995886
0.470254676939818
0.457881523368272
0.446445109120428
0.430854744339844
0.4199930260281
0.40451982961203
0.392731246533818
0.392304864571179
0.387344516184741
0.38451148313828
0.380491093682597
0.36889053011593
0.371849980380884
0.370126850739547
0.370218257534802
0.374023626200507
0.371992724349562
0.376359492584322
0.380216989031786
0.378759683875645
0.379451317629712
0.384592507629314
0.387566315038946
0.382537824556865
0.382324486330927
0.382758814992134
0.379719092795455
0.375002252039792
0.379458691456503
0.380018436584564
0.375904062094083
0.367765751127566
0.363218465882718
0.368823369562941
0.367480223443925
0.362455783279221
0.362209084921938
0.363001242268384
0.360318723504826
0.356092615711377
0.363325124438333
0.36427998145828
0.366085526297758
0.372105498272577
0.374525796471827
0.37747940737367
0.381962084938146
0.379748302916079
0.384640515685001
0.386615322464383
0.388464840323311
0.387896852271035
0.392567393988023
0.395070007523956
0.394480839867019
0.396890042509232
0.398953747525637
0.400611942474549
0.404089381754821
0.399952813109003
0.40158670865557
0.408568312802557
0.403616922493113
0.40617730498344
0.405336566442452
0.405860504648878
0.413657996528227
0.420019161928819
0.424683802445677
0.432763672425366
0.442083353698391
0.447206455015122
0.458645656987366
0.477469501386053
0.489014247312404
0.493646873353181
0.50312922475793
0.52501765576355
0.542384839207822
0.537215158528616
0.539679301542786
0.539081197500987
0.531800824252787
0.53538967729974
0.538607842290338
0.51832848917194
0.511602850937896
0.500394815654884
0.495254583507556
0.491953459880137
0.485082177852687
0.486675228354176
0.484858978968971
0.484963478729097
0.476326208092401
0.477939536161042
0.484085961852255
0.481699011015145
0.490834436744284
0.485877901422703
0.478939376251361
0.483298021750645
0.471666939466991
0.472088531396998
0.47076787046593
0.457269694774539
0.464788742764137
0.452878960722349
0.45074019591913
0.453103105476934
0.450455669520862
0.445855575952991
0.44404362704005
0.443404674373971
0.436401702106052
0.429670561058227
0.434106907033522
0.425648105305541
0.42563151226703
0.419179562562984
0.412503546711587
0.419215399643371
0.418625536719134
0.41786669835927
0.415197042697122
0.415272783915831
0.408468313257202
0.4062590745142
0.41149670988142
0.410337354196869
0.408159504421423
0.404748204717601
0.401056107108102
0.396055554114222
0.399972550279378
0.404262384763321
0.39114325673695
0.395064831594556
0.394947373765905
0.389140687337825
0.390428477391356
0.379258024105918
0.391635941780517
0.396812271229329
0.391518548846567
0.388486596906544
0.393891822894159
0.382459112753007
0.382706189217876
0.375372400258561
0.380623192645115
0.385907456620834
0.379456881714878
0.378938212702259
0.387566966321584
0.394560215838777
0.391926528026531
0.387707892474259
0.3848622301092
0.392033265608903
0.391500762260406
0.395883091375556
0.40599926058543
0.40207234488512
0.402603176078506
0.400441419309742
0.410441327199972
0.407377500601858
0.428257702538185
0.435422989697258
0.425443128549941
0.441924638086972
0.434295886557346
0.426373075705626
0.444423508753913
0.453608286196416
0.442500694436071
0.455439185316173
0.458950743952833
0.476086811296694
0.476912869039379
0.474258440293608
0.482791129677952
0.516993888104781
0.541813046988985
0.532380215857144
0.543401581968013
0.554941983160438
0.554106893855322
0.592751859867988
0.601506449744145
0.594835834549115
0.614700258757769
0.645270564516347
0.634202197757875
0.675205336726587
0.674897590805941
0.666158761557446
0.692109592673545
0.692414852143974
0.678756709095559
0.673005894304443
0.699198766431372
0.699594013198256
0.686260213842005
0.678931864431287
0.666780263506467
0.649469033933894
0.65434530365121
0.651208978898319
0.652149337824024
0.679766588983192
0.64928040191281
0.695503366244057
0.668912801913216
0.671487355197091
0.66858474478565
0.639811068033853
0.652678876069229
0.614742082615629
0.620959678522345
0.642283739937692
0.6202744552083
0.619787623919007
0.59944774126906
0.629745133337923
0.622315603311542
0.615435508164978
0.602169639723055
0.608387401130008
0.595085397018718
0.601540525395832
0.606307189539942
0.613070081982373
0.585272871463563
0.595841710083229
0.614823789057793
0.583995590936248
0.616551961806432
0.657705451850277
0.638137743823803
0.614652474478006
0.608049333661625
0.609678977022986
0.579357427642168
0.598153753157263
0.646175444947101
0.634952851928305
0.621638613937349
0.678249524263425
0.640948855055714
0.603231774873601
0.613120271034536
0.630498274729959
0.658086644754076
0.65499103817357
0.647316065390835
0.637850732195945
0.663685078888227
0.687672689633109
0.68019425015759
0.69948825623333
0.664574016352704
0.705527243441356
0.699296298343122
0.690394521315131
0.704831953823607
0.660232060953796
0.673755548481843
0.715725276754689
0.642038119762363
0.70049205668167
0.716051698571999
0.731216521951953
0.709141460891561
0.725739609547611
0.893695433372395
0.879575551820885
0.832781805511339
0.866086423122865
0.811979652491183
0.996661116523173
0.89178874779219
0.841583808860689
0.967945447454059
0.897134191689576
0.898149420018167
0.881193902863457
0.766688717293706
0.93320226170944
0.844192640646562
0.790627793342433
0.830141534743455
0.830707028555011
0.841160218217093
0.861217311900368
0.711594287450305
0.707078268775388
0.745206597093042
0.85930091251162
0.720672184077162
0.93365097185125
0.838974014577696
0.967147154295103
0.783791740804669
0.873864926023331
0.983672177576118
0.89523017481963
0.99784746732904
0.951860333755563
0.6551811653634
0.773838313984247
0.682091564484917
0.882055800547471
0.867161297493517
0.941182063829269
0.789221403750138
0.948832071374756
0.790128722029823
0.860906777929112
0.687957842677226
0.815433036040935
0.830403890977061
1.36177754428117
0.857750959306695
0.654159315157438
0.68027211794932
0.820612902454177
1.10831631056457
1.15507414582507
0.652146601891032
0.710713846821635
1.16220930898306
0.575967993801118
0.590888658774677
0.988402882269579
0.712792772736412
0.844480048038346
0.791487067600252
0.735713156442755
0.751855380580025
0.918751043389344
