3596
4000.36533379555
650.420452594757
1
2
2
0.0986553922102147
0.0852157021391922
0.0953881370801688
0.0801837841923562
0.0882481036872972
0.0910300489365024
0.0997912361773661
0.0787045305533615
0.0994009329581
0.0880158309723504
0.087287531069811
0.0847307471465688
0.0855300255334936
0.0777485319663742
0.102565930731374
0.0831785588725371
0.0951839387947936
0.0848703195391452
0.0979403992212804
0.0771341094425873
0.0997511244400364
0.0826323555530398
0.0850523226212627
0.0848932161986969
0.092790793911687
0.0809956420774564
0.0898196209414138
0.0842547207158587
0.0941000071731546
0.0869114047420256
0.0929662773669708
0.0848749928827058
0.0927925263245354
0.0859450629760722
0.0946322958227606
0.0871986307237083
0.0920974180495682
0.0807151404837903
0.0934246362238307
0.0905094833517708
0.098376532203815
0.0760411296437817
0.0973795577252567
0.0849852430098124
0.092997625809017
0.0818426632103133
0.0917069563004828
0.0857196433750593
0.0934105240203178
0.092131003995374
0.0962290207085692
0.080522825511761
0.110314372505599
0.0950006210656092
0.0982534830525136
0.102218773061408
0.0967660935078567
0.0813769234262624
0.0911457633144773
0.0833755802590327
0.114616455445705
0.0973509483460046
0.090755467263777
0.0837874221993393
0.0934416319174937
0.0850823824104005
0.0856615869395354
0.0852297027273127
0.0935085197835666
0.0841845928099683
0.0901510169644073
0.0970559717541884
0.106311180049732
0.0898070295607069
0.101457738477734
0.0885255682832977
0.0890095705957881
0.0761352609353852
0.0845946091664449
0.0813283395400031
0.0987663162658881
0.0881371084668168
0.088380727618831
0.070166371843149
0.0934696361739889
0.101847639250736
0.0823178630781027
0.0905870350657075
0.118400699417385
0.0941367429805445
0.0883995595005663
0.0844076349946273
0.0825662921975146
0.0779984434087063
0.0905603118609145
0.0789252431293511
0.0811299553787335
0.0799055455424223
0.0778549340614094
0.0939285377281378
0.0948143489822842
0.0940327512705421
0.130832562569466
0.0853060569457065
0.135379325519902
0.092754801231106
0.0974857246098413
0.11548461506088
0.103537520025324
0.0871159005623777
0.0915655376954647
0.0828924716476899
0.0937201322936134
0.084515541809899
0.0774394109783479
0.104810657862371
0.120453505182483
0.0879461835738288
0.0906885884202161
0.0851856334746052
0.0689285020263535
0.107205578284951
0.122156200861173
0.0901888903353326
0.103067487579204
0.0812358361540264
0.0843667273398485
0.129223375437496
0.110346613349189
0.0885833558776176
0.0845307286489491
0.0764488041164197
0.0767648388983524
0.0837388180465085
0.130178371140593
0.0821629433744896
0.0861144332830854
0.0697531072444593
0.104519308462545
0.132833535626274
0.104077810926077
0.0811247940082637
0.0722598647715296
0.0968123787070629
0.134519353024115
0.0890625356851063
0.081434090971847
0.0943893097990879
0.0965587621983179
0.0730249407637357
0.0767782656294679
0.070208826704368
0.108727650888958
0.0898095684101558
0.0605457152793661
0.117256095971784
0.133184524638539
0.108826510648012
0.141491691658681
0.090138062113131
0.0970969760174796
0.0796592693309554
0.0866848275239212
0.0749246630536326
0.095265755618731
0.06928471052946
0.0993903359068733
0.102281108680667
0.0916631840963562
0.0859114038425125
0.126261839142451
0.0882939538050342
0.0891338986129696
0.14373665820144
0.0937823652697984
0.074458396458695
0.116146531537201
0.0968179965372467
0.0813385302210442
0.0888147153482077
0.115869723949813
0.0783950430435614
0.0859792669062805
0.0736663469225197
0.0956839819308249
0.0970804881774504
0.0873536498342607
0.0802796742485395
0.0875489126935231
0.0709236297490596
0.105396872398453
0.130290796937474
0.119029723915208
0.0855069328366787
0.0889211588922148
0.0501780483855908
0.123970275937258
0.111677392651451
0.0895112072433758
0.080776982466306
0.0820787319036439
0.072479378923652
0.0787886416017004
0.0764051079731588
0.0725191993914701
0.0600241240334701
0.135284923130429
0.0912336137157251
0.0905449668939276
0.0788970618907142
0.0871842377323013
0.0634354682691009
0.160927356600276
0.10088745516995
0.090558606706653
0.0762663591088226
0.0824153241622367
0.100147659326764
0.103614474485267
0.0796242239885693
0.0900259913694923
0.0740535839518226
0.0878217436906547
0.0699924025744394
0.0820099507357969
0.0760289593434331
0.0903229954827964
0.0737664498305421
0.0826745420466691
0.083506815145709
0.100456248147507
0.0763828897238148
0.0852811251450117
0.0798019851673991
0.0726488793746124
0.0871676654206299
0.108200265574298
0.0802518582802284
0.0881996817220142
0.0780539088525206
0.086533278966781
0.0790240704009622
0.0806899305389871
0.0815440080289925
0.0787378859340913
0.0704642566227687
0.120948429227818
0.0844352418452518
0.0885948699107231
0.0638229168675266
0.123173195287247
0.0869373963487917
0.0950276867109462
0.0726475099784591
0.0888379318434914
0.0626418136098425
0.0906710647674685
0.112388782266579
0.100883976146935
0.0730256785632586
0.110491119855814
0.0804505258255651
0.0897672032186829
0.0723576102342285
0.0906578174138913
0.158963177621563
0.0971314240718784
0.0890520133334352
0.162293868611769
0.0899819866963085
0.102284984641918
0.0731143422935268
0.083206272255665
0.192543378786384
0.158137676419734
0.0818115857572186
0.0984741973695345
0.101404219143333
0.0849535388842076
0.0956685978896484
0.0966624506018998
0.109344730853
0.118527719464423
0.133686150840726
0.15281642102341
0.0711314869311415
0.142441841614483
0.108239162224019
0.100680305299738
0.077833653993527
0.0985601821873626
0.0795778689734
0.118497766145756
0.103889981634084
0.127121290952592
0.0910126746591578
0.0975811621253219
0.11369835880848
0.110583106081456
0.0863107359155188
0.115805498784582
0.0971062283086589
0.0903429010637284
0.0950205378200061
0.097200252769738
0.100494335816135
0.0959094146265338
0.0971536321173347
0.16815770784045
0.105650339119788
0.117435738304157
0.12208160195684
0.110128551175788
0.097127176649593
0.0952150239029346
0.0908951326349855
0.0987229369651066
0.0799207313338398
0.0976826653719372
0.131347626157528
0.108195154637941
0.0982977660626045
0.10054644444424
0.090032508177498
0.0988231468244156
0.096399933027903
0.109192085027142
0.103707562079882
0.107610099506211
0.0848361863491005
0.13664930146165
0.128574952044389
0.0979242073153119
0.155718368730427
0.14135416670057
0.109114125946292
0.106618223958975
0.100042368083452
0.113078221900429
0.103563922040352
0.121290116626196
0.101201572062714
0.11858639945818
0.128636849022325
0.131997098132371
0.115462393261708
0.1315471336677
0.177181654546975
0.192036826164654
0.140217685630694
0.129945544539307
0.0945720556271845
0.178848132229827
0.133502800457357
0.173315549463757
0.14755728217164
0.134876579205437
0.132208825227875
0.133112102830547
0.13229052827839
0.140713694735924
0.141471253690197
0.145175898562582
0.144890307514984
0.147897687184177
0.153096276770945
0.137938072058893
0.150467135996953
0.202442245592452
0.155109276239665
0.162424142580428
0.154149823875393
0.150295505159379
0.198923788604101
0.17628724539378
0.221313180759727
0.194289076973724
0.199697442064941
0.216612142287402
0.173797993366428
0.182933399368875
0.165894755629715
0.191554464987485
0.18067028575354
0.187792584812087
0.178988269696535
0.19045445194382
0.191504825628221
0.198615441372265
0.188902164126654
0.201280275441331
0.201260502300031
0.230895653981473
0.203902214832331
0.228286619890529
0.187484888341265
0.259810753306261
0.264566043977312
0.286951828246052
0.222085531004939
0.256640217275272
0.221622672868624
0.244275960403039
0.225788146256115
0.242374624066344
0.240744593746512
0.260609702422896
0.279445251133474
0.280820161839853
0.28263794226402
0.287109297448504
0.252067450106069
0.301877872846396
0.271926561414504
0.295070827345644
0.296348259003905
0.293568622916762
0.261297178448518
0.337291755215885
0.287600023586355
0.304621808475665
0.317163461158619
0.311700346888835
0.295512758147804
0.306725667927521
0.308339798096556
0.311090590944873
0.315469904805328
0.342599230151271
0.314141789309398
0.352469932398301
0.325465596323834
0.352325812266205
0.368433726637671
0.35518005933094
0.344423459138065
0.37046636184833
0.340608654344679
0.384777803977218
0.340152729452606
0.43964731874751
0.370125172873206
0.439755391392376
0.418100699721804
0.390404124192602
0.377277080018467
0.408869485500783
0.390063085435569
0.421358432713122
0.402171883968372
0.436389888268316
0.404533094454041
0.429349570204128
0.424317238577647
0.433737865131275
0.428679315775099
0.462729029028196
0.435423452513221
0.468977112165138
0.440958972844485
0.469346284606255
0.439016660260104
0.547973724531994
0.452466732042932
0.518631652787015
0.499795906491512
0.520285774404284
0.487300982696532
0.500874313821745
0.478278594679772
0.510369883032608
0.517582099116288
0.534292009639095
0.503242254411135
0.54870713039025
0.52000325636893
0.530954264849334
0.512133729577141
0.573576603657979
0.536852050423189
0.58427546402068
0.551660399657093
0.591202030532408
0.54767712662209
0.606629201938456
0.604750052908262
0.619867704117785
0.574086702096408
0.649199151332148
0.587023055345493
0.640858135834283
0.573770884460986
0.645596087834287
0.5894425363753
0.620532672280254
0.611661434995701
0.657805860384724
0.636245929344698
0.653055593677554
0.658191751055304
0.664812953789812
0.643589253308915
0.710676090399673
0.656000189841384
0.71508750990491
0.655178297200744
0.732347803324595
0.657093977487142
0.736146775259643
0.669624381449701
0.751094895421273
0.722215610696194
0.789468731036448
0.683096731819445
0.767728113136472
0.708911242125159
0.796270209411638
0.749886365571302
0.806349574446413
0.730353388262002
0.777916765050122
0.754039822150932
0.833984583363207
0.755138644467341
0.859475312362885
0.78870016017442
0.837487409262
0.800563021516498
0.857363766593133
0.788945102321475
0.867226161756341
0.80787112597137
0.852790291343661
0.809893090995394
0.889474901945243
0.84672816391459
0.894282120197281
0.830053981441945
0.930022978543954
0.808137090832958
0.960202423028013
0.880029407882202
0.93588412274933
0.859797707014514
0.909859270010753
0.856440202329702
0.937085911521339
0.872849662765737
0.944769349772726
0.913191471488748
1.05509649291095
0.944336147489534
1.02557527159073
0.936632385561362
1.08027540124402
0.891505328722653
1.00952956151785
0.890408325269376
1.02931645178019
0.956629717529968
1.03513616030251
0.933061893762415
1.05619824283921
0.98910003484361
1.05113261766212
0.981045730375552
1.05233041528597
0.928372121098319
1.04943123452238
0.999213944841387
1.11787112984178
0.997068761632434
1.12299523883872
1.0967198926613
1.0945793155136
1.05955744510771
1.21471106839398
1.0275446579835
1.14329356717225
1.09684792255875
1.24379292104335
1.08423065900162
1.14271386406504
1.10788854737968
1.24637906378309
1.08650794489955
1.13796314936302
1.06376666917271
1.18900468640147
1.06715367815473
1.21299180253904
1.11668886156495
1.22354952312444
1.19138673204527
1.31483751661399
1.13446103647772
1.30740885084371
1.172312831651
1.26515889184607
1.21311699754867
1.25106873847673
1.14611975654118
1.35318373776558
1.19883751346452
1.27473342226315
1.12167045511146
1.37643702605869
1.2777989313734
1.34676870455913
1.15040396538314
1.35509240657965
1.27756247027125
1.45403540245364
1.23337016726417
1.43950979997068
1.26159503383461
1.44861755093751
1.22712103293882
1.38594453765732
1.23987276435046
1.48724618732998
1.36039147948916
1.559877818129
1.36621709325076
1.53150028320625
1.34159830940041
1.42871726471402
1.34065325550834
1.43329447205634
1.35229804911422
1.55617655473128
1.29126495223074
1.76472471197812
1.28593114567179
1.40750596978942
1.36680006757957
1.49488859576226
1.37457308336791
1.68797314268358
1.35649372207259
1.39528340976388
1.28582867290843
1.57505423264797
1.34163543611189
1.56662836707821
1.4085381959683
1.49871982289657
1.38021249448312
1.68038273954803
1.32574473435431
1.50408950339807
1.40700406416856
1.57305852383475
1.36840058366421
2.26061957771917
1.44205665787588
1.44469937897196
1.44440000396697
1.94042649903671
1.51930031740006
1.56254685140531
1.46532191580633
1.74839411092822
1.45984152171882
1.56554985034176
1.51280908398693
2.10013843255125
1.43555844669549
1.51516815150522
1.50966107179766
1.61986794627686
1.51004897447355
1.55249145730964
1.34438601888348
1.66193772977199
1.41722011772178
1.78901717366827
1.55104605811378
1.65884369146958
1.34499130530418
1.76363706252388
1.51585985561463
1.50424122298536
1.51503259048439
1.96403975921186
1.44776014402342
1.57691912634474
1.40404961622226
1.78336401833274
1.42980061038898
1.87917137810501
1.51051918488929
1.6364736315139
1.49628727459187
1.69095807534182
1.45490080977066
1.64725923363754
1.54009560042902
1.86006733857385
1.59533075494698
1.70181258884297
1.49033660987587
1.90617468154674
1.40528089138657
1.59518031423909
1.47118740748299
1.79263992409998
1.5133624758892
1.96237710392456
1.54949266931805
1.70378021943032
1.72927280944625
1.67102018409167
1.69946823979181
1.61717574957673
1.54153038228168
1.84096511204218
1.57603484923747
1.75198538694149
1.53560934892555
1.85186179908026
1.39096312052291
1.79262634063175
1.56146639456617
1.70251522117903
1.69062051036376
1.90832912698207
1.83909538500261
1.63016462748517
1.58281079897298
2.1062358916049
1.76947029066077
1.71592136386297
1.66939772859812
1.65315711202257
1.43801058425805
1.80255893618066
1.54316675722481
1.73279307143692
1.57741465032277
1.76724346408942
1.55627654745123
1.78127254038571
1.52148913412975
1.69143656109553
1.55160667149814
1.72757678631401
1.57246176522066
1.78652544089396
1.46501162743459
2.12758904420075
1.59362479946
1.70059577038219
1.52170169989096
1.54047949995438
1.5742186304032
1.75336664101294
1.52312591862708
1.6246930001837
1.53589080675098
1.64648537002384
1.55617191227558
1.83384596760926
1.67610664500606
1.74358927583712
1.52375454035872
1.65057170360278
1.54265006854438
1.78848915041414
1.65146272481736
1.76100592596443
1.61608360952748
1.85312543448709
1.56181981615801
2.13044518121913
1.84744294526219
1.8647829462928
1.49825507752441
1.65781335736116
1.66522503705138
1.71201291017697
1.69254626767234
1.79812233210388
1.54924088878244
1.675956860587
1.57272003703282
1.69995297365349
1.55992860874381
1.54775623173046
1.65894624586889
1.55600287483403
1.56779785379735
1.66846038779605
1.55348798954882
1.74377071576953
1.58065775351853
1.77601271853329
1.58922040416312
1.65167898561836
1.66022374684632
1.6122998829042
1.5420289555741
1.80477172107697
1.50012371629495
1.45207507573743
1.57112247826674
1.68261207333275
1.56931768643143
1.74865459912002
1.6299346760836
1.51044121549523
1.50764049129178
1.54231477687194
1.41680452457421
1.69205493710275
1.48141133927204
1.5569970467032
1.56155504745089
1.70410467133986
1.49537989505978
1.56174900066256
1.459951840413
1.70252242537355
1.54851882807413
1.62560763278276
1.45421583441759
1.48530886396285
1.64578207231862
1.5874203300194
1.39490552239694
1.49384386934527
1.46817708363649
1.53784665666211
1.40127006015093
1.59715228399528
1.5028709566278
1.45661972165111
1.47586358498257
1.49443571435565
1.55989868467647
1.55319580460047
1.43519469006817
1.40928987339357
1.40832237881427
1.50696172596012
1.42285727655704
1.5341975712347
1.49437117364417
1.5448101665548
1.4182981573156
1.47087678335682
1.38035995448366
1.51691394048039
1.37030909878471
1.45150272406684
1.40667344839446
1.53747357109355
1.41379455715134
1.41539440306735
1.38098024301867
1.49429346717012
1.3147239948658
1.44731438229239
1.32612778419547
1.46401596136872
1.37951786471218
1.38315897891411
1.32127961683339
1.3630703761662
1.30880331209832
1.4110097352364
1.31053414949361
1.32986709829274
1.25984441160789
1.34706341114535
1.28003704648415
1.28986324355318
1.25169443822994
1.38039162554422
1.2318087935508
1.32588121543352
1.26791768437617
1.28399545744709
1.22476612313437
1.3007444213421
1.24774963922152
1.30954222659992
1.23572889543899
1.32919732361043
1.22984180594977
1.26352152884286
1.22220380969374
1.18639098385424
1.16762293000066
1.21846038595685
1.1956123204116
1.22752703590868
1.14993450697279
1.23622585689123
1.17498193061194
1.19208979898125
1.16017694523777
1.20360966921693
1.11752124093726
1.2016313791874
1.11263581518966
1.13951432838713
1.14027204948649
1.17833276799519
1.10435449831127
1.14951141636041
1.10550250424913
1.14699952112209
1.07037138009205
1.08674497274916
1.06599821523692
1.09210218708736
1.09227853623367
1.0879990789094
1.06403529871973
1.08503856189522
1.06984098848768
1.0862037828172
1.01689162406958
1.11369323309192
1.0348138286971
1.05262727628669
1.02318738673493
1.0598279904118
0.997880855680036
1.04072911378913
0.98485076293621
1.03304101850162
0.978879354691876
1.00569111275476
0.985434031657866
0.980071480940617
0.986949975208906
0.986575413465681
0.950507633928264
0.993578906086559
0.940164247665983
0.942989376014668
0.938986673570437
0.948830297132933
0.968006453539679
0.950885081725976
0.903557679737595
0.903152286537174
0.912931644348484
0.935030727994142
0.889291765495714
0.923740330672245
0.900908773676943
0.925053616284792
0.894021949495893
0.886068207532048
0.885591365827802
0.909080885241767
0.865990084320481
0.881401676669619
0.889153959823156
0.872988644016115
0.853378205169453
0.873643023484101
0.830792804003769
0.833733290612504
0.825130723908792
0.84185681911453
0.823038334047775
0.826449576236598
0.818693620694005
0.830397460636673
0.802626091859413
0.821588138120056
0.798438411579856
0.791171689709064
0.808707033056102
0.81303758992547
0.762347386309283
0.805055031417756
0.768502229451577
0.784583290650305
0.768892851718413
0.797130883842024
0.757070456229993
0.774811284914955
0.76065823482214
0.759511669218811
0.746330711262221
0.753645552397946
0.739153080806453
0.742440951045309
0.73581763424378
0.742207140048574
0.720231032568526
0.740240560761042
0.724330098944673
0.734111919426958
0.698121488700175
0.720978435033081
0.718034264504979
0.696058837960101
0.700842130142102
0.705100217124881
0.698759675330076
0.702847309444119
0.669580471558882
0.680775084454624
0.690421755915427
0.687681063354415
0.655586731848081
0.675397873499865
0.654051830859266
0.66408801687808
0.645517478907499
0.659869508547738
0.652643267127208
0.658826003251727
0.630412267622589
0.640285649101488
0.627145721698737
0.642487778592454
0.626395663730545
0.641727985029534
0.620325194959005
0.632348240652336
0.603587055512313
0.620573334305167
0.600293425099885
0.61347140912105
0.607141817994527
0.615775488099622
0.612476417766905
0.601837120623532
0.590538108989703
0.585365703938578
0.586892154241244
0.58861229421086
0.57663309440364
0.585427779069985
0.569612772124559
0.580429115720133
0.558797161145456
0.571648881355387
0.566603985683927
0.562127995365121
0.552552984868769
0.559299323604777
0.545848991506636
0.556741367319204
0.533620795236675
0.541370770865215
0.537828201299544
0.541381170133368
0.53083224853569
0.537005685531248
0.533038599178525
0.535681791544572
0.540179192849857
0.526513348206377
0.523496712086351
0.534314716063693
0.519017597138165
0.532906840648866
0.521860855925764
0.522269897644864
0.514654306685704
0.525490211508695
0.51063362510161
0.515945503527723
0.511337322652403
0.504059397007712
0.498710357988879
0.501252494441807
0.499842279333582
0.507989087233543
0.502605924547854
0.515780423665689
0.503797337979469
0.511890823742921
0.500385033607834
0.50928259498274
0.499095149010653
0.511632245748237
0.504143922137781
0.513221331615321
0.506851012437771
0.51109004841683
0.502610768771919
0.514088431266746
0.51232871890809
0.520877632317576
0.520302276128825
0.52182179183827
0.513738544919168
0.520477167574151
0.520330889887964
0.528104231895066
0.521896559476359
0.541374689132597
0.534108183052699
0.538642094615926
0.533046983920344
0.534138861494177
0.532495298325516
0.545058185328928
0.535977648329499
0.54842346747455
0.553947700080015
0.551663063236513
0.537307796160459
0.551451428184464
0.552378369969952
0.551664152606085
0.54840715211902
0.560876785922152
0.558644098351528
0.572960108955047
0.567453319075275
0.576437347592971
0.57506051077668
0.580463549573399
0.579713759726634
0.589128674629572
0.581015902393732
0.598095863797208
0.606838560482325
0.600891394113644
0.588183864945447
0.608203351848982
0.609219528188797
0.623232025617737
0.626958332951082
0.633978874465722
0.639874053602054
0.653796056131596
0.640100959697261
0.658960791366957
0.645683828689471
0.651452065737568
0.645113441828566
0.655337286778435
0.652926319613032
0.666435910211144
0.663084375293292
0.672533517428875
0.660137611348044
0.677072448402706
0.661671492639976
0.680534361127586
0.670738117969097
0.668986071041978
0.678855383784279
0.691211929463354
0.672711604616766
0.688536154286452
0.664669332053639
0.678896018163804
0.677882556467664
0.676588065026882
0.657711949042333
0.659430983084021
0.670206936891724
0.670764379512212
0.65664304000163
0.670746399431459
0.663187474849675
0.670540832984779
0.655713495452387
0.658767709169278
0.665645656595224
0.666607732515546
0.647422400580831
0.649383596394176
0.659474618939001
0.654458552705154
0.653293560617351
0.664384033574588
0.650085025632211
0.666495914801779
0.647100735309426
0.663812432493676
0.660172937166378
0.656541786936504
0.649006852171341
0.667857567890008
0.65900071552294
0.660197013468273
0.644904472895709
0.659097396288137
0.658720636826222
0.665199207131652
0.656445167159696
0.660311387553508
0.651675941524448
0.670424468033973
0.650542925766917
0.651791677010891
0.645837073707688
0.644992020690278
0.645195194037923
0.648254548428161
0.64545527173552
0.646130294595228
0.639328414157358
0.641702702694221
0.630575731587837
0.631764433277421
0.629805785530305
0.635184452623275
0.619107306155729
0.619231278406341
0.616068850208934
0.616996196060654
0.612358570802115
0.611199352579049
0.594204169338873
0.58980914336666
0.593316710176031
0.588198933757271
0.583464203729269
0.583387954289398
0.57012518105408
0.572033853524989
0.561521677656418
0.568600372450945
0.555498035718266
0.55889241428938
0.553942350715683
0.551257372540126
0.543042498275126
0.5407076059906
0.540872019938118
0.527111180018266
0.526897636380655
0.53478929548093
0.525539360920253
0.524298321636622
0.513383382663833
0.512882326372388
0.499133639705169
0.508707668238976
0.500235810136302
0.500284159716112
0.486879159872082
0.490338034735278
0.481484801912437
0.487276834984542
0.480357884969729
0.478630390954157
0.477736043083816
0.471017411808097
0.466204289585072
0.47620796404994
0.468681416110369
0.460879007246235
0.453507166947688
0.460920218096036
0.454840083240171
0.455193326058291
0.448622772395546
0.452598394811132
0.446768853315803
0.452449210087989
0.442538437208393
0.440445399113704
0.43361736303409
0.436968963710907
0.432051562118044
0.437254859978829
0.438735055958559
0.431832695087842
0.422527161882341
0.423021194939166
0.420760200307607
0.425025306570151
0.415496782859203
0.407920811800346
0.413105548399528
0.417796604852707
0.407046598018077
0.409787009650455
0.405200350615182
0.406905572320234
0.402783799967157
0.399733337816064
0.394693794701789
0.392602807685086
0.391713562994852
0.391430712696414
0.394008664694388
0.393899550001545
0.387325114362481
0.394454437262833
0.38519383510847
0.382377217567264
0.386190946415992
0.383229646066417
0.383525078142603
0.382920911394626
0.373146293664537
0.380229992037104
0.373779610894238
0.37367757715828
0.371172441467868
0.371083168798424
0.369276150951127
0.368206309452799
0.366327473447183
0.372284185412376
0.367118185362989
0.36472480165046
0.367451497532518
0.362816676824165
0.362556614160921
0.36540782193685
0.363446352177766
0.362474951053423
0.356020006571142
0.35777787328166
0.359449323808885
0.357695630171473
0.357426398080779
0.358131521166394
0.353302395781479
0.358487601379748
0.351792536462004
0.346734942100893
0.345479909109435
0.344056588760937
0.344359217682253
0.348105229265419
0.346304045230826
0.349168736276885
0.346205120489932
0.34628079139766
0.341692661916724
0.341007094147684
0.339528383635872
0.337415077667222
0.335987051399276
0.341070795889047
0.336243073627981
0.339340378665343
0.336277088222587
0.335850840041035
0.338221732287429
0.337249743946357
0.333030819314003
0.331177299105083
0.327189504888773
0.330709658368615
0.332014113021298
0.335612248929997
0.3302660205297
0.325860164556388
0.324356800080417
0.33344616618668
0.332128514680055
0.330053249951402
0.327063753028712
0.331575978858235
0.328582608258199
0.32779675332174
0.328001321607894
0.325883031543981
0.325610978093633
0.324046190883234
0.32668884140824
0.327951721646288
0.321256514486709
0.324485138264401
0.322990720899277
0.322905971697981
0.323197562394547
0.324085250870697
0.317083164406928
0.321053807423742
0.322080125074969
0.315108296717338
0.314088898615185
0.312893509948623
0.306708636838275
0.309977742805586
0.310596892909177
0.317615169755138
0.314650993106382
0.311195127602627
0.309219755748121
0.311327314709004
0.312524769572382
0.309446963441565
0.310779064250298
0.305869852304906
0.307142708355111
0.307066290870359
0.304982056773448
0.302509613570682
0.301001043748639
0.300970835113524
0.302082833482908
0.299149616904743
0.297225957660371
0.298487055965468
0.29299387882113
0.299596330470959
0.294211024242006
0.294323913712055
0.289059673215481
0.292864484355382
0.290813869692152
0.287920433400002
0.288438567665833
0.288568781056227
0.286352465594162
0.28455930196725
0.288176248646289
0.287898262598311
0.282509201454705
0.283515276148078
0.281830548110366
0.281608304222323
0.280940933269934
0.279926045337631
0.277009705168579
0.28149279969935
0.27845890695204
0.273512956016018
0.278580344417001
0.281174318549807
0.277458595576669
0.273744954317118
0.268824786810979
0.271498299613049
0.273846153753772
0.272948094956699
0.267968981654909
0.271067222437139
0.270940080860151
0.269560095856866
0.265265445961935
0.258618009477828
0.260992556500066
0.262244782214437
0.259376080381732
0.262003246316181
0.261883237240741
0.260584326394022
0.253632888954445
0.255306845638154
0.252809610988794
0.248601011914327
0.252273744446356
0.251980129281863
0.249345626650824
0.249904918863945
0.250610970320934
0.248410206693599
0.245958834110161
0.245090281314206
0.243823348179364
0.248460626281099
0.244469324278491
0.240094566443147
0.240134667489597
0.236882132698048
0.238383858550444
0.239953664222067
0.236315038282308
0.235744531000243
0.23519910604897
0.233512816061182
0.229541838652151
0.233639147838802
0.232688749867162
0.226302591065651
0.227110173781192
0.227012669428804
0.225704231132547
0.22938099355399
0.225212205320048
0.224096533102531
0.22670858044186
0.221946260329727
0.221423592453052
0.225256046809487
0.224065835287623
0.222758647089861
0.223228615531175
0.219132538433629
0.217427459493258
0.217647476103075
0.21638336529278
0.215712570920237
0.216638940347037
0.217040731658481
0.215422730495872
0.214428151310591
0.217932100989525
0.217166387791294
0.212710879180034
0.212697850263129
0.209490387286185
0.207574833556
0.211224247121793
0.210049223536286
0.210194193972515
0.209115665719538
0.207081682205718
0.208630772178374
0.206091285590215
0.20553621230719
0.205790303727923
0.206587415071297
0.206635199252202
0.204880445970094
0.207109745723878
0.203712686161456
0.198064420380121
0.199540754047589
0.202976249937903
0.19980004434251
0.197905246330953
0.200635249654811
0.198014877517138
0.196877242792418
0.198795331621554
0.199653477818869
0.199070191611192
0.196699981749937
0.195666210605936
0.193618810970479
0.192415155536865
0.194664273603555
0.192332275162597
0.190280260219516
0.193147713206939
0.191841919556884
0.191750699125078
0.193353975941302
0.191061055788376
0.189647779908126
0.18998811900172
0.19154280234994
0.193504863753952
0.190424725508082
0.186901558182763
0.18560428785552
0.190300111842584
0.189254142058635
0.190064529969453
0.187952396067435
0.185793494459943
0.187177914903899
0.185666746328295
0.186206052287981
0.184935136187936
0.184210495760517
0.187654877170634
0.18808470854956
0.185301400655597
0.18700151012998
0.187203772627997
0.183483046719716
0.185987717129229
0.185122541670708
0.18191505612653
0.183944978654851
0.182121466007806
0.18137151243246
0.184815059596273
0.180051704465884
0.180539889586583
0.179749171117097
0.177817768808074
0.180160156004395
0.179470981302616
0.176783690712467
0.177862250281266
0.17686930819058
0.1769834585978
0.176655799042114
0.173420817098897
0.172501488447626
0.176121790834645
0.175715875466789
0.176937472991166
0.173154587301493
0.169609491271374
0.176450613502157
0.175359698761857
0.170178677589471
0.172450049179412
0.170042670455724
0.17355390806903
0.173284088583308
0.169489575666557
0.170005403634203
0.171576923106267
0.170881698032988
0.169825073205297
0.17064288153392
0.169968755942306
0.168503947963353
0.168732499347057
0.165359745330611
0.167618290877798
0.170450871197062
0.168031587182189
0.167815141142232
0.168251340643773
0.16557149263421
0.166967657036608
0.168319269990677
0.166649860034078
0.166985183983504
0.166762997031669
0.16327605662084
0.164621502698048
0.162328203460011
0.162831309061563
0.159646147081537
0.162238647055324
0.165024097945987
0.160667180445221
0.160910281831587
0.162771465460273
0.16226275560089
0.159261116766188
0.156549841291564
0.158327998177318
0.158027621715458
0.158757372646622
0.159061796490699
0.157472890469316
0.157380992921958
0.155820464361065
0.154178986058664
0.154373769722469
0.151457163010339
0.150992061783075
0.151129623968913
0.151127576744478
0.151498599323883
0.152872559703197
0.153060727459092
0.150047936939771
0.147497677447756
0.150053848009622
0.148630597423964
0.148043482472338
0.146490745711016
0.146609008295427
0.14630449166355
0.144780195808694
0.144910668326018
0.142616921392032
0.143288215388437
0.145521564792472
0.143796842433552
0.14483969045575
0.143974806758143
0.141880579210254
0.140313681717944
0.140578401039452
0.138728827849492
0.139511840117958
0.141110454046136
0.140696182929046
0.139617269384254
0.137845070939918
0.13715411948589
0.137173820433239
0.136636577571017
0.137466074102469
0.13742085424905
0.136160694806936
0.135990358718003
0.136707811142785
0.135212489487932
0.135668268569819
0.133918868966914
0.135205735043171
0.133807699260155
0.133716899376719
0.132812932895989
0.133590027114018
0.131763898129992
0.130835004508195
0.129787527382653
0.132255245746831
0.129437457727747
0.13011034943305
0.129308213404692
0.127982601798177
0.131082091826192
0.127533379554219
0.126835678129819
0.127699551488668
0.125582257103107
0.126156772488283
0.125332746258656
0.124892625106701
0.124054060669493
0.124606297613948
0.122684740425747
0.123267840073732
0.123511425609477
0.123737985696362
0.123439544392281
0.124072107585324
0.12183384424943
0.122138257941195
0.121726369428721
0.120510759719474
0.119452387420365
0.118607178931001
0.119892377776168
0.119780334080767
0.119599631331967
0.118247835022659
0.119751237128316
0.119059592632258
0.117575519746131
0.11971137953994
0.120596215247868
0.118080329076904
0.116292238827827
0.119303894968467
0.118075794675133
0.119152800613814
0.118896028483439
0.118752896219345
0.117703618838133
0.117045328032536
0.119849437162292
0.119724874178682
0.120783764077667
0.118200256736549
0.117217633402828
0.117064369796422
0.115626376285418
0.114813504225466
0.118028570026822
0.11649259775586
0.115201892092534
0.110705588524417
0.110831251709728
0.111033735111774
0.113043430552725
0.110204105706574
0.110400321540211
0.107159214852843
0.105530546833032
0.105281698344122
0.111449844142424
0.109044789609847
0.10726416056485
0.103675998229494
0.111575238405335
0.108166407077119
0.103279688664292
0.1014901521581
0.105254853994073
0.10731354951901
0.108800441064183
0.103758555459785
0.109318112692995
0.10933532670804
0.110862301196784
0.109159145074106
0.112685336201759
0.102872385274242
0.11076705573776
0.105511074609132
0.107792372227667
0.103442960663121
0.105447145984497
0.102343589511306
0.10503810415567
0.0980756547566004
0.103457422514992
0.0979616531593377
0.103104229078159
0.0984675873139286
0.102021005891688
0.101219641759418
0.102249004151081
0.105985240853307
0.1045051317425
0.105635891764995
0.101488643490063
0.110418423970807
0.10178965757314
0.116248018760015
0.0950808050543897
0.111977669904591
0.0972387541924538
0.124278457512471
0.0941030328341727
0.121110252852365
0.0917316816972196
0.131305143834684
0.092634313933567
0.124101444478018
0.0908877888207043
0.125850477700933
0.0950683966373319
0.116978082401774
0.102463309597066
0.114559704300128
0.1037114035965
0.109596877516928
0.106448169519912
0.111267503727394
0.109119432136698
0.108390453902281
0.102432722052897
0.109274834241586
0.102331499782261
0.106770249615905
0.102320204207477
0.107359720326537
0.102185935125264
0.10795643190946
0.100888632157853
0.103896031605361
0.10187496527884
0.106823267272126
0.100954426850066
0.105137455213584
0.101927407053856
0.106209749919503
0.100921791700483
0.106568434285666
0.100670656562173
0.104385571567667
0.0993066504809071
0.104641303132625
0.101921670354277
0.104586575955169
0.0998151788019777
0.105064449043005
0.102005987818766
0.103540590381488
0.100595366715493
0.104356833096271
0.103144064436653
0.107937226902108
0.101035682528192
0.104517546052232
0.101853149386522
0.103316006710068
0.0997734177834505
0.103772434794255
0.100724893009454
0.104540757994404
0.0996459276304934
0.105981518570835
0.100910337912632
0.102943808531196
0.102658578132485
0.108061469980475
0.102628125538602
0.106628132441911
0.0999099970457526
0.106117039145424
0.101810782260345
0.106788047666087
0.104880738561426
0.107620748981394
0.104506379803163
0.10518586722088
0.103321843377941
0.105609883678887
0.103517118731888
0.106314250630649
0.102020072267428
0.106663668281431
0.102309813633534
0.106083409204368
0.105314389443421
0.105304458106289
0.10283029435635
0.1052360871094
0.101830799886083
0.106306497126076
0.10366820996435
0.106891700551988
0.103680725819294
0.105061499432756
0.103554883191411
0.104055191074662
0.101393395709763
0.106214949130897
0.103218722997898
0.107171426993092
0.103235302632794
0.105384660248969
0.104335120225563
0.106165553628901
0.105463048174297
0.107815707889873
0.103757964035087
0.107534163885151
0.10402430712096
0.106095485640364
0.10414282266408
0.108086732548231
0.105526469680746
0.107312370912247
0.104014895809466
0.108711436217471
0.10606658711832
0.108512927655548
0.104553894139812
0.10853235624506
0.103895262566218
0.108644944790737
0.10753728374
0.109802959955194
0.106355543730256
0.1112619239855
0.107981391950074
0.109518105089251
0.107021183077884
0.111549325715347
0.108207729167277
0.109208605221491
0.107481601988952
0.111824039431369
0.106881649440311
0.109527624244632
0.109068661465423
0.110102261631369
0.105809997685764
0.11116562647652
0.108800580511973
0.111932127521934
0.108913169948033
0.110486022207691
0.109405685360501
0.113184406180404
0.107619115658353
0.11208947208712
0.107438271990307
0.110265946409954
0.108784581009351
0.112254816344637
0.108017558424281
0.110785501941899
0.10795790521719
0.110031272716446
0.107898533923177
0.112202899987873
0.108447537354907
0.111410295614601
0.110205308192636
0.112225028869487
0.11232117621206
0.114497200119289
0.110034780772644
0.113963212223101
0.111407142830971
0.113919343420304
0.111388467149188
0.112496812608823
0.11199613652373
0.113812078574429
0.111302946933347
0.116504898696615
0.113430172939701
0.117713245137627
0.113298568706831
0.11663128772124
0.113673934882288
0.114447089955711
0.113168373821146
0.11500442663752
0.114573294703652
0.11682738961453
0.113471590919788
0.11553758349116
0.11473435191529
0.11671870099435
0.114167403439374
0.117336473218589
0.112521242757775
0.115241588228878
0.112739171172322
0.115422629369091
0.111776199890298
0.113028706216658
0.11228627976354
0.112202209538798
0.112387216047169
0.114149973834143
0.111784161381299
0.115100346812812
0.110106227355409
0.114781522963708
0.110809396162455
0.115698403233655
0.111355760436462
0.115031423873318
0.111945991338048
0.11130184974506
0.107840178366643
0.10914357340069
0.107380305660422
0.110884087196991
0.110335995726285
0.111869362930379
0.107834759925443
0.110674713560628
0.10874512341717
0.10932731205061
0.107518916078137
0.110573585301689
0.108387340663724
0.112366493731575
0.109901158260872
0.110691070770042
0.107256215995814
0.111993127696306
0.108969894201709
0.111871927188532
0.109483560187738
0.109962862244604
0.106767111789363
0.109129057425575
0.105736546716948
0.107838257251443
0.106569365301141
0.108753271447982
0.104407210049389
0.10737904991528
0.106831599565083
0.108263343679534
0.106058910119702
0.108886277656851
0.105111696326808
0.10641971064871
0.104780170764379
0.109840160547607
0.107223955054179
0.107659816879446
0.103416631290366
0.110006238135766
0.10542088784448
0.105425300846175
0.106611882064691
0.108101728497129
0.103565852483888
0.106974979792699
0.103735808009952
0.106450131753799
0.106003740742418
0.108473754843575
0.103243653431827
0.106838619521065
0.103809802475802
0.105955649758509
0.103205338104456
0.106384210859047
0.103320165568229
0.105292844518653
0.103176404279408
0.105757379254533
0.102639349630471
0.10471569849473
0.102332175458754
0.105059330281429
0.104318426852804
0.105455350267057
0.106398035830849
0.107411979706383
0.102748067090492
0.105475948706563
0.104268600659248
0.103506122196463
0.10094446714382
0.106130788181141
0.100727594372386
0.103571657816416
0.1011401786832
0.103725277125596
0.10001195483166
0.101722622317866
0.0996585609923992
0.102708148750061
0.100244057274701
0.104755533263626
0.102254058932332
0.102214528998849
0.101266166518779
0.102609584183558
0.0981804302367636
0.102777128011592
0.0968385540511978
0.101700585413304
0.100866361724793
0.100731713692536
0.0993893090473298
0.0994611162745064
0.0977632606221294
0.0997154182458202
0.0973957958966873
0.100584814270368
0.0968154702596788
0.0995542917532835
0.0963335752260217
0.097578598815404
0.0950441986780711
0.0973578299160838
0.0932111914164931
0.099558304181823
0.0959528384895698
0.0948937235224838
0.0916534649140839
0.0957548900438263
0.0928584139715646
0.0932665978866924
0.0927563838238486
0.0954424266846115
0.0930247081973087
0.094296598228829
0.0983328353904095
0.0949593874502484
0.089559283018053
0.0917032865955951
0.0879612763908843
0.0891477380954368
0.0906390480743132
0.0887127489188591
0.087725877381204
0.0893924183927524
0.0894703324757897
0.0882898680140656
0.0869745438318972
0.0865010499698362
0.085397472374251
0.0887668291410433
0.0857435445509009
0.0864554152171646
0.0870210561614258
0.0897789752253435
0.0871482969949544
0.0864151720967195
0.083426811087016
0.0832197701119849
0.0869953195682122
0.0826090306205884
0.0943914118654866
0.0944259255932428
0.0859999235443465
0.084918666186028
0.0863226403316916
0.0873071495704368
0.0816404726259814
0.0847311684260321
0.0810770931328226
0.0834308915503164
0.0809709272728543
0.0854353213416155
0.0799438626792092
0.0832115480328486
0.0807450060459519
0.0838521895549568
0.0826949669344657
0.083574445249693
0.0814705079958164
0.0845139825774997
0.0788019653083578
0.0818569303581158
0.0801733303730039
0.0805319540276845
0.0811823133410491
0.0829383914156659
0.0820281114523488
0.0908895758527589
0.0832324793969099
0.0852403457095933
0.0783483166829798
0.0831247769154779
0.0766095268219121
0.0836483187540605
0.0778100477931169
0.0796545201832366
0.0771997288427335
0.0815027390770119
0.0758556002247062
0.0791772343728428
0.0796607931382677
0.0788743674362691
0.0753788719234786
0.0801799548468165
0.0753275973773956
0.0805049266627861
0.0742764495897547
0.0802641593488278
0.0737137949300315
0.0810353286836909
0.0735148252971879
0.0853055713558844
0.069744216364542
0.0854140045370129
0.0929165596947069
0.0818920895049546
0.0772767018297394
0.075872962436647
0.0739885911974849
0.0757514328691976
0.0749606440486733
0.0746113347264609
0.0739740041140296
0.0765371259010424
0.0733026773213124
0.0767722161650901
0.0781584028346408
0.0782288907375085
0.0738662745127616
0.0758647003091186
0.0734688935561273
0.0764192589906305
0.0771358796697507
0.073677870904227
0.0777990994476328
0.0922158658409289
0.0782496640022598
0.0795389581370399
0.0747693613921905
0.0740548703581556
0.100750936093297
0.0796251856833082
0.0804250041223946
0.0730669159758079
0.0771931677221042
0.0723686459034041
0.0775762220327858
0.0696109589400437
0.0803326338757789
0.078346087090852
0.0750659125299767
0.0797471124994824
0.073830858881657
0.0750090799431985
0.07586089620236
0.0752203531159347
0.0730294670144532
0.0738853291668897
0.0722657226065271
0.0754314324559024
0.0728924460048729
0.0717479752336519
0.0746623135261426
0.0715723067009318
0.0786629578490515
0.0803103217080805
0.0766229009846482
0.0731714840929725
0.0761959226700181
0.0684040479047764
0.0825015191482424
0.0910842043273139
0.0750000656938186
0.0777779196350371
0.0707499629836328
0.0772252750471393
0.0764440994180659
0.0766932322717388
0.0713735343223963
0.0768664127933803
0.0715135811609261
0.0762410046516994
0.0730110697267838
0.0769275311324225
0.0697975450442431
0.0765712894292377
0.0708896426918275
0.0772097713971114
0.0710085317223902
0.0757564417048303
0.0752762236489419
0.075617541209912
0.0899978736094861
0.092268310352024
0.0886953379138799
0.0848561191763448
0.0821074040562142
0.0747886893254729
0.0764466111295272
0.074241344752553
0.0755794156883814
0.076924546123045
0.0715913186088583
0.0756273097000095
0.0763384132617772
0.0754956351932496
0.0731281020188417
0.0755814159949803
0.0719420946881361
0.0737397743129778
0.0723844558557023
0.0774839268861784
0.0696316360583413
0.0752798653459428
0.0690750822932246
0.0861814569879742
0.0767543334652117
0.0853368422270805
0.0619729903047865
0.125361860852816
0.0897232808811382
0.0874497455154038
0.0743927921269976
0.0768859237163941
0.0720871899910191
0.0764731993870818
0.0735365191846056
0.0817115627597302
0.0743291443442471
0.0786272885225828
0.074375580226869
0.0813932932187827
0.0772609520090762
0.0729086588287463
0.0907368323772625
0.110110897937226
0.0815128426290744
0.0883968895407423
0.0698688437911471
0.0933684451617316
0.099002186580761
0.0840693873050522
0.0859715389000842
0.0812015491852879
0.0807354442274404
0.0771784740665593
0.0772828187823804
0.0783415106081454
0.0857138463495268
0.0829455288119738
0.0788690419746616
0.0797782623011445
0.0767604542094972
0.0865860963287107
0.0785959779395624
0.0939655186912592
0.0905824976679148
0.0821482112464366
0.0864907075001076
0.0835892720575715
0.0821117535513072
0.0822100659189291
0.0832756767341057
0.0818797189290045
0.0936344568769965
0.0944194992317628
0.0854657841285133
0.103073365022543
0.0910544066170135
0.0824453299479533
0.0892385024420838
0.0904987675957362
0.101426917098478
0.0734994270426308
0.109811417033708
0.104943754555239
0.109911589023623
0.10588333338329
0.0850829676291531
0.0930720539902923
0.0813652129107659
0.0882543320920169
0.0795778205535154
0.113568425924567
0.0823943605296188
0.100161232409084
0.0750433918953404
0.110296043549294
0.0942491462354623
0.100824396894016
0.0883534827286829
0.093397138300901
0.0851334797311906
0.115956075935123
0.0850274744356223
0.0926379914172338
0.120057569436511
0.123760284737915
0.123007573483968
0.0966703709924371
0.0929056092364383
0.135555222767967
0.09485805570038
0.109290664249124
0.0915561412191756
0.10590989072532
0.0842435471610242
0.107994735561353
0.129275531166201
0.10277343006755
0.102103948397947
0.103815370950087
0.0923229821816789
0.134653705524235
0.106389568550517
0.109718330676688
0.101112125200517
0.114025053558728
0.0928157699776201
0.177524009513368
0.107982059261367
0.141557453359843
0.124962293756095
0.133569210371948
0.122715465256565
0.129229256278686
0.11342280837243
0.137257617345123
0.134567751187943
0.12478899817576
0.104249774015932
0.151401616442486
0.143511317682221
0.124704511239784
0.132018188823729
0.121306639848916
0.120807838524408
0.174344484687852
0.187827652145743
0.168878338035739
0.132448860401969
0.141683620169117
0.16482133227846
0.144536213318067
0.137846099160367
0.138139264953582
0.137606486912902
0.144647577041352
0.14076200895598
0.163643184874608
0.143663864008601
0.1563470030301
0.14253121015411
0.160991711603458
0.167534540017942
0.234219066497725
0.192831989443364
0.17062364946914
0.209040312667977
0.185753421089983
0.179808985726161
0.167539789838536
0.169734582746019
0.18457943746186
0.177971449974139
0.182335127402726
0.171894408782405
0.220953652311458
0.190506047949222
0.215782839283527
0.209725876846703
0.20201855142688
0.197281629821382
0.208069772218888
0.416501775100675
0.231968644758073
0.249419198875556
0.215174181438385
0.265577344116372
0.299536111703312
0.253801917824975
0.247758522771987
0.25302368068049
0.249839232967104
0.27319249495305
0.28263337350689
0.286002390590719
0.301164908410006
0.29724109926118
0.292461293119973
0.331905963219709
0.402669086755233
0.402200645610458
0.35593160568299
0.343058887030602
0.36407885866099
0.38212823186492
0.362972287634319
0.385829666163762
0.367726620778506
0.41293125855486
0.457435508391318
0.416631222124974
0.424003421016896
0.430859634793472
0.471959440507652
0.432076854439157
0.532072965442426
0.478503949190095
0.491336162100423
0.465280160638464
0.497063121372843
0.495121673318336
0.504072550808419
0.548812789473339
0.536160030692595
0.529524403940985
0.535408776131807
0.542034296332353
0.54500440804909
0.55186622310998
0.564862305624705
0.560580735629279
0.626352400042092
0.571312831623744
0.835334165655011
0.60324982494677
0.598494111198603
0.57084966593811
0.59133992130184
0.622119554747501
0.618783109732832
0.651056565796039
0.632224119585194
0.593428709311265
0.603058099863131
0.589576140346975
0.595047743574258
0.586314520598272
0.614997500899338
0.587063558608858
0.637312175845547
0.585902678843391
0.654373115983311
0.678523434509539
0.623712626481219
0.596981024215922
0.602740186537246
0.587845130311859
0.594310330758684
0.573485241938773
0.602856431851515
0.602559764704632
0.570148141646336
0.586997033078378
0.559112013130708
0.611862929175444
0.607696859121564
0.556591213856695
0.555259935330278
0.542730158519262
0.55349324778543
0.516894827339293
0.56323467110501
0.580846406429076
0.536462595930916
0.528050293184673
0.508136418044688
0.512993322141819
0.51779469401204
0.495351238558056
0.504486886527423
0.498063422278693
0.493772993919933
0.49679916966394
0.490412424583401
0.482360011670704
0.481184753757473
0.491100634560667
0.478645122739305
0.478562526595681
0.473967667840777
0.463844449372696
0.470176320128393
0.463799877279148
0.470929065482484
0.472148939827969
0.468240234901685
0.471143730004424
0.469683761535293
0.467972538856986
0.458375331385953
0.460581170569796
0.458467091005493
0.450033826617112
0.451391546831455
0.451702397432567
0.450397175976025
0.442489822251432
0.448050671753728
0.444876050389061
0.444412742606679
0.449051199218321
0.442497285045565
0.437122017243081
0.444247254457811
0.425094764031593
0.520643490407729
0.463726992833285
0.440412364384786
0.423498504395674
0.427004246049361
0.420455645509912
0.418388071757414
0.471593740693224
0.447514964001421
0.423015590821281
0.414812484363298
0.402321646667729
0.424027200408782
0.410334058420726
0.393956560698988
0.403287737778413
0.387840517327678
0.459042191978073
0.472920909198746
0.484448795047624
0.487618742557552
0.414866977557883
0.377414736198397
0.404385673693082
0.424144025432876
0.376340133748855
0.379657784815203
0.363855397498871
0.420946805069201
0.388172925328445
0.370117405502452
0.369702339679632
0.356955395886843
0.386272596958153
0.40350653534119
0.366753287298643
0.391197966965925
0.406907569084678
0.37219494780714
0.429726874167269
0.443476209842868
0.378210355045812
0.340974578665539
0.345722778810921
0.337530538516638
0.35017532962361
0.401805696479585
0.339560710488833
0.361548760091669
0.319117574346804
0.320685654475358
0.323590739095846
0.353187311636557
0.335418478799895
0.333834840170715
0.357391618643654
0.304936875289267
0.326177091180123
0.323946184403755
0.379627346958207
0.370733253144225
0.325036873352271
0.296816501036272
0.345569976692502
0.347140273372925
0.313526744322198
0.327419013922295
0.291421177433168
0.302689361012737
0.324220529046914
0.287222082735328
0.316166073829906
0.302637974868987
0.313755289818465
0.36148031041125
0.367255610934159
0.354740784483043
0.297594588038226
0.279794733144766
0.284585485775221
0.287714697470074
0.291165803005239
0.272229897096433
0.322288825888251
0.294533982903624
0.286090096759315
0.349103981887338
0.304147311477856
0.290017157127171
0.296523776040168
0.287836309329181
0.303414373158767
0.341193042715002
0.35935904216862
0.323281901374396
0.329695830270504
0.344396991935223
0.320864915091886
0.331388861310554
0.322548663629877
0.333474210020954
0.332847642599199
0.355496996077759
0.352512283493763
0.367484241405378
0.368066025309649
0.368692624625784
0.404276240823194
0.419734039649672
0.388717795738244
0.435810162843154
0.433542381892988
0.48469042514608
0.439550558976919
0.442130352716914
0.443998500808169
0.448565434045271
0.460027045699454
0.458479608993232
0.479610435406958
0.518877691783714
0.480104968705044
0.489814413019867
0.48546623650053
0.501616368018984
0.494898191064366
0.543956556502517
0.527090075231744
0.602915415264196
0.587018965162138
0.552879239976373
0.535133027276214
0.523300570851157
0.53498768799958
0.54246400754399
0.534102918171725
0.530318068786086
0.539959569965747
0.577521311364945
0.547210885392946
0.545795611731306
0.546111156786011
0.548881693601054
0.551203546844068
0.563634586414587
0.556746897996503
0.569806216268863
0.568647061353443
0.575796647336978
0.565951255746897
0.677822941579094
0.607313668091175
0.594823905909568
0.584614684781083
0.599514220790323
0.607422076918456
0.605885623222333
0.626506111162806
0.629330163222454
0.614366641005786
0.629711967714542
0.622038428757276
0.633713360149009
0.634122846658647
0.671412061219902
0.626136024401079
0.658844798786412
0.627498802331567
0.682367779342265
0.723604659588687
0.682832866924122
0.678472331562429
0.664952582612751
0.666711064415695
0.661473998075242
0.65989990782216
0.670825732607207
0.669337431336946
0.67206684546075
0.674140833962657
0.669826237466626
0.667172701092831
0.661342580311971
0.666236317618997
0.698897026860249
0.67327406849699
0.668395939279831
0.6587921159472
0.666104443974189
0.662018550534096
0.697220877488166
0.683513289698892
0.664623566663283
0.673034813789094
0.677499127198476
0.694725193031073
0.681187143030569
0.655010001875402
0.661286005767104
0.660811622098746
0.670418502866834
0.664569461548775
0.670556061758378
0.700816151622747
0.681647744073072
0.677941666564
0.674878702677111
0.67050157839627
0.684377890444958
0.679908522178614
0.693600901318558
0.695063357215637
0.707098172210482
0.706793747087879
0.702169281616113
0.703517562663723
0.714127534928547
0.721091661834344
0.728683954841518
0.715926862154172
0.709085671679915
0.694174811449553
0.706280335450198
0.708798816930106
0.697081708479561
0.692046027824004
0.689999925353538
0.670538104559248
0.681435989451983
0.710544864030547
0.673417470853332
0.674911795668868
0.669847800540334
0.643267143176319
0.65124549667767
0.641176609048304
0.639766939954071
0.633383526912367
0.64454053078356
0.628365484128027
0.627471555134741
0.623814998432389
0.61727064206283
0.616994558164326
0.624572888576749
0.61420754511794
0.612729089258202
0.615077635570825
0.614882351658592
0.614901466004071
0.618799195714794
0.617991182060178
0.612522082953142
0.625639261475906
0.631480005526468
0.627086005263019
0.620053222680601
0.610574501511919
0.613726843068082
0.60789244984578
0.607753786847936
0.600394744660851
0.609648523523137
0.60518269072017
0.609554727805481
0.598471441345557
0.608478448783704
0.601426339618076
0.605056581791735
0.602087577901788
0.614669720947771
0.601883814601521
0.60263110101637
0.603023574257759
0.601137356913163
0.599606516792222
0.608660367314125
0.597885346268323
0.597631968323788
0.596048376334675
0.593177518596058
0.602461218946071
0.596358060794884
0.595771033061797
0.596280674397088
0.586843459600311
0.589845815081639
0.593997187413798
0.589894942407158
0.586895320237977
0.592769656910849
0.589800398632403
0.589026742956991
0.584331271557956
0.58769076540611
0.573506918818009
0.569352183803574
0.563870741294888
0.564771779529042
0.562716452847072
0.554660335390521
0.5513280558738
0.548716613280401
0.543964884760982
0.540192216631557
0.532501609697045
0.532099809111931
0.528545269007878
0.522354520298478
0.52239270959057
0.521392448416729
0.516307460348172
0.518068257298556
0.513291310850123
0.512619690250588
0.51021611925495
0.51053611171645
0.509240187674285
0.51242799091353
0.50567906935682
0.514968243539897
0.512559777840667
0.516807928093822
0.514760407403677
0.516112487814936
0.519172183597765
0.520584221222739
0.525471328622408
0.526652847707317
0.52703555397719
0.531357523396697
0.529529036390657
0.531532682743969
0.534728890740952
0.537192384676889
0.542374007440804
0.543811998233151
0.543282366256253
0.546978910262118
0.545967313766
0.545393436780152
0.542968994185822
0.546914487686745
0.542432748134359
0.543375138889809
0.541307694169515
0.540816146070461
0.540946953131545
0.54848982722008
0.538252664500847
0.540493276400333
0.536422608689462
0.538000786657852
0.534840416428397
0.533467056946834
0.529802887788696
0.532966092165913
0.52709344925741
0.527857147536495
0.527605460059635
0.525484980937858
0.521832214935693
0.520258527647791
0.515464666105572
0.517720488318582
0.51305901796689
0.516522694129899
0.512251353652888
0.510445172597958
0.510068514806101
0.505431550898252
0.504260535558676
0.502580600420597
0.500564156990306
0.498814738183623
0.498986970765283
0.498228496652443
0.497658435841867
0.497329035152033
0.495106690860543
0.493451891997198
0.490923017004204
0.486890205570128
0.48464587305411
0.483215646539814
0.475656618987744
0.478304570775813
0.470295405916341
0.471250675624209
0.465114434140741
0.463988994666303
0.460257256473502
0.457698947858575
0.453826013060526
0.449612723589288
0.450157278895102
0.448322435781737
0.446152554703179
0.444795353288784
0.445274345230734
0.444622562556934
0.4440544887339
0.44252665867356
0.446436544059784
0.443299235456384
0.439063904029907
0.436753333492523
0.432486956700097
0.428976038334044
0.426755694271674
0.421785641184483
0.415994824748143
0.411193173585672
0.406048994688816
0.402202577309192
0.395991820158632
0.389830997590648
0.389287094278777
0.390477491438844
0.38636311243974
0.387293630273734
0.391781869534292
0.39687214525098
0.400752253509346
0.406457087552513
0.415055684772972
0.427138448653711
0.440953611135848
0.454692607607156
0.471713674220188
0.488707886616063
0.509879072345867
0.52195744954404
0.541785979546243
0.563191131959629
0.581078888012328
0.599210490338991
0.618594869218946
0.643311184515321
0.664707415509553
0.682837014547866
0.701958819467493
0.721087716541271
0.735406147139319
0.755058641584954
0.777512889182384
0.79336273834671
0.813576607176336
0.82711074420557
0.843803768462164
0.865548064785035
0.868096202163303
0.881953598375344
0.896087986501951
0.902092241260938
0.907397846055648
0.910764496955779
0.925176711635038
0.922082399019169
0.91878351496472
0.926778837000708
0.923157705970187
0.920516028693284
0.929606991358551
0.917852644889868
0.922298036586733
0.921717626945042
0.925393691528483
0.923453104080314
0.924561734579052
0.93052875258236
0.931063976733705
0.931180784627398
0.928211634799582
0.934524458180302
0.95489073413833
0.944908133816462
0.952897871745049
0.966369541479433
0.970308916860019
0.976863136487835
0.992526083794604
1.00608282571976
1.01758960592137
1.02631412262918
1.04911167660966
1.06345571359331
1.07365557017015
1.09540349199542
1.09820305997466
1.10845162547072
1.11863491735362
1.13588610214478
1.15208939254725
1.13698146240398
1.14994820809551
1.1437189764632
1.14090354380988
1.14018158807713
1.15062752432173
1.13211841757757
1.13097414633603
1.13668378827392
1.13356094378893
1.13492023273304
1.13935921790669
1.13576063712251
1.15695232526798
1.16250159047207
1.17591509684202
1.19250562956843
1.20933373635723
1.22115263824804
1.22854300100457
1.26592822628479
1.29486011865345
1.28009398073196
1.29165533777496
1.30457159899203
1.34361118542917
1.33764740564234
1.37962429628527
1.40291134772292
1.41810303617841
1.42259029151254
1.44161006484846
1.45366324374627
1.49429265764599
1.509067153169
1.53148688005521
1.58017971049918
1.6491253111353
1.61197778469548
1.65913700333998
1.68639923713221
1.68955293502758
1.71784054901839
1.82761776377514
1.7894809138924
1.76026685385311
1.86519537194913
1.83188148389857
1.84524119316454
1.88688726196299
1.91831020378995
1.98069313885007
1.90866320171579
1.91021501217697
1.89283367819971
1.87220517014371
1.78139702948514
1.88825893089619
1.83962478205848
1.83342048134083
1.887910616157
1.94122669221812
1.87356861296283
1.94328479345148
1.88631074956242
1.92911624721888
1.85957672306365
1.94212994425073
1.96047055388002
1.85449154036515
1.9413246362178
2.16237035773513
2.01019596873465
2.08679768909325
2.03350828230263
1.95943239471743
2.04937529074666
2.1646418428288
2.30613530501807
2.30773211532798
2.10685480641652
2.23307577395369
2.34378403013643
2.25053626398726
2.30973901525761
2.11555987232701
2.16263689980017
2.24517945695249
2.2076882263491
2.87187603856892
2.30786477152554
2.2612015439234
2.2189071734852
2.21504700469174
2.16551296619727
2.38352161774208
2.18346800377633
2.19377652961031
2.30610791138433
2.40891269490368
2.66274346959183
3.62650583878442
2.37215695880172
2.21927807970403
2.36732357684333
2.22315877013027
2.13544451543377
2.31611155021817
2.27556768691054
2.34221533509059
2.14176702075284
2.07424773121795
2.03094989844355
1.99596248198861
1.89126443640999
1.82034640737977
1.81029403644045
1.80185402522317
1.72808353198447
1.75464019310176
1.63979827299247
1.53752267779989
1.54670803101663
1.59000885258807
1.51583902713314
1.51771454664732
1.50250264007609
1.48210772402633
1.46295993895893
1.43816676015847
1.44973398697341
1.43217878497166
1.38735455710993
1.39056960060097
1.39335129466997
1.32818361443669
1.33122785227717
1.31164539802015
1.27663544296581
1.24376190082434
1.17849808450816
1.19085579486632
1.16288885948391
1.10867326329732
1.09166349869937
1.05088927068554
1.00115352086513
0.975841244570972
0.92504525176236
0.88612953429431
0.841111886241929
0.805646773766227
0.772850939652731
0.741937202599118
0.708294430580826
0.68617686365905
0.657563876251891
0.631800994913439
0.608779561542731
0.594516080565269
0.572109242457784
0.548154478113045
0.541764822020294
0.531054102886086
0.516657296534019
0.508593617440977
0.503335822538333
0.492588533724717
0.486571935063737
0.481929172208954
0.481505187692331
0.479846289140063
0.477112361959087
0.478640436947254
0.473850114749572
0.474365005406475
0.480901282802561
0.484712110149398
0.482441635168594
0.485747342676716
0.487181928665784
0.494841131190057
0.495507022948134
0.491485902237307
0.492882677913167
0.491492675129233
0.484141350816891
0.489159182369718
0.486466627829627
0.479437958404091
0.480939399319842
0.480650496714228
0.477450762996112
0.474235929299885
0.471290132376307
0.467866183495067
0.468690209016922
0.471724691922343
0.464069499749803
0.466022089600513
0.476944105266863
0.480653124200285
0.481835713072756
0.490162880794042
0.486207462117725
0.488092227834305
0.490378947329338
0.494847369800103
0.501341132632401
0.501416922701322
0.499700851304681
0.505279411282267
0.505851378543891
0.504059356526728
0.505884623231603
0.507806752184874
0.507180769022987
0.508775527320138
0.505094489443446
0.508316422585978
0.506702167860266
0.508833477321566
0.512864532728315
0.50795680418316
0.519705429200203
0.529197882339459
0.525961041206081
0.535752765595374
0.545165639548898
0.549176790033937
0.561238328977535
0.572898973606471
0.582110054198693
0.612025232557926
0.62139499803155
0.629554186328751
0.644520614906007
0.657685895151201
0.66858601737162
0.661560368763724
0.664516669771286
0.672778741496525
0.661461725748182
0.653805258661838
0.637989455663675
0.637979560997933
0.635796463488166
0.616501918590649
0.608957059968223
0.60474749494452
0.601070469393128
0.599719010724949
0.594547878903257
0.586231570888275
0.592080403576899
0.597243925184109
0.59936544953535
0.605803142495047
0.605194913633919
0.601137502320938
0.597109682979214
0.597642357820001
0.588169204382664
0.582911690334816
0.589773219368438
0.584832166706195
0.575984064039298
0.57259223220713
0.561912948315594
0.560337251570102
0.551551826976754
0.551995291584365
0.557809050263631
0.557746279921227
0.551310662522195
0.557606328703939
0.553513500882775
0.54485667531758
0.537350602076157
0.536557102315368
0.537437583588165
0.539672716596197
0.532989648651023
0.536990525757899
0.539436809177327
0.511101620650409
0.514428882204868
0.525626338626079
0.515046215703483
0.528369946776665
0.526899548820802
0.526524987401824
0.523762400684679
0.514152573081138
0.520264676843707
0.509828726319375
0.509665334278623
0.507456468627209
0.511682649608298
0.518902233137541
0.510505612410013
0.50367227833382
0.495843065445564
0.498979776158087
0.494696434809753
0.513981452658852
0.501354844364366
0.49855080585276
0.502563774906824
0.492730368758911
0.499827100247025
0.504999081555167
0.492397632784017
0.504185341505823
0.520500141290954
0.507669049233303
0.505404765470223
0.525737649600157
0.51808045282331
0.514607688080213
0.515041282554363
0.516419259844109
0.531047269285152
0.538052727363725
0.535851607898659
0.529437007268851
0.525150380489561
0.529128311339511
0.546603034022665
0.552661310692963
0.552516093924977
0.543719593706454
0.545815381594902
0.55278055658744
0.575292170259284
0.585311169758761
0.599643416073184
0.600315860351795
0.595074004465367
0.605128468740778
0.615081937071299
0.621375131399337
0.633413455329418
0.684865596056236
0.717319410125822
0.725134660981485
0.748212431093921
0.718126301740895
0.73667577077217
0.765444791170465
0.791237323500182
0.772715140815083
0.794532569474982
0.818553265252223
0.802979267491174
0.840134556129456
0.859539436662314
0.820989466230261
0.850954884275493
0.851984420107495
0.847441042615182
0.85122269065609
0.807166268967491
0.825346902393093
0.846401807962704
0.816739265007581
0.844567317180631
0.864416954829666
0.849307819806136
0.802629621266915
0.823519852498287
0.856613209558318
0.830062472525071
0.828011504965047
0.889745243207541
0.825644661519695
0.792469062798884
0.844950308694819
0.82886011117224
0.819873790505676
0.841779963604073
0.792263441164979
0.827431953416065
0.780092125226285
0.778587567542158
0.766855536783494
0.77355954573282
0.772061900702367
0.778862710198655
0.797812745282172
0.808834066799984
0.765222727967665
0.780009563210198
0.796377750203509
0.776906599294763
0.798273214430418
0.817085854545733
0.780028096121609
0.795762406103137
0.793845688609631
0.760581763179309
0.737671841065502
0.782747422969595
0.811693030254621
0.801625904286546
0.745309685343883
0.819939492245255
0.836000944604428
0.819418952036063
0.899784080067982
0.904984282297234
0.779445950644044
0.815052355999637
0.841684289684198
0.834163926444358
0.852777633389199
0.868247765498046
0.754666239311168
0.814872228593319
0.864689073989066
0.809866134012048
0.86056749170373
0.872598189601964
0.790500731202644
0.792799208402386
0.813562986320713
0.845528075159821
0.832454491647618
0.881773582420901
0.997236224947795
0.985261232244523
0.902004157911123
1.05843677494757
0.964235904166386
0.971698992817866
1.02103881919278
1.09501102370506
0.963703057274792
1.16351957968246
1.02150192952628
1.03567756174771
1.15050848955609
1.01719536242684
1.17347507902651
1.13428687698996
0.911566647405189
1.0812235656678
0.983087993574788
1.09778799915562
1.14758802081883
1.24503786025341
0.872015966675407
0.920245691398832
1.06331170988619
0.925982844323806
0.936738240005297
1.10390299149176
1.02365143612944
1.01778060643219
0.950971547573278
1.08314093663724
0.951137890500603
0.942202392215378
0.739411962043639
1.12560615576579
1.22932751139641
1.03328975258823
0.923798685248063
0.917917836706041
0.932825942708145
1.09915001188522
1.39449750140986
1.61156046417102
1.35806474357522
1.16419112531979
0.849522279108891
1.19977482220889
0.751878637164661
0.976952314603229
1.09283078016446
0.894230365641753
0.750597948340733
5
1.44577847784796
0.986939677352626
1.04909564961799
1.00672205875833
0.834056914924988
0.978883095997973
1.2655054469952
5
5
1.81924145975129
0.907138444348849
0.801248417369623
1.04014596718535
1.23779559499808
0.749747102095519
5
5
1.29608766197445
