3596
4000.36533379555
650.420452594757
1
2
2
0.0864392392014215
0.0777548640279069
0.0851558837799342
0.0811934525942868
0.0819158356492551
0.0815713845390475
0.0891128306458839
0.0757132046017225
0.088845021159874
0.0804143322321774
0.0850522109332744
0.0775594948611002
0.0767353111046484
0.0707324991140687
0.0883733237487278
0.0689417286398365
0.0798821107611844
0.0743911815034683
0.0838251482717473
0.0731074313178252
0.0831456480904119
0.0681938159616773
0.0807122117473077
0.079531838673502
0.0797275021403175
0.0729819095290186
0.0847619905906223
0.0736013134400347
0.0796940836913444
0.0769683688744175
0.0868436083774363
0.0729050422226469
0.0768957924280107
0.0729025000724407
0.0879562303638847
0.0767723332774072
0.078655204961923
0.0777527141621308
0.0823444427602281
0.0811434592227863
0.0875989139966319
0.0760260698562578
0.0980768268130758
0.0828525347911658
0.0810402843875109
0.0763706900920718
0.0812871365095061
0.0750481453612568
0.0828127614865417
0.0766178670542826
0.0852953691100917
0.0713962252833631
0.0980163123683514
0.0861881623225137
0.0859785467963696
0.0929102342621116
0.0903490761485208
0.0726995719224318
0.0823000509683812
0.0725271362252166
0.101814180581188
0.0905033894677826
0.0870513429666592
0.0738658355937052
0.0807889794530939
0.0745519941245116
0.0774995627188916
0.0750730725871194
0.0769120348203011
0.0731485630440911
0.0841684583654303
0.0977471865072368
0.0995833179094412
0.0722240431874212
0.0884246104243788
0.0801960231512354
0.0789498778520543
0.0689909785980136
0.0728711764689238
0.0766261205357843
0.0942988867598371
0.0785948730492757
0.0830890007023386
0.0661732944881085
0.0889564477011532
0.0883104823063171
0.0718864533167146
0.0859195670355779
0.110374029439464
0.0832087546883443
0.0727067971120624
0.0712350736852532
0.0787959377677067
0.0693539057356085
0.0791468724821409
0.0694364836397733
0.0751460268221536
0.0688098594516738
0.0731917762969083
0.0761669703275236
0.0861354403459704
0.0835831009704929
0.117282942198159
0.0789350925417655
0.127746439924942
0.085731237801343
0.0826866907100771
0.108399494457787
0.0955107364738182
0.0784585106597527
0.0809230998256983
0.0729600912573887
0.0798063803760879
0.0806644513005369
0.0716375414611173
0.101479143037634
0.112157957018992
0.0768446891096879
0.0811181220443856
0.0769753706982808
0.0631972716397849
0.0851218187992942
0.11089306342245
0.0803748025898763
0.0897600773450395
0.0683311127881327
0.0761611800350011
0.106106293086901
0.0976180441495256
0.0796014573435339
0.0767705126800685
0.0673973185277931
0.0689771177923723
0.0685958551960328
0.120098778911153
0.0837354990234452
0.0794210188815885
0.059328686500546
0.108784334722164
0.124023390214311
0.0999265508245143
0.0743629606474345
0.0663483960854466
0.0780240229709983
0.12055601908721
0.081811839605334
0.0725322071765277
0.0881951180815922
0.0909916231848456
0.0714730410874475
0.0757561194074065
0.0633117929018303
0.0900256056365982
0.083021340863982
0.054258960403822
0.108085435796704
0.135563913814486
0.103356195321553
0.124225449005231
0.0826159689561263
0.0853682571876021
0.0715159960420714
0.0778633710837454
0.068767497395423
0.0782716933187902
0.0648240950358384
0.0937512804657688
0.0944572518104273
0.0815898455020578
0.0745517298675415
0.118943363459371
0.0796434183103145
0.0771878463968137
0.129222531127793
0.0900010273935582
0.0716081206110026
0.109517150186651
0.0838810046416085
0.0647103998781987
0.0748186396946664
0.108773999648189
0.072655160880656
0.0743803577499082
0.0638698030524625
0.0811288276983956
0.0915530345253966
0.0794658113594933
0.068677739355285
0.0786474476283267
0.0612420045150885
0.0883463383453051
0.126367457574704
0.113061049329495
0.0808317533906334
0.078018643161485
0.0454704076814307
0.114818121511855
0.108021264765993
0.0828559328309211
0.0712394155924208
0.0710858737409766
0.0664815239515261
0.0682143461271222
0.067801548073951
0.0664754439738139
0.0550048251464885
0.115749925200671
0.0765568485598287
0.0794738418471428
0.0656554302828878
0.0792559910341347
0.0626931155672071
0.132856362662646
0.0998423541696273
0.0766648311707596
0.0701075392626692
0.0777530380104325
0.0928939393207721
0.0921707430103296
0.0722645140184605
0.0738202184896853
0.0651009087878748
0.0776224675800849
0.0665577902169807
0.0694799939338499
0.0658338104219152
0.0747302282581635
0.0657089010530679
0.0753454418988536
0.0694799271316894
0.0908488884087877
0.0699926149552315
0.0751658548850669
0.0695503051692559
0.0636751974043985
0.0833117028633331
0.099863251364728
0.0737081621592601
0.0789783504004862
0.068707752089235
0.0759799131847499
0.0711686020540896
0.0730075744919824
0.0718623136915492
0.0727993459622408
0.0609179320844258
0.104647949389375
0.0756365161648909
0.07617903224052
0.0581682158864144
0.107169696952631
0.0812499254621733
0.0833043464362675
0.0658389540903533
0.0817744752597516
0.0552026967950691
0.0801827631442993
0.101830910939397
0.0932613738663255
0.0680998649291363
0.0981057155518427
0.0742667195642554
0.0834364002244914
0.0584987544143685
0.0780878092837244
0.147364728093471
0.0944977815534744
0.0796670226691283
0.143028296543007
0.0962106744220255
0.0947264893268616
0.0637545334078048
0.0676122118393364
0.168154099285557
0.139351496528043
0.0752035098927121
0.0889328797473777
0.0917300553768749
0.0738689243940037
0.0814077848934131
0.0847547600447238
0.0946230720502013
0.105947075909792
0.145364814723266
0.143579431201893
0.0602554309519307
0.123954769420148
0.103728307445245
0.0894102659206255
0.0703076659381998
0.0863515014901653
0.0662235045752149
0.106266249497866
0.0938271944278996
0.107575718617295
0.0792104892997985
0.0906794382288377
0.107967267736519
0.0982853367345015
0.0702125174868614
0.095859800344086
0.0825406845534571
0.0790297890370035
0.0784703105379312
0.0883598480728602
0.0841485609208328
0.0778731510974279
0.0848456406603388
0.153910365846488
0.093139452399437
0.100226976730944
0.113092407633356
0.100978449165501
0.0822000160888151
0.0876273988378598
0.0751783975686092
0.0857798063207105
0.0675263602894858
0.0900423710847763
0.106908276049891
0.0885646495914322
0.0848087817135089
0.0863191133808431
0.0749132694153435
0.0872009405931647
0.0868469417781236
0.0936469393235314
0.0856830221570987
0.0904393226429436
0.0766754607479171
0.114809849972626
0.109774146906291
0.0746907693597253
0.126105426547615
0.128405965007746
0.0899758011977739
0.0899860877835791
0.0802638420473313
0.0962072919870138
0.0873798746419785
0.101790878006231
0.0896463966164335
0.097459113690935
0.113394660272522
0.115046872010331
0.0971158216333073
0.109529919421333
0.15870059104469
0.169932729881988
0.116491866700445
0.110184397592519
0.0718638506717505
0.150489683573749
0.125184100186871
0.156847282327383
0.121545115033522
0.116571103007491
0.113163466225901
0.112959011746605
0.105358038326998
0.113921258374675
0.112643102865354
0.120597529736992
0.114855194089855
0.118830290671814
0.121136627549505
0.111128848931873
0.128115332130788
0.174384658270788
0.128470604143554
0.13334604957922
0.131630661749767
0.120512943091132
0.166071956715668
0.160338400554669
0.179913506911156
0.172367313209228
0.182861798842108
0.190665489945829
0.144706335613434
0.153395301284145
0.13494845220502
0.156421332921
0.151679596720699
0.149316004649889
0.139137783827821
0.151960679068825
0.156453552903791
0.161949694535156
0.154417158283994
0.160646257956837
0.157830706416437
0.196768168597807
0.173104838175818
0.184372789178742
0.151569902754901
0.210279342892304
0.225654014846152
0.250683879160579
0.179504986453871
0.208311221389327
0.186378000693448
0.19572254896526
0.18384794776587
0.203219616339765
0.198218438906696
0.215304981070002
0.248854780898568
0.233794860509243
0.233092167954647
0.233546612197292
0.203860145960466
0.246875075760166
0.223928952097661
0.251282799676874
0.251027293392286
0.243581387545101
0.206241807426033
0.288340672445067
0.248579300731992
0.260351530545761
0.260936234042067
0.267376065114667
0.232569462611141
0.248674978615725
0.251655947256996
0.263870441625518
0.263644889585875
0.278234203855606
0.262546952911082
0.276714767878335
0.265718080705428
0.287083079008662
0.292347814832136
0.297075553277045
0.281835153266334
0.299677148167923
0.293973591491607
0.29953384049081
0.281464664365087
0.355759914729645
0.302618856277773
0.362406534554633
0.319129169257963
0.332705652811783
0.311966201642842
0.336026197887873
0.323923938257834
0.337761783208221
0.341387939791045
0.355790201981454
0.322750322754698
0.358974482552592
0.353367475191615
0.350979225106542
0.355935451288359
0.370380133057564
0.353162817393183
0.380153659798209
0.361984570861795
0.398045142035345
0.366684096252145
0.461268078998553
0.41902869399819
0.460866585133688
0.422109931112142
0.430367633896044
0.414754598318048
0.410208881547372
0.411540416730515
0.44940424076066
0.429965363797718
0.442277946608195
0.426452490175914
0.453973662572075
0.436254903531334
0.47589375877702
0.456026756000595
0.467972499369628
0.460016172643594
0.504379663803682
0.474702315874844
0.470859806112918
0.482992931691087
0.501773084110702
0.501133094187353
0.522746389331572
0.504112785045669
0.52000497460792
0.49788214194882
0.52453147973578
0.495177649184217
0.53542996421833
0.5090616110897
0.549880036486679
0.5293613029805
0.587423928461585
0.554961189031563
0.599667496109031
0.552529801010915
0.590109882218695
0.56920387820773
0.572823472310365
0.567268567528084
0.61195282099742
0.586718796657966
0.605085510138791
0.589159629987191
0.641227957971859
0.581237063276411
0.666214417756655
0.622121104312374
0.63971018955376
0.621082792632165
0.639196113223869
0.645669468915864
0.672162762670365
0.660411630873723
0.673818918395874
0.644571454409384
0.688193290957295
0.658949529761661
0.706893748857864
0.668511588088163
0.764286712771399
0.723245272923135
0.727602201803713
0.676468074119698
0.754802932503912
0.700566010197141
0.749636853481848
0.709450277515794
0.777234349890615
0.697883712843394
0.786443481482234
0.710498841022999
0.765685381025878
0.739220791784601
0.78059074584971
0.733215849669685
0.825182623659622
0.743754151064176
0.802142754788967
0.776671619933601
0.825748228401637
0.776396176366638
0.8253850649195
0.826140581035607
0.855785347434085
0.794891746542043
0.844546947382243
0.831076520004399
0.858054801184705
0.847733642801014
0.877341030900346
0.875621119033728
0.902819449901728
0.817011144349782
0.884447253357266
0.887710462770424
0.948994169723791
0.888115350058706
0.917534175526651
0.875871777371145
0.913205554547541
0.889958405756813
0.955369551911394
0.890458147817292
0.902100034710366
0.84411816534265
1.00717605344497
0.931831652815004
1.06945945276591
0.935637833442666
1.0238770068522
0.995640379192284
0.994154497596006
0.976250987809181
1.01070203212695
0.976044675615515
1.02965580008517
0.946200550489273
1.05650693203793
0.963748351203993
1.10177818151951
0.977199932010804
1.03011123523041
1.02348303224233
1.0677865715217
0.971710837736138
1.09571293284993
1.00644921407102
1.09916863520285
1.01082738136356
1.16138912390481
1.06390548529999
1.17748202293108
1.0319751500878
1.14412575229248
1.01731671590938
1.11442171917788
1.05770807785569
1.09829977588434
1.04382017347256
1.10668585450341
1.06404903985656
1.16171359822822
1.06980992418735
1.168715915895
1.06899174851421
1.22823465525394
1.17538207425767
1.28900035935374
1.15099880447728
1.28961188328494
1.10928016132908
1.27209677452422
1.19077614551047
1.18900152248832
1.1677429414447
1.2514175721006
1.08403725910894
1.27193196260798
1.18780074149559
1.23165873499631
1.20431012983191
1.27852403095922
1.15304344602471
1.2615929947777
1.1749145371526
1.30359997753996
1.15851799506048
1.29123688373569
1.1528195666337
1.30500191994851
1.11918680860437
1.34627302491441
1.20940232631261
1.39542524105513
1.22655741487508
1.32085716606835
1.17125576744043
1.24707000796868
1.20159249342381
1.35033477900346
1.27725761339129
1.51451019068501
1.19952967102681
1.35310689544014
1.27332478050507
1.28337688181823
1.2207073519939
1.53307374976407
1.32577933710059
1.57122627001229
1.33114932566609
1.53038150048917
1.31708521231387
1.39795467758262
1.23622503729903
1.46194452646631
1.24849228164773
1.46308417144866
1.34367499125827
1.36168224364615
1.35569589377114
1.3970003083198
1.2951177492422
1.41035143568538
1.22015971681447
1.37689061234792
1.32270467639546
1.52022910726628
1.36915741404444
1.47708507986568
1.28556392716554
1.46299750204785
1.34556524747268
1.51956070683752
1.32639580964933
1.60684622333855
1.27595365177831
1.45590109819136
1.32244119743586
1.43624110093717
1.34457057153562
1.53707486224339
1.33095286205474
1.47901023977064
1.40457163515663
1.6167050568366
1.3829422920776
1.50150987591674
1.42261523008318
1.52411537380532
1.48954395081861
1.46289420432677
1.40256117081253
1.52259387200665
1.46036327658826
1.50274498555384
1.40965574155279
1.72403946281468
1.33784317251074
1.43997259520628
1.3072248044847
1.46217405924076
1.35883415592586
1.53014034885826
1.27693510739827
1.58677440931741
1.31817879894339
1.73737022679918
1.44199965491391
1.53556474411979
1.32584451401899
1.53589016044076
1.3245939196193
1.5869860608147
1.5261071393699
1.55175786677201
1.32026574950019
1.67413987104547
1.36351206612908
1.5555630081809
1.38253557209537
1.5350929985864
1.39423982593987
1.675424993775
1.40392118622542
1.63171022861799
1.39122132344607
1.55701357275211
1.37620719846105
1.5585959750058
1.315885075175
1.58293945890988
1.34966129512894
1.40875333802477
1.43890730568389
1.72024467469029
1.26933331943984
1.68454630611235
1.48841554840152
1.45064887940816
1.33492953072124
1.47286795346409
1.48961664956471
1.40345432421014
1.47990360613561
1.60025400311862
1.5102555034827
1.46287888104624
1.41552298835333
1.52109944301868
1.36822751909534
1.47928166380563
1.42779709892732
1.50900270302075
1.46175788291091
1.52244729455423
1.36650052658812
1.49602490221452
1.38582611742981
1.60603101744673
1.41580161566964
1.49940916907625
1.38889227840858
1.65479373867545
1.28649862681069
1.49761335666352
1.41346256347432
1.47707520185585
1.35784635790083
1.5450627907596
1.29984778157491
1.57527313185462
1.34648444479039
1.50084394562241
1.43470341436253
1.41651444663265
1.31150220522052
1.41592625430437
1.33516823156398
1.53114325638508
1.3551415517391
1.48096037911487
1.38729296818613
1.44053323160045
1.32617215103023
1.49949066990537
1.41350693730333
1.42287851927248
1.38442354850377
1.37181840391589
1.30745858426757
1.38770973544078
1.35420007456482
1.43070408387521
1.38548177336611
1.47587522540547
1.38117420387803
1.33275862041529
1.35825598160486
1.36444226755769
1.26811036221607
1.39829742305572
1.2927768952763
1.34880346209915
1.31402062366797
1.34914820682942
1.34772907227427
1.45811341070247
1.31555120299414
1.37247375330806
1.2756505311331
1.32900119290081
1.31042351619203
1.37889900646458
1.24772770142108
1.31503541699124
1.29485570152053
1.29400675006896
1.28915329447769
1.30469937487186
1.28473864205545
1.33352575997628
1.27004514374062
1.29697562799361
1.24304266696303
1.33029163033428
1.25154509841216
1.30153015008402
1.24663155560411
1.29897208120209
1.23870534942599
1.27976628974033
1.25129632619931
1.26008870857947
1.2069764608223
1.27714731557225
1.25230321634952
1.29159002348451
1.24587986476917
1.29865486319604
1.24451297722709
1.22755625096337
1.20378399742264
1.20810414707092
1.23274776505376
1.25860412977482
1.19868230872306
1.24915723468064
1.14137947722082
1.25352469429981
1.15044767470756
1.2657630283245
1.11154977235644
1.19696941959314
1.1572145966903
1.19100755084859
1.1723380816609
1.19331103685395
1.15798621696743
1.17714234222012
1.11547523391405
1.14427248462824
1.09392140358323
1.11969529472776
1.09492838949291
1.13814851076434
1.0765973236071
1.10989501929787
1.06361650882724
1.10988304066297
1.07628819348545
1.11760745378364
1.05059891122816
1.09288231785528
1.02631517211939
1.09624947950758
1.06700793249131
1.09100209603478
1.00620705200018
1.08434975530305
1.0321102122501
1.0430919259241
1.007717181639
1.03021639414297
1.01495670509911
1.04245387360565
1.02876311899431
1.01856216420416
1.01683198795019
1.05117513974123
0.959415503541705
1.001719945124
0.965474234926444
1.00698927162997
0.960492007091272
1.00194616651077
0.955540501387276
0.967681758945057
0.935736028743471
0.943571458833091
0.959054032960789
0.933744550563213
0.902105308227859
0.943653789866067
0.915361996101879
0.930077242723158
0.896330972843141
0.95521521509154
0.907378835603525
0.972930648438221
0.883032786474666
0.918415045432047
0.894471717170969
0.895196504742154
0.889118691279309
0.90815671813319
0.868472569992306
0.847981441509542
0.862030351786056
0.886197414154622
0.827084266643249
0.857271133831528
0.847017107512202
0.88010411694868
0.820063152855592
0.843082881431724
0.802640922782411
0.835807296784983
0.805892230035055
0.82133432436721
0.8012029084145
0.826117092119349
0.792480764713278
0.80842588190082
0.777888578785349
0.808918491340798
0.784198207410041
0.797124039027388
0.771227506987051
0.780377804532117
0.755728151926401
0.758672101034849
0.75001324160125
0.758322751888309
0.752458252633221
0.767133763561567
0.736206666837695
0.749273448691651
0.721298388934861
0.744023848169334
0.727340977101297
0.73463566859772
0.707301143141376
0.736728829547099
0.701825061621387
0.723198940460176
0.708091263723209
0.708421333497853
0.702756229539857
0.701102005550016
0.670804401391199
0.704241238789963
0.672631975088095
0.679096575596389
0.674729396101095
0.674062903822317
0.665321870644517
0.670452108061151
0.654207634748933
0.654269603173374
0.638873520802778
0.658733462814887
0.647439717075992
0.658463264432187
0.630776968540182
0.648030333109383
0.624327427544713
0.635087541672065
0.620087595402271
0.634376950794277
0.60716148973148
0.627420188899653
0.601621618320386
0.622447345737588
0.606686341736994
0.618689046563555
0.587306786804655
0.604887866229855
0.600416914495808
0.598352673683518
0.580457644982809
0.596905363627569
0.580266579240647
0.591728450961364
0.561046651871068
0.576883935185806
0.565363142415244
0.573305129622534
0.561110154830226
0.571336901752491
0.53572414579214
0.560969601541363
0.549181078374413
0.551905470416336
0.540497944507261
0.552865086601558
0.54495122624878
0.545604216911764
0.52440976541108
0.542732617771466
0.529629632290926
0.5343945769107
0.518730054325436
0.522197783029777
0.513487195415533
0.520430872477308
0.511778003622208
0.515664045049866
0.509250674508942
0.513305830886956
0.502595087292692
0.51136818875221
0.494100001879679
0.503625727672359
0.495937183525111
0.498846187614466
0.485169796216853
0.50178345912445
0.491526099660929
0.490801440490747
0.474891114020657
0.483961577292468
0.468642254512624
0.490066598181185
0.470435579314285
0.476761567760105
0.461181512622539
0.474678450892197
0.461866200480124
0.462344003625472
0.456466670480584
0.45837571516308
0.445517488383517
0.459549852633995
0.450598295660986
0.454018511081586
0.437734980990617
0.442491203374464
0.448000500706196
0.443608296166247
0.427929445146366
0.449483661642812
0.433382287680781
0.436326650279438
0.42761224370895
0.434335490520839
0.436256440494153
0.438522649396909
0.432739798170229
0.436837736449139
0.427120211339334
0.42390126769231
0.430569850026178
0.428331080661626
0.42003885837092
0.421456080748696
0.417804845044325
0.420076196949198
0.416536456956211
0.420165791241426
0.412191297957076
0.423207824306809
0.410350913846114
0.418326424988989
0.410996944766264
0.421128081351322
0.415865414554253
0.420551908584704
0.421758286699068
0.427707351682972
0.415723497512468
0.424149464515206
0.428479823096096
0.432407168953419
0.42118589922676
0.432454718859048
0.428705553696008
0.433043638386374
0.431233821426764
0.436190979080869
0.422094444304104
0.437242619078344
0.435380683448278
0.440405819165495
0.436936067832297
0.450261956091625
0.444484502964938
0.449657300945561
0.448266598646245
0.451919543382217
0.44174278701164
0.452626034706478
0.447220413636035
0.467991898479283
0.456940906825919
0.460390019898375
0.455986976223905
0.466596708595225
0.46666678766876
0.47693872212968
0.46256428715269
0.474046522715794
0.477803582337518
0.48581706154433
0.473169997521488
0.485369331334088
0.48689317384948
0.495837741240843
0.487611986721613
0.50044242799268
0.504870064052309
0.505797776523129
0.498369329666675
0.51616770233757
0.498214698669318
0.524843136035812
0.519929841687747
0.528097988732689
0.528586308209321
0.537826453882951
0.529156530433016
0.548527908768041
0.548415070250915
0.556698496999354
0.557558805716631
0.554359766042285
0.552350223724301
0.570785284918809
0.562262994681429
0.579974027324264
0.562742963748694
0.581110683183051
0.5736794425464
0.581121975078551
0.578398986870807
0.575641521299546
0.565355369205475
0.58063608673882
0.574713153632004
0.583638772231519
0.57282456736802
0.57725451942821
0.56632825175603
0.569395510142311
0.568219282191745
0.584137746719413
0.568008058832366
0.56545301700329
0.571744528503962
0.581555055643668
0.564217395686813
0.570230899999869
0.558358497841297
0.573443998976917
0.56469244677856
0.555684748077952
0.550992612481175
0.571125110578965
0.554087265505408
0.573154149500951
0.553577282459001
0.559327166107984
0.554467222714815
0.564687257603963
0.563595194351714
0.561971422088153
0.55650535504444
0.556626594494478
0.557064448051587
0.558474407234293
0.561583110032521
0.566887109622516
0.557173596398763
0.567956252114232
0.55484388291313
0.564083369925268
0.55629871329343
0.566518128679795
0.562430844448178
0.559263303424975
0.561028237730955
0.55322260641616
0.550284940921817
0.563053644446783
0.545309615538916
0.553221456101634
0.548056915650017
0.555263120872658
0.547726099953465
0.550676334915777
0.541191127392167
0.545029828440159
0.540231401001892
0.535458913497515
0.534105019320043
0.537262027714024
0.525236792102368
0.526586515922444
0.515278172644275
0.523391479415322
0.511394558539324
0.515068290479678
0.512355561154471
0.516915295166252
0.503821359891249
0.500626194277719
0.495416615997714
0.501762148713613
0.483247564958523
0.492157295631612
0.476850400113977
0.469597755591682
0.476084281858766
0.47437434150331
0.459166182573101
0.454953626708663
0.456902880789276
0.456450556080532
0.44786891303528
0.44643113848122
0.44515086253095
0.445573815007475
0.444753869722395
0.439823847517846
0.436286157359879
0.443520549595222
0.428435379110186
0.425452610621422
0.421585152073576
0.422976141170651
0.411954594225021
0.412681642853683
0.405465670265074
0.403706645418912
0.402350030286797
0.401504490682473
0.401141807008169
0.400743155159855
0.395645255304245
0.391285570734694
0.389343496228674
0.391855179816396
0.388193383793846
0.391554780341976
0.388144318266866
0.387408411493325
0.377582490243179
0.381282984662685
0.382876903295733
0.37818049153141
0.368797159593824
0.371998204942267
0.36633941751663
0.370317563328383
0.361294187112714
0.364414665377807
0.36981500874555
0.364203114715638
0.362012967862576
0.359943465281802
0.356504902153306
0.360528625228459
0.35747579948988
0.35463437791073
0.345789667740887
0.348479752848335
0.341435923994419
0.347453104852949
0.340698447247622
0.342374651593505
0.340800944518025
0.34152551907728
0.338644926809978
0.333816970943591
0.334870545399782
0.336764625183598
0.324762344399158
0.330345242565671
0.326679579480075
0.328190932968957
0.326634596220352
0.328030412239453
0.327355484908766
0.32623820625578
0.314361224981754
0.325520548056611
0.321003496944576
0.325165847472604
0.316233189743325
0.315406093133509
0.314703367312479
0.312918605506955
0.314850802854841
0.31474906087459
0.311235697219135
0.315068497682924
0.311087989367969
0.312845548350275
0.307868937396888
0.307903183955234
0.304506479207558
0.308652904773742
0.302483949283557
0.301287052017144
0.29751344296799
0.301721598845665
0.294567856177338
0.305428909001117
0.306944175971943
0.297510882732176
0.293997267031638
0.298416164358543
0.294997858231994
0.295746940548613
0.294858934752577
0.297124713676639
0.292292841966709
0.285692756423941
0.287242114945732
0.292698920158683
0.29213256532986
0.294997031529571
0.292798050491552
0.288410194983251
0.284560120028613
0.286632182532783
0.283176596984385
0.284438564977713
0.281385443513843
0.282494093303912
0.278783211992993
0.282966066501625
0.27914703032583
0.284363719678322
0.279462462572168
0.279930960730846
0.281662103733425
0.278011618374536
0.274508609841105
0.276317619583123
0.27840779708054
0.278330700864899
0.276402168520785
0.278249677991785
0.275729919879519
0.280643620237532
0.272254977032721
0.276821982006077
0.273281187536762
0.272287120406638
0.271404052924755
0.275132653477559
0.271608057371603
0.276850149120741
0.270911202729719
0.269879904593355
0.268827640305112
0.273374494827941
0.269501980687428
0.269305371044578
0.270158858089953
0.270136038002967
0.262271530250245
0.270963511478363
0.266873288631123
0.266572652968468
0.265517509280522
0.266810765471648
0.265905077134348
0.264704665367541
0.264222192629812
0.261826962659321
0.261037671388701
0.258302791465672
0.256258717404509
0.257671262908644
0.258224741583603
0.261254823614474
0.258131511650604
0.258340048169115
0.25578988819487
0.256118592564777
0.255468529011058
0.252763948813061
0.253258716821298
0.253190475562584
0.251738668155338
0.250351893776268
0.249424014889267
0.25121166357711
0.246412609984803
0.247776472940331
0.243894624794051
0.24676781255451
0.241722329694383
0.246538071484871
0.246053120452977
0.24474778112544
0.244148354921134
0.241686543827699
0.236884993685518
0.241543488795137
0.242406209362681
0.242560064211032
0.238802218535854
0.239432008318249
0.235654409308343
0.233521198931268
0.234876734198091
0.236443145795756
0.231951592654269
0.235183283781681
0.23468300624858
0.234865320774638
0.231836687657215
0.234378256765036
0.230574954736676
0.228138092085102
0.226712762770833
0.224823361406325
0.226647917609255
0.226963806465743
0.224917636960628
0.22453796776866
0.222557149452004
0.225800619182563
0.224084010864932
0.218424663981594
0.219457699981663
0.224385609680323
0.221363550932359
0.21958755981144
0.215612337229736
0.214222387319963
0.213250946841351
0.211909441988413
0.212579517726421
0.210196152941233
0.211303444943864
0.209340366367847
0.206993576117776
0.211732530209359
0.205811537273769
0.208185609131885
0.208043893568074
0.200315077119566
0.203254329429194
0.206253890495715
0.19878887554932
0.200560095988966
0.201724826689536
0.201461759444911
0.199818342258555
0.199466797468666
0.193992172150255
0.194339559665281
0.196208142103533
0.19208998079287
0.191099170804199
0.193981530181244
0.193161401987198
0.19069343009452
0.18946181566323
0.187889633116302
0.18728786983609
0.187476687495348
0.18443554666087
0.186837985228
0.186722992117797
0.185090561505194
0.183240512020067
0.18769696551906
0.187552409235356
0.182594842326262
0.184310755885331
0.180983744488146
0.181398345901472
0.185321734120648
0.181280480384284
0.177439381626114
0.18050008355411
0.179336841072407
0.175513478896011
0.176028554716147
0.177299198514955
0.178534270593134
0.17600453902677
0.17459366709957
0.173731936860702
0.174165956097063
0.174839933999938
0.172713475870865
0.173683700302909
0.169835746197908
0.168169699527195
0.172113077252826
0.169287812811594
0.168875751987246
0.17103311465818
0.167988911457976
0.167339715958979
0.170822465306751
0.16792644535067
0.164696936793283
0.162095893238301
0.16262727410292
0.163690033468044
0.163455977222339
0.16340616026078
0.162830333529444
0.159052220201871
0.161904137874998
0.161988323571853
0.161868216797537
0.161755551402183
0.160882329069439
0.159510770617549
0.159837077837033
0.159556582138785
0.15903122306449
0.159383540053103
0.15794515169936
0.159882379283801
0.160220277318145
0.158730433410173
0.158030571483085
0.155926193162417
0.156247727031112
0.153897375296985
0.155424627749188
0.15837799019561
0.155940868851182
0.151389224197925
0.152472107705006
0.154802538303181
0.151811898456477
0.154319264821488
0.155172659752255
0.152726168136613
0.154378709768683
0.151857491374849
0.152846018488249
0.153051840414519
0.150800192739154
0.153369865999498
0.154226133934102
0.150566795731875
0.149941101204128
0.151732416459241
0.150799695917087
0.149448174696418
0.147740781448384
0.147690693530059
0.148748861394072
0.148227999387997
0.148009350591982
0.147774879331074
0.147191757623071
0.147651782416727
0.146611954195551
0.143088826027912
0.145017261105704
0.14643174357632
0.144248695135666
0.144090852957173
0.144673371533646
0.144642198206156
0.141250982026634
0.141158605618063
0.142050121723349
0.141185439548679
0.141501469082931
0.140681050971426
0.140554513666559
0.139390298349763
0.140749494976249
0.13980327249212
0.138271421622904
0.13901303368121
0.138770423212244
0.138381762157237
0.136773422114996
0.135753232117855
0.136542161716556
0.139155643338396
0.137274434015858
0.135800329408434
0.13613951901596
0.136494864493231
0.135622142784092
0.135031034249796
0.133453571657523
0.135254818700565
0.136684686937682
0.134721086401904
0.136841792930967
0.136258397698382
0.133738673675609
0.135161730109317
0.135763686234497
0.131721208147574
0.131796962020796
0.133577430724794
0.131204166840087
0.131243877581606
0.130691376054966
0.129244124521706
0.126869089191204
0.129487637570107
0.128977634911906
0.126523317128199
0.131355752905895
0.130362434010661
0.128002829236168
0.130681552581611
0.130871560337423
0.127307659275419
0.125950307400049
0.125984702838132
0.128203006798635
0.125317377372297
0.124998909425901
0.123689411725524
0.119749372091509
0.123593662486072
0.121483097933255
0.119092924205404
0.120844348614145
0.121578651684942
0.12227100614695
0.121498938859296
0.120224054663833
0.118735666722484
0.116877667117289
0.118622910921623
0.118709238630365
0.118506920704048
0.115163288373245
0.116037850335176
0.116377038742751
0.115991424966677
0.116244569606865
0.115482274207773
0.115212506452625
0.116543362262717
0.114088024502141
0.111680439632458
0.113297184363664
0.112719874835878
0.112020254759998
0.113349932507666
0.109633147498669
0.107296161280703
0.110279185007784
0.112607653001275
0.112981885847094
0.109834543604432
0.109135574505523
0.107728335842807
0.106152018490001
0.107559751246979
0.108391171377464
0.108433063864755
0.105824170113317
0.106595128257471
0.105484049219864
0.107294439302697
0.106668375297087
0.102876708499876
0.103224710849301
0.103606238115045
0.104892288677778
0.10462811853218
0.102146143435477
0.102256408393664
0.102640467997398
0.100259115805283
0.101069039837061
0.103234647689311
0.103400000877506
0.100345114190458
0.100326655098662
0.0993738384310618
0.0980226126293052
0.0990006804491557
0.0992828537168633
0.0997258903878438
0.0979458493860183
0.0972534740483144
0.0949069432397854
0.0938270486214699
0.0973731945580787
0.0956242743344795
0.0948399689826547
0.0938286430029793
0.0958903218928537
0.0967138943799199
0.091262279763514
0.0907878002616262
0.0951204826454373
0.0947931090570217
0.0930950915358037
0.0910069686741458
0.0894960649892306
0.0920174172044731
0.094575978518072
0.0902397700157228
0.0898418900783048
0.0912526959836028
0.0920775115727157
0.0933418337186796
0.0904701844071368
0.0909500267633729
0.0916350568732996
0.0912643411701407
0.0919623678063715
0.0935160838711099
0.0945506586967169
0.090895875186624
0.0892334376136533
0.088475810840207
0.09127458410334
0.0908556042785139
0.093233858541168
0.0919487453320721
0.0909050573604777
0.0900739386666647
0.0900011237002334
0.0857876270992495
0.0879121671058118
0.0880443284522847
0.0887339988311905
0.0853192395339895
0.0836801881094426
0.0828294380143654
0.0869000989423494
0.0894853397994292
0.0877942319984234
0.0805584722605854
0.0789081409129404
0.0765820151677462
0.085754095843319
0.084291897102641
0.0785118565075678
0.0744229389579002
0.0774508358058354
0.0797689300693483
0.077692282256825
0.0765419069914915
0.0808952356655211
0.0773146341998459
0.0826961243469192
0.0772215866261622
0.0842737694414363
0.0847960349460026
0.0863536669094549
0.0811579638754331
0.083388928579793
0.0767790467974707
0.0838923971377651
0.0797750194823768
0.0820588075598982
0.0802433883077959
0.080053000982326
0.0719685410724973
0.0797197256477389
0.0731095795837669
0.0761297685885648
0.0726624803208833
0.0753064273598557
0.0685310847083262
0.0761828114631021
0.0750634911100932
0.0804888811907603
0.0806900986703637
0.0786184989277594
0.0748448845320244
0.0764823483297325
0.0798720527955199
0.0771434610711487
0.0884394732324415
0.0752274544175351
0.0807020345213498
0.070590923788378
0.096155086142418
0.0738322085232438
0.0904745415335845
0.0674556420587799
0.0994102182962376
0.0701028304659616
0.0943421594915254
0.0684443500309369
0.0967742963483304
0.0700323840320557
0.0915152575128939
0.0766678729351062
0.0874960352597044
0.0768757381346052
0.0860385233163631
0.0796799649540498
0.0846569328704782
0.0813845468076705
0.0802705443675655
0.0775979122824039
0.0824513716477626
0.0761445976169132
0.0813696423297449
0.0786425705498465
0.0832055181439197
0.0744522300585804
0.0797047851468507
0.0745439187738365
0.0793192429611904
0.0761151953297123
0.0789025119827015
0.0763766975690692
0.0797755728329935
0.0759816558537882
0.0809907300694971
0.07529371723125
0.0789808153270757
0.0751643977092606
0.0780551118893355
0.0735615495581897
0.0789838822355952
0.0760828309266511
0.0781182115706567
0.074278274865056
0.077765266297514
0.0738987440766154
0.0795566653024735
0.0760376472121576
0.0784142988478587
0.0768900330299443
0.0801606274991916
0.0742727292592746
0.0779868706486789
0.0761369952755468
0.0770434815948169
0.074423486570568
0.0786755601046955
0.074416267781636
0.0797085182253087
0.0762587100635029
0.0791179100455202
0.0769676171135888
0.0790508849186781
0.0762807447356275
0.0791782931297735
0.0776048415754568
0.0791267885346972
0.0745833530586377
0.080573736351035
0.0749843712720206
0.0792275268683452
0.0779348651562434
0.0810525639466277
0.076239022610796
0.0772591484965188
0.0757016550505893
0.0790554586100758
0.0760351126416349
0.0786800929164263
0.075947744492821
0.0798567875355902
0.0755445200348717
0.0800955177191149
0.0769180491198391
0.0781305375925946
0.0775674184889559
0.0789656960665264
0.0754956373759563
0.0795300088578439
0.0766873316406452
0.0787125359324371
0.0765956017967108
0.0798869599305228
0.07693117667729
0.0791501720646006
0.0753969085157038
0.0782456634789307
0.0772968246066271
0.0808653758652596
0.0749201467072009
0.0776287996125458
0.0772757584314665
0.0766862856366694
0.0774542298808347
0.0807477889492723
0.0750633911234133
0.078910727053179
0.0780229314619498
0.0787143176937068
0.0771413206113845
0.0807995713314659
0.0789295183257215
0.0803841978181575
0.0788166704423765
0.0828233032335318
0.0799174298521052
0.0803682523808947
0.0775710989500845
0.0806903188542436
0.0790271384978071
0.0817775537697378
0.0797466926358843
0.082399292973005
0.0796167571992783
0.0818459237789284
0.0791118604559392
0.0812323479414728
0.0797631038250027
0.0846147061120937
0.0790831938086691
0.0803839500122657
0.0813154813616095
0.0844013784700327
0.0810370241636212
0.0810319984294801
0.0794809440354723
0.0839561236626276
0.0812284928219575
0.0845176975385574
0.0826583951123469
0.0827735226704343
0.0809784021354461
0.0817840085316055
0.0824107926700058
0.0855838227352154
0.0793888892682984
0.0832367313946164
0.080623316379945
0.0828149589356365
0.0815852670802575
0.0835262801625685
0.080433506485392
0.0819494148526472
0.0800059632541836
0.0816962853063357
0.0795032445428438
0.0821719438408153
0.0790295945042616
0.0831438327126506
0.0843897492060455
0.0853782136465193
0.083281093890851
0.0854625397551358
0.0819182740850647
0.08492513046179
0.082466261411684
0.0843553222345202
0.0823210928327106
0.0852283420765855
0.0835215157298563
0.0881421687644851
0.0850409018053786
0.0878191415199138
0.0840892434496387
0.087383168995906
0.0862849657072271
0.0873479200341294
0.0836393573950909
0.0847728925756324
0.0849989760512527
0.0890235379220173
0.0853636002295872
0.0878379276690854
0.0843094284731687
0.0853630599078878
0.0868657025406002
0.087927034821122
0.086323442406054
0.0874057257888696
0.0839244781691888
0.0874979171528844
0.0838717997943746
0.086128949261811
0.0832984329345677
0.0854929189555925
0.0832285295293366
0.0848641184603258
0.0836088646439096
0.0847644492554692
0.082339671596742
0.085646231735924
0.0824645492580371
0.0848734963214225
0.0821740123554308
0.0851906991682216
0.0834354444261723
0.085644663094386
0.0816342535841581
0.082810056219295
0.0816650432226438
0.0831848682804711
0.0802541906134236
0.0848142453177757
0.0825541733042333
0.0829324799178811
0.0826774674244118
0.0817690629191741
0.0785747869467787
0.0830757418180403
0.0796373714539909
0.0840480744005062
0.0816456274695403
0.0845014169215076
0.0827204911714256
0.0822448214052355
0.0803580353276887
0.0845334372796027
0.0795942857834274
0.0817808117507883
0.0809809707440684
0.0817061753080762
0.0765652150968548
0.0808395672236947
0.0780137243582995
0.0805246247675345
0.0828106608844811
0.0814106925875514
0.0785472894225564
0.0820047522153935
0.0796613680316625
0.0825122013017854
0.0780493785189511
0.081748171952852
0.0804973104315813
0.0812860531134893
0.0786549650491053
0.0817231997064126
0.0782206949327283
0.0808190513090741
0.079671436598111
0.0844208411953569
0.0790538901330671
0.0797090232404205
0.0790486753002865
0.0810921231093061
0.0787638169530288
0.0810873069583617
0.0775355444530838
0.0786069309291759
0.0785312729242353
0.0783136630979221
0.0769869004123745
0.0815015872091581
0.0791447872278893
0.0814158005329509
0.0785796574776528
0.0803401548006506
0.0753356002037532
0.0796163727820805
0.0777080313526732
0.0799182115559759
0.0763536980479034
0.0786215399129571
0.0763910502261186
0.080014124371752
0.0779857325724141
0.0803208823351548
0.0781448000545568
0.0820707802176771
0.0780919932267788
0.0781222076703068
0.0766094725552146
0.0809994545975172
0.0747588673709219
0.0765514815394135
0.0740521118856009
0.0770291127171819
0.0774737580810001
0.078861516660938
0.0767591257008022
0.0765400831282572
0.0760896490371897
0.0785076708700998
0.0743685442107582
0.077339856074588
0.0751640778850559
0.0786180218617901
0.0757581718796097
0.0769329277135853
0.0761515976803507
0.0784265308255582
0.073998906648331
0.0780241709646885
0.0760467880211934
0.0790777276635898
0.0747445336656131
0.0753627721136651
0.0746905671620754
0.0759499214004089
0.0717823905320607
0.0738405354475394
0.0739983429785357
0.0749280173796522
0.07292137594683
0.0745285844993922
0.0714922553076059
0.0731157101346526
0.0694460575798176
0.0745717428716293
0.0705172946298919
0.0721845520001409
0.0686375974015099
0.0738250926835705
0.0697128508711967
0.0714050535182192
0.0688317089825033
0.0729722427549865
0.0709746220155457
0.074413430408612
0.0764544814673571
0.0734055928708995
0.0681186697238799
0.0683148345335512
0.0693760778699082
0.067253332850638
0.0673097497775272
0.0688483957185573
0.0659470384041631
0.0692446712906764
0.0675067630169088
0.067514555525573
0.064193743113393
0.0662488123515807
0.0658477105215926
0.0680130122903971
0.0655521547000266
0.0662954363219399
0.0655001917220465
0.0690081986841614
0.0649003893444572
0.0648589988148744
0.0644374581646296
0.064296397148217
0.0652896130636141
0.0620042957191148
0.0736920047195983
0.0745273467570483
0.0665675062330271
0.0660046615908033
0.0644603730812193
0.0689144301779728
0.0637593021447378
0.0652832573334694
0.0627918982923964
0.0656941132271492
0.0628974931248975
0.0662183422323225
0.061085386902716
0.0662765300005375
0.0601324960696785
0.0652924712533382
0.0616609145490577
0.0654877583120328
0.0638217463779221
0.0669502803605209
0.0599811293003321
0.0631927515343342
0.0635599306369344
0.0627118617574091
0.0627720022673549
0.0615855220815049
0.0613767942739069
0.0718410079096364
0.0659950826391644
0.0668536593939832
0.0600603952726463
0.0645893446018427
0.0599665034670064
0.0656317475749787
0.0608302901749416
0.0610956894321547
0.06017983795373
0.0616233175197985
0.0578096009661898
0.0621292244278685
0.0599012924404392
0.06310135019296
0.0569652545652136
0.0613589741890614
0.0585050872465314
0.063150026304101
0.0562032297272743
0.0640589373523543
0.05709507153006
0.0640690534236145
0.0580458308272417
0.0662408237472011
0.0529722468523438
0.0702185477351208
0.0735540066432009
0.0652783499509477
0.0608965033588307
0.0602760508653686
0.0585810566670073
0.0592435576895768
0.0580678424905726
0.0589985257585344
0.058831262334003
0.0603561721480824
0.0594769922553704
0.0589665790609216
0.058588657942277
0.0623907013612283
0.0571241033920374
0.0611953227081207
0.0591695914178537
0.0595588150932792
0.0606817511527098
0.0589000745987044
0.062646397395796
0.075257157593584
0.0621361758350859
0.06436256919302
0.0551497742782119
0.0581632359306937
0.0817791828479606
0.0637953117442501
0.0633225516067522
0.0573283601685553
0.0612764884649543
0.0555000997281695
0.0623344394105679
0.0551194121482906
0.0637477295501695
0.063739524738174
0.0607318299065688
0.0672730096962281
0.0584205715785349
0.0576978284681308
0.0575056753416952
0.0580396879511924
0.0547192586970617
0.0600325144973921
0.0569091436049566
0.0592633522128609
0.0566340274034194
0.0562473470971996
0.0600966240278455
0.0544983992307864
0.0634141789653917
0.0607038082306217
0.0591055112616605
0.0569570615610045
0.0604581785010644
0.0531510466995729
0.0687283263443396
0.0727101579048414
0.0597775880563543
0.0627074664725187
0.054844370630841
0.0609652322428022
0.0585505530559926
0.0606135435900437
0.0553604561725161
0.0607044706229981
0.0560469880384003
0.0598993946884375
0.0563279484158426
0.059454068805824
0.0545294644711288
0.0607189104294935
0.0565023278028099
0.0599661018780066
0.0549425198802454
0.0582118715721485
0.0586525010290963
0.0593354533002746
0.0767240818956803
0.0759795086925436
0.0769288741316245
0.0686830527326755
0.0674953954270236
0.058622048962677
0.0593659382155992
0.0597942235642551
0.0572585662347188
0.0616229702138764
0.0593305695730851
0.0601243301464495
0.0599568427064717
0.0606924909342898
0.0571460317027212
0.0573324836067689
0.0556957141583703
0.0579006240125506
0.0572942256846642
0.0607119420740821
0.0558176394750161
0.0606076965169347
0.0550106330026159
0.0696855888001534
0.0615945071857515
0.0662080473991032
0.0486517771345389
0.108334498580734
0.0708680659935911
0.0717924491821357
0.0587100456114591
0.0614877366907817
0.0584219038991625
0.0603275055057606
0.0572016065988268
0.0684195451347856
0.0589081301153181
0.0627547092341523
0.0562129160277732
0.0665093082586122
0.0588229796072569
0.0564447171831995
0.0718479640748348
0.0930363730663398
0.0655813718896298
0.0705194950340943
0.0529136551459597
0.0793968934142768
0.0819018046352278
0.0656588058603979
0.0684775830025348
0.0645558588672425
0.0626616396703115
0.0612909859384427
0.0617801467030761
0.0625031782544972
0.0700330216704281
0.0654331760445242
0.0618966461480226
0.0624042545369583
0.0606726917714489
0.0685794702911583
0.0619044652202593
0.0776510712975108
0.0741796930947905
0.0639624062251475
0.0696564741583721
0.0673659651013849
0.0657344055898414
0.0642244494444306
0.0646155021587231
0.0628272770713394
0.0774916157776812
0.0769414307570986
0.0698118216466723
0.0835733588396705
0.0721692817665502
0.0650331211531959
0.0714783728827548
0.0715733705544608
0.0832488805602233
0.0560522018068643
0.0939579134546942
0.0854073391991627
0.0924764846142995
0.0866929177154599
0.0690097181896702
0.0728887338899338
0.0641678922357287
0.0684872042244433
0.0613846086833602
0.0951870296756656
0.0621861244485852
0.0816924008562992
0.0565310963513465
0.0924161040438403
0.0741268980350931
0.082344232745412
0.06887050790346
0.073743729839192
0.0668187891750718
0.0970019665398858
0.0672497087244464
0.0787568251068439
0.101132716667358
0.101853692817518
0.104293153565282
0.0756229351946419
0.0752256705424243
0.116142121573931
0.0757440815790665
0.085871738952062
0.0676592323356873
0.0830308930798412
0.0630393360676998
0.0923102350729966
0.105460112824315
0.0832010114366698
0.0792649268210238
0.0826482189146691
0.0747097714730122
0.110147574405893
0.0837202729726094
0.0867547977559604
0.0785892352331866
0.0890651267296021
0.0698689478090022
0.156874418384705
0.0840449623326448
0.118089773620066
0.100894913509647
0.112007363280312
0.0964867878129343
0.103700428954191
0.0881511740780925
0.111838198463149
0.108595028499624
0.101016787831854
0.0787800466351061
0.128274999874209
0.114821569171741
0.100220360810503
0.104324753518041
0.0939492554904264
0.0991977583305238
0.145972377723201
0.157397559415305
0.140101502168545
0.103189546179918
0.109700647914748
0.136088153737041
0.110177577897494
0.10969315445879
0.106072730234701
0.108883831549246
0.112173490126305
0.111087783557599
0.131979116749155
0.11005622667278
0.127329411508789
0.106981353014203
0.129020446756443
0.135117551913638
0.199397963939769
0.158184149949976
0.140219057736149
0.172530757088177
0.148083873094402
0.14357782063703
0.129573079407077
0.130033195580236
0.143779870190711
0.135579352257209
0.137443698217281
0.131959776727327
0.179639144249128
0.143728184707097
0.168266974026153
0.159955139961542
0.155138806211769
0.146275395456246
0.163310359685598
0.358145055066501
0.173536289594088
0.197417334626799
0.158298170758496
0.207912849314111
0.236785500230383
0.191382143041035
0.179322587194962
0.184402148946671
0.179323046533697
0.196492395418646
0.203725328051566
0.211958134145043
0.222417147343861
0.214204666743413
0.206126018822071
0.249076623710998
0.295268367688635
0.303389835557186
0.255685833157324
0.243571292709726
0.265957203882543
0.272075720364006
0.254320252961515
0.276510532802884
0.25435179116673
0.302342649110523
0.322698567952064
0.295922627733111
0.297619095199794
0.306181772629981
0.344620862873178
0.298304159378242
0.395418683315693
0.337047772257931
0.350798133357998
0.326242483367121
0.351454794484382
0.33856546177253
0.354250499904432
0.389511706720663
0.382001985453219
0.371065836994679
0.376459715039461
0.374251675807949
0.381237888322469
0.381691446307816
0.391416557206093
0.392392795001848
0.443383608375758
0.424344622059665
0.659961066481413
0.424989813715674
0.420701096354237
0.392336820792709
0.421045027772882
0.439503370568806
0.431740626918855
0.465440400071875
0.44179622878826
0.415731845530543
0.426594182893128
0.417987769849564
0.420035712327252
0.415964081711434
0.427106419559176
0.403052841761393
0.465708791829987
0.40101937538872
0.501123775082172
0.480191528707705
0.438009479764443
0.415857818259614
0.42519543672432
0.399650626266215
0.420037974568341
0.398463883473848
0.423877506728853
0.439302445443661
0.424443621007259
0.408163183948674
0.390776179298094
0.455617099778015
0.42827521703176
0.405908072325936
0.400854943362198
0.380287126709965
0.401467642272783
0.369011363521406
0.415242848815784
0.427351558440249
0.391908096700259
0.377994721374957
0.376013286199588
0.375796811223791
0.368048780260253
0.360309500448148
0.381592212496538
0.372247916214285
0.365989786045096
0.370125156645713
0.364325435057784
0.361314374153548
0.355559480764111
0.365316071428804
0.357259806869617
0.353518487469072
0.357279344653644
0.348520292587041
0.354847713123464
0.347798235111039
0.356720457466193
0.352168572610202
0.351184190821691
0.352481787735172
0.3503054282849
0.349751562724833
0.344759389388792
0.345065982138431
0.347666847568377
0.3358000807396
0.345682133482302
0.337181286279857
0.33480478364964
0.335092087858761
0.333338895924868
0.336356499062018
0.333981021552407
0.335557515935463
0.335445053397362
0.328157954059275
0.331302016808549
0.312431386452079
0.406011394312241
0.343243621659913
0.328822413680973
0.312224180131089
0.31798191134456
0.308398217927569
0.306633529099884
0.366454827355481
0.333418345961187
0.303012565007778
0.30085353157124
0.289791510678847
0.316102374103275
0.29405776404025
0.288587492403899
0.293510651073678
0.274294017465266
0.351330788044589
0.346915363855141
0.381442730622738
0.359879789612335
0.304093778978309
0.261706984036925
0.295679459664815
0.304700021379133
0.26255138697953
0.270884214891755
0.251210372895942
0.31095047206583
0.26435254111359
0.258190831174601
0.250433099426092
0.247740901417016
0.279151788065168
0.2862992615397
0.257700651468633
0.289870301038551
0.289377529512095
0.270392646113756
0.310789220228524
0.328260876502621
0.27264964194807
0.234079473852052
0.241804452209015
0.233717326315684
0.251805527451891
0.29942355240363
0.236497013509118
0.257827929120161
0.219334234093397
0.226462732450205
0.222926418440341
0.256170097702762
0.230480864328315
0.23599726949327
0.26211480465563
0.211146433781639
0.23971181500767
0.234562961067372
0.285162162199399
0.273933981570704
0.22885917879897
0.213793217255353
0.260542541580524
0.256502842138646
0.228276928122854
0.234401568358118
0.202609811146859
0.222501407024803
0.237719426507596
0.204412615411595
0.237448090813329
0.226092937708647
0.242306752972107
0.285377092894591
0.286894240074132
0.27438613799839
0.218053518214563
0.204821824553038
0.206980172310113
0.210510297139013
0.214377958177141
0.197900435706817
0.247894499603234
0.215475773204606
0.217889638456788
0.266970657771148
0.228620919294434
0.221932541673293
0.22071403650327
0.220546596791805
0.235824182028433
0.263204422844427
0.279431247464535
0.252400047814608
0.256513229457875
0.263852412826289
0.246315059815509
0.254049297794189
0.25274197203806
0.258631708066078
0.259034177999077
0.280450678644561
0.272387771801733
0.280501271660954
0.286839891293627
0.284776452056819
0.326051864568122
0.332469368501722
0.304708798201503
0.355549744576586
0.341143532641593
0.402144651151896
0.346592226753367
0.345309303912787
0.34404840235576
0.351813200247911
0.364434506129644
0.361696302488868
0.377894860062312
0.413615693036531
0.38186871034932
0.391406473216547
0.386116133365892
0.399088715039546
0.393419597282909
0.447047763822446
0.420034512090137
0.495012125746615
0.462160646335205
0.440980695685731
0.427578318770603
0.42128875753242
0.432382749069708
0.428623910292758
0.422967430712619
0.424116695765189
0.429246907489043
0.456315284264313
0.430855727729933
0.436147658657955
0.43729858885573
0.444429437340133
0.438563590985105
0.448385587563894
0.448163943223001
0.453639525044958
0.459213529464667
0.458352741174669
0.449601511542581
0.544269958743703
0.493432666219854
0.477307164687642
0.472812903190545
0.489900248917302
0.482660243027426
0.495967275831606
0.511958799379725
0.514528761506979
0.506064743671494
0.507437514145799
0.509211897244212
0.506342413478375
0.525077494728023
0.55008417284512
0.511047346248508
0.536420219240934
0.512688886387324
0.562937234882379
0.580173000820703
0.550290892522042
0.553574891734161
0.544100980657631
0.542208643002989
0.54342743556955
0.542139292316907
0.539908261690325
0.550262610031142
0.543526058873222
0.543879377184007
0.541383872513917
0.540614648009138
0.53896585481476
0.540095752048856
0.56676740020227
0.542385967703142
0.541002882168188
0.53696213490941
0.538674418903097
0.530830562890259
0.570186053575938
0.552081226034029
0.541528460529014
0.538187220722961
0.544585675802396
0.551088544239904
0.546006735353777
0.526856058226867
0.536960416571177
0.525517766311951
0.535172834643988
0.52694306554037
0.543771716025644
0.567327874091708
0.547797978727075
0.540634139660002
0.546513399931437
0.547744713823459
0.557608019827318
0.552319057358078
0.557681061742287
0.564386623495687
0.564653469588289
0.566882777413336
0.572959794989291
0.574938373377361
0.58892815950608
0.584014568829318
0.590115791510449
0.573325237348593
0.579525692013452
0.562695002487243
0.566760251619417
0.573275552522454
0.557876459570071
0.553678046285905
0.554543441789092
0.544326271200603
0.549783285238762
0.578952742007028
0.546112765218165
0.5431075944717
0.537729515511494
0.529776126478125
0.535568721600294
0.520605273129474
0.520491632238698
0.51632612615653
0.520891831110489
0.511065920875811
0.505453887531615
0.503547493329885
0.504451924978293
0.499080428451752
0.507089271244705
0.494787004961971
0.495082629670357
0.501920764634492
0.501466785470625
0.49187849161971
0.490835689830199
0.496815806996283
0.496307045549944
0.510337320220689
0.515368930629828
0.515573137460144
0.502865430444054
0.500718888673812
0.496369105416508
0.488750338924147
0.491510843104926
0.48237992775886
0.491051582315398
0.481171399278575
0.492973092434356
0.48477494602591
0.488116131327105
0.485082677810921
0.487290458256096
0.482361531204513
0.483567415844644
0.481229981209631
0.482240433301869
0.47925981843482
0.48226529072344
0.479272717594801
0.487215086236251
0.478370869810165
0.476457625937224
0.485282361328312
0.478475199676739
0.479300261004586
0.482906894064292
0.481191815547848
0.474616364606926
0.473218163617327
0.479109366641996
0.469998361337903
0.475107743623957
0.472698842564452
0.474707124643828
0.472483686373691
0.465388189252315
0.460765857786395
0.463343791937157
0.458993779072938
0.459222788796558
0.451311406289269
0.447354945495475
0.447554445288905
0.445114552234745
0.435595288923071
0.434510494478993
0.435188293710462
0.433069980941219
0.425070594274283
0.423349236811376
0.418243117869527
0.417773177043367
0.413981675345275
0.415660642617513
0.411510398428482
0.410553043918753
0.405489440696483
0.411074284910778
0.406599947536518
0.401828957345639
0.400828620136441
0.408713553460204
0.40160895166866
0.409647169871163
0.405726676855357
0.405777226702329
0.407372437063118
0.413037592396914
0.411228880196801
0.41521377470225
0.415805730190369
0.41983364743112
0.418209126495839
0.420298980079782
0.421215920399013
0.419125053605843
0.424101744356497
0.424521022068567
0.426122897744151
0.429145783217278
0.431839747501171
0.434695393289039
0.433566101559217
0.434396554949934
0.430399953585513
0.43347104675823
0.431811556394875
0.432090952580598
0.430629576472995
0.433115250304847
0.431002099847982
0.428623629627782
0.42467334646201
0.430777818806175
0.430103205246528
0.427171790932815
0.422485189255743
0.425201577453992
0.423431439070098
0.419275116752709
0.419527140526178
0.420099346258826
0.42073967494343
0.417721070188573
0.410675886113493
0.412606671763716
0.413510183566252
0.411703279861384
0.407293264681267
0.408109324112574
0.405876924671638
0.407218385798312
0.404751240721781
0.402484056678572
0.398898710881515
0.397845450964968
0.396286773224841
0.399045793880047
0.395911013142547
0.399733866878076
0.3944668760662
0.392784410522503
0.393300892667385
0.389411308292673
0.387216406718964
0.385639735038408
0.383113707410712
0.383101886049144
0.375793741163131
0.378154013115908
0.373045759709509
0.374497643979858
0.369182477866209
0.368060889523153
0.364681353499492
0.364067067928244
0.361929389923219
0.359768330775393
0.354953931209331
0.356906177098568
0.357654987587853
0.355676380569021
0.354853906570423
0.355035371819291
0.352362676070479
0.354378476633707
0.352584297780967
0.350843202377799
0.349318041203746
0.349753744990921
0.344878416769335
0.342761982591801
0.340088720222615
0.337817027640881
0.331329760303859
0.329189753436207
0.325042633369519
0.318801223368894
0.317392500968614
0.314328430227227
0.307798354145765
0.308496574124152
0.306706855628736
0.309113008801264
0.310279484025759
0.314324011629782
0.318118817121111
0.327279574286477
0.333985527197505
0.343250757921783
0.354776220321051
0.364485785018836
0.37806194598367
0.392967996758859
0.4075929245898
0.424615219128273
0.440163999958051
0.455793768641952
0.474358509583878
0.487593937908571
0.501167521510967
0.525918345282462
0.54592566039307
0.559013808483517
0.578945527809679
0.599496547422628
0.617003556652866
0.631476894389019
0.651717908548413
0.663653975698757
0.672803475561004
0.695670276477324
0.709838196989589
0.725463292871561
0.732412269268026
0.749927258297302
0.762328969480341
0.765438653334625
0.774904524355909
0.77662542186988
0.783515205962241
0.792831107824634
0.79012450804474
0.795461820258833
0.799684229675939
0.784738533356337
0.792288138659183
0.791958706075886
0.785557652999266
0.785412763186423
0.779999235422983
0.783434611599976
0.781887803331499
0.785746335562962
0.781717446863069
0.784387941262268
0.787471094751405
0.786994089972568
0.797692795892814
0.799126855248174
0.808799415052078
0.816416689835381
0.816209555005974
0.82916575903738
0.83107263762025
0.8429030876598
0.863128512032177
0.873758001115651
0.880473888586908
0.896227337469749
0.907434191980761
0.915053250261406
0.927196399632026
0.923144705579543
0.944676698484537
0.954419593160165
0.950931416949478
0.960997462553354
0.971091039943935
0.966495974729136
0.970523218064611
0.963006947604438
0.964359036892761
0.963267804045776
0.954279230284644
0.950285264332284
0.956009899180498
0.95358749879496
0.961398888365755
0.971959870438274
0.97087029665901
0.979693835562866
1.0100858534004
1.00179154903027
1.01669490870191
1.03593727595958
1.03599190911706
1.06191625073688
1.07116484895049
1.09384139915933
1.10235082148024
1.10863411342292
1.14132893224791
1.16502972857103
1.18204795285295
1.191779368413
1.20344080596076
1.21392397007003
1.24689550213342
1.28301875047558
1.29781970002082
1.31780973021855
1.33817201186736
1.36891909600513
1.38794921933813
1.44218412624965
1.45347952278928
1.46181778783631
1.48846613364712
1.50686404731779
1.53398505939968
1.5381367583398
1.54411890664876
1.57519964842534
1.58522776956979
1.59637496754984
1.64717932655407
1.59548358419865
1.6060681427245
1.58385694421395
1.57136700930513
1.61623924173559
1.60141217096139
1.67163413551401
1.6665411580279
1.59755547928289
1.62834772012691
1.61633156375618
1.63666992772081
1.61401492204555
1.65643746009792
1.60824845675727
1.61059214496948
1.64106817515832
1.62166418545175
1.623138152255
1.73250073875349
1.64890494763943
1.65455989696256
1.70294334481168
1.76546079180789
1.78961287844603
1.7224628115081
1.81735125500321
1.84124857986881
1.76644195930103
1.87519234037602
1.84445302568269
1.92773802426653
1.87047347900896
1.89272709313745
1.8729016801914
1.92284876629369
1.9340207481429
1.93556221328564
1.9552752468345
1.93458057139971
1.83782186320686
2.01335659806672
2.0133301429378
1.97640558103499
2.02573731727553
2.12463267544605
2.02039847123747
1.9843192641166
1.99105864446427
2.04700789633549
2.01654022334736
2.03361230328616
2.06643987088408
2.09261225635117
1.9077331153373
1.95154541551226
1.9245851947065
1.87039605169099
1.86038851842029
1.82522871625297
1.77984843994312
1.82960353052323
1.82411622034911
1.76579597338031
1.65058525178493
1.67289538056516
1.67432050153382
1.56101317157238
1.51538009496139
1.49376350964873
1.42556116366734
1.4175840036092
1.38486872903813
1.37190570183326
1.36390947801639
1.34545515445237
1.29975421209695
1.28451624942684
1.29179736005481
1.26428698191823
1.2335278121337
1.22346278231349
1.19463528432046
1.20797741368129
1.16213607168711
1.13752431607072
1.12757668364899
1.11032768881684
1.07590014576776
1.05447806240036
1.01876588058763
0.996390537681
0.955839886309317
0.925284979670372
0.889842732930725
0.850578743602112
0.823079853845398
0.795313517566288
0.751259279690945
0.718286576982857
0.689889744233857
0.649831665041452
0.6208450584828
0.595168152682177
0.566785568592289
0.541483085111626
0.516358167366806
0.503517154833659
0.48088704850297
0.465140069837045
0.45218771705318
0.435139239457539
0.421134224755846
0.411497887775628
0.400944135467402
0.391138078854994
0.387238644278952
0.381599066066523
0.373244898285698
0.374449081161866
0.370005283788393
0.364742356321867
0.364919468588227
0.365254751091846
0.361889057339355
0.367000035201896
0.366135971699294
0.365385909681029
0.370533497469099
0.369381361261261
0.373484739012538
0.380883706668217
0.376960509683926
0.379230332807257
0.380231785664053
0.379601881949575
0.37866284471191
0.381139634190041
0.380143317189005
0.375949457438222
0.375176982248623
0.373897652935473
0.369641580758197
0.375098982634452
0.372515121504376
0.368002309741699
0.367952983766348
0.367600956144542
0.371189940437092
0.374951731879193
0.374062846294236
0.377284649317166
0.375624416417399
0.379745870117923
0.382256426083363
0.385445908675978
0.384125664965244
0.389172252408976
0.382454416615791
0.388528589596867
0.394609234893136
0.389473145444626
0.397649099427245
0.402157301272128
0.394670771269141
0.395304866760244
0.392931238913452
0.393269977104213
0.396499009087958
0.395199228987722
0.397345475988551
0.404895831103471
0.399539716453238
0.391888057707115
0.403184139999778
0.405620532053208
0.406244375673065
0.41323976844612
0.414098127998278
0.426039670197204
0.434879658554005
0.44828843352372
0.453981118029694
0.46567820827163
0.478919070625983
0.482456264130825
0.494917761457668
0.50621870357657
0.514328689519025
0.513218688443529
0.511930053633533
0.512326108812271
0.499355810978257
0.497752042907611
0.493776278173143
0.492116002196339
0.476180810140297
0.469190286529411
0.465300505510952
0.455838272541111
0.452423904328139
0.451386209840248
0.457261688485526
0.4551073109005
0.444880004878662
0.448821585348523
0.452616265074249
0.453802062787812
0.453343734170746
0.453714603958161
0.443743619908112
0.447226420981596
0.447559480642437
0.444043804144441
0.43275487119567
0.437386165254599
0.433697790585727
0.426996135805225
0.426635330535649
0.417973204397834
0.419580585418501
0.420503023387009
0.415725358631786
0.414748780373732
0.409316042118101
0.417166734364186
0.421427182951957
0.415135964000793
0.398724526195742
0.39967296813057
0.406166394690401
0.404973776635726
0.403312369978294
0.39510277390757
0.399308555033322
0.394639336674231
0.389925485795507
0.39496688204717
0.38770462593655
0.39438317739756
0.391374362681785
0.385405524171885
0.381658382260476
0.379049097426295
0.381444476662726
0.379970174033085
0.380908409020186
0.378521686793445
0.369969401027061
0.367332690062934
0.362222370121915
0.363638564590113
0.355931105330216
0.365987546641714
0.360055970751755
0.364819708788231
0.364984771709497
0.35423916161271
0.357257647869944
0.361367124076437
0.367179962660979
0.373041761587349
0.359511891135184
0.358892973656738
0.366022111052553
0.36965485939888
0.368116797092346
0.363218610533727
0.358961380510977
0.366077954243142
0.377590427365814
0.379090356298179
0.365000772273896
0.371492337760633
0.385910997432022
0.386129821110186
0.381885686712913
0.395055996771464
0.383550168014196
0.384204489040501
0.403688218735408
0.399354069516474
0.403519943350258
0.412055945834289
0.418342190773601
0.422275192314539
0.437950538723173
0.429441096631378
0.446408161245137
0.441911117211863
0.441489021763171
0.464483443905725
0.470661072698004
0.483381268661956
0.486694307069411
0.522143471807291
0.541239775267736
0.541462994915242
0.553524935243476
0.570458234233615
0.592839613206782
0.592541282649959
0.604014465963782
0.61858798118549
0.61669820477635
0.623630614859258
0.654975180406179
0.621039581747255
0.603985529532071
0.614428030979533
0.643636002156112
0.623163630166186
0.613415059882228
0.625901736626802
0.608585322892784
0.632092566554886
0.620769363923452
0.619606342593376
0.601222338408622
0.628204024590435
0.623541319778413
0.596207792602781
0.623115595826657
0.625412872003301
0.610320404420348
0.6123940616508
0.625039931817157
0.591173629307491
0.602978467720256
0.598062859109466
0.597564140852994
0.606917098172659
0.583255643152364
0.555806657824043
0.563052429644648
0.573895382315796
0.571183143862655
0.558091457988609
0.590416173765012
0.566041497673263
0.551416281667705
0.545629893388795
0.579436493637687
0.586661119570227
0.572036138640051
0.576741142569067
0.581510158684256
0.553620282340484
0.561460317671873
0.605962765700521
0.583674102423323
0.524141693355889
0.570643976171522
0.576784231479168
0.575133890674496
0.605439593397898
0.603863352761501
0.617528078983309
0.62383878975049
0.566648697035603
0.570583647009507
0.608464974113855
0.56328027192193
0.570966825615146
0.589959887590685
0.581857851574949
0.616401368939062
0.58201653853628
0.580978119445666
0.635722358427827
0.666156705911521
0.674728667731965
0.650225784326674
0.666603041253698
0.654688165574495
0.661139369782499
0.654409228211225
0.67743689480253
0.682352453729334
0.660550944563612
0.712176916490601
0.683942770791574
0.717332442149069
0.771049135344593
0.757121195647046
0.738847622211508
0.851525943055428
0.826409840362686
0.788318839006738
0.828766561734505
0.873481132092143
0.790184056983137
0.77894273845025
0.733241709238856
0.735756924225653
0.809749892301829
0.74839254697627
0.779860451402005
0.815595670530536
0.740793223329471
0.664509798553764
0.751523099792442
0.849524901855311
0.740828359293409
0.725747086285333
0.735390983861389
0.731907551699548
0.710314329806297
0.828417782277908
0.800082715125035
0.764990770071179
0.678014979379533
0.747765724138862
0.751934761019034
0.833295551981255
0.742973893845618
0.839258141434728
0.746590513023396
0.721631028716078
0.723341632269341
0.629883281928072
0.668090711258153
0.744012846679929
0.762661598375408
0.804820720037182
0.699904002843032
0.757722558754874
0.889979393003023
0.766300132204363
0.744179780674873
0.755621934755824
0.529315241212921
0.669279572416545
0.904105313153625
5
1.07636823888187
0.755380987039222
0.640313460973917
0.862772596163171
0.926065604344279
0.797485832174003
0.817981079188466
0.998667757577762
2.21626769832063
0.840105794498806
5
1.22614459443978
0.670994876457749
0.50942161380806
0.645052312093673
1.04470514963735
