3596
4000.36533379555
650.420452594757
1
2
2
0.0902228199573553
0.0813155725312391
0.0780563033735425
0.0750993519939858
0.0795057106058181
0.0843777108870086
0.0812201553424019
0.0695788948061661
0.0837433311157276
0.0818058881258758
0.0792252753395731
0.0755556138740449
0.0732856245749511
0.0713955919613962
0.0841492044794012
0.0717021033286513
0.0744349955639996
0.0821437617021032
0.0790684844500823
0.0624786341111241
0.0759590689452074
0.0763087214546956
0.0787978036566575
0.0817188564255264
0.0807121728073636
0.0758796979058089
0.0806539387277394
0.0721947701544151
0.0732410060770934
0.0828195000876834
0.075805324773091
0.0671704529854628
0.0811861000229459
0.0802004522657715
0.083389305577108
0.0767133164577666
0.0776766794294455
0.0793095880335505
0.0767900644980595
0.0788863293200833
0.0890811703652657
0.0804982117722171
0.0892484754618277
0.0774611692805442
0.0790209778176106
0.0776738919877631
0.0735006835990651
0.0778304578334739
0.0800449367617195
0.0731196632773045
0.0796075522303092
0.0755756603320583
0.0914441696714912
0.0883530607548186
0.0778526669344517
0.0880933828147124
0.0874095879665983
0.0758220410165905
0.0789571723551222
0.0834948192376829
0.104522994783085
0.0972281179598298
0.07222109369365
0.0760904164427893
0.0745850566411325
0.0816438049956211
0.0727441489002395
0.0733830049297411
0.0715425029466083
0.0763165749587943
0.0785650768545109
0.092814122385257
0.102630426362469
0.0771924785000595
0.082004589860981
0.0801739504894002
0.0754207620771152
0.068878483291907
0.0697334038504852
0.0866541670898976
0.0924137427942986
0.0754013635553198
0.0788071776797699
0.0677596588741618
0.0791261823177741
0.0925964543500663
0.073626081711867
0.0808240315457903
0.105623330709156
0.0858964780576278
0.0714168521789633
0.0729052452789087
0.0759658341531501
0.0679772127399325
0.0756056887457325
0.075275000303011
0.0704966248915409
0.0712684463553576
0.0774543121180023
0.0830580192670249
0.0934333947785502
0.0772168012183079
0.121866871750091
0.0775343218882028
0.128858995598108
0.0967752932443298
0.0722123688691922
0.122558067261279
0.0846336082043957
0.0805583738732633
0.0728182646426933
0.0761398316156218
0.0746185243700986
0.0828514871177917
0.0752860859082512
0.101978321231796
0.107947539232586
0.0738607279011486
0.0807842657666757
0.0769824217219308
0.0719488567777881
0.105430780133333
0.114035255794908
0.0756671486121003
0.0915441924892738
0.0675133499717025
0.0838941152362857
0.112373618154677
0.103998180947061
0.0723498991454394
0.0759985687782322
0.0675713989026165
0.0686179670134521
0.0696956952672788
0.122898627971782
0.0744001301422842
0.0740061288333114
0.0698014312618694
0.103308116327314
0.133042886518715
0.0891156401483022
0.0708036675825976
0.0699589032551575
0.078511529029302
0.127726303534873
0.0856030706455905
0.0758385073379276
0.0881602691222335
0.0936117784347914
0.0693729027526103
0.0722969739479502
0.0685043719877635
0.0902924249242915
0.0787212201743764
0.0620925546228131
0.119223682004044
0.163254006295071
0.0869281957108909
0.136759717411461
0.077038404585857
0.0882055465020046
0.0648600824934504
0.0700260870123717
0.0697707060308447
0.0762909056534563
0.0676137895713338
0.0816250278819184
0.102400143202822
0.0796658953004411
0.0809649071464909
0.112387446715326
0.0916769980829529
0.0867178134554709
0.131323580768875
0.0905288603488653
0.0677964943729472
0.110672142267766
0.0825095919857919
0.075476263946736
0.0846045238209071
0.115866095826445
0.065103186062718
0.069913336663639
0.0640105308154003
0.0768906999907758
0.0845408035611167
0.0809262291618812
0.0715313242421148
0.0828187563793608
0.0639067343746167
0.0996997708524707
0.129229048540547
0.11284676232481
0.0731909593597849
0.076649205156988
0.0506612059867345
0.122317067055219
0.115900915023197
0.0818201146614596
0.0706905572734488
0.0665095959921617
0.0634182038559629
0.0702035303340212
0.064822558933727
0.0669996494782799
0.0571503905264415
0.120920185023995
0.0841111562258403
0.0688202180511905
0.0697960789085524
0.0796446421557779
0.0784419977589411
0.130333012514858
0.107630722508197
0.0781818099030385
0.0743470147988129
0.0733943838295351
0.0970515804427319
0.0927223964120441
0.071900495968394
0.0793510077945016
0.0695140390810436
0.0756138827218099
0.064689559833671
0.0669816869362916
0.0702136177572182
0.0698739515480594
0.0615404425690217
0.0674542728466171
0.0686271496766356
0.0831326589372436
0.071840699036492
0.0750861812092838
0.0713502046803967
0.0646771182986915
0.0836767633943369
0.0944225994124476
0.0663533390425181
0.0748034755222069
0.0685398124655883
0.0730937814091788
0.0632761104867471
0.071335036350179
0.0686712364193304
0.0716914115324391
0.0634168054137431
0.113213547844747
0.0830333668218382
0.0706855382447434
0.0679611546578842
0.101032556066141
0.0877411741253958
0.0721651909248704
0.0717053117660785
0.074492272751515
0.0648088574969833
0.0800923582153306
0.108568832920084
0.0861837189668105
0.0716295877771997
0.0890511511761197
0.0772044035600163
0.0689010204990201
0.0735195027481475
0.0777116318060989
0.141340434003071
0.0984130627316405
0.0892602451649792
0.146579581376152
0.094005768427472
0.0856116586534224
0.0772190765264462
0.0715868879809878
0.182516027022277
0.134653403199011
0.0762788849454574
0.0871586494991831
0.0878541399933837
0.0760232535391545
0.0789157859436763
0.0896062972873038
0.0891951107989856
0.121742743336061
0.140942556964222
0.136332185766094
0.0717019969724561
0.117770083783525
0.110872436427258
0.0796739237515828
0.0729493430114932
0.0733186900625706
0.0754181524454325
0.0995511227734794
0.104234775018676
0.0959743381947736
0.0815843697587581
0.0828609552159823
0.1086604993923
0.0915755983712916
0.0766222454425885
0.09458207950878
0.0860740706878298
0.0745435307014138
0.0817782460962726
0.0848903744455636
0.0868691066690012
0.0828618705564418
0.0826437452813955
0.135291522991008
0.0974841859218081
0.0941609074733087
0.115205064017669
0.0921363435820797
0.0801975081341378
0.0803379270742412
0.0799311582667976
0.0823206394129556
0.0697182015588624
0.0854758384188688
0.113914685858843
0.0928953236671084
0.0783944658527763
0.0843474475117184
0.0721816430581358
0.0787515439328939
0.0827036206916628
0.0881291726826139
0.0807360441195202
0.0804169861622062
0.0753204776569924
0.116109445243992
0.110879364663381
0.0817043578509404
0.126485977064188
0.132345237445725
0.0820321224245439
0.0890787889314395
0.0822869095187241
0.0889189915104959
0.0786152070919003
0.0901030491736084
0.0870319830228449
0.0963763711561236
0.107222804241824
0.106647720585598
0.0921428106624948
0.105558322691803
0.152160332052436
0.161202637036018
0.11461493858696
0.102642574007426
0.0852611645411211
0.133432082136578
0.136632588768319
0.130981497930411
0.129640540664978
0.102698727136654
0.103510261098611
0.102757609235107
0.0988917899227454
0.102668492291594
0.104986955731532
0.111934856627735
0.107479080142863
0.109963002462933
0.108097611793247
0.101524869271472
0.113375615974441
0.152863394303112
0.121508422441759
0.116838803932002
0.114193039470119
0.114311599042014
0.140564445941231
0.158734314742909
0.165954003115849
0.173608872989658
0.167406329017796
0.181187615027156
0.132640346513313
0.131169852942967
0.12698025337447
0.138149382331345
0.131978717277257
0.13636864459663
0.125555594033984
0.138616919918083
0.140114086773815
0.138085284767545
0.136950435764261
0.143945586087335
0.143682168365611
0.164800650414936
0.145907452436435
0.151949330372453
0.145260301668278
0.18279829805223
0.234566973334314
0.216649796654643
0.169875108998761
0.171853883616169
0.15665486542843
0.169088731354247
0.166536226405358
0.167581809236171
0.173705353341326
0.191201034477835
0.214175479919803
0.210625627885711
0.208910936612521
0.197219705653826
0.178823253155497
0.212614387351728
0.206154884915245
0.213614660033507
0.224725128322172
0.211166868508055
0.183399260409378
0.237640820727517
0.216604775405247
0.223284900063823
0.225405628724889
0.220578114061228
0.206784278153695
0.210618871842018
0.210977617761764
0.228381348923031
0.232728842746473
0.240654000841621
0.226118541049164
0.244364276465491
0.232860910792424
0.248859148335107
0.262240737887446
0.244921797436914
0.243153328879665
0.255948498048276
0.248491725030789
0.256266776082697
0.253760957006394
0.303478638499073
0.278802304843971
0.30994614535333
0.295040145254194
0.279881274455027
0.274389668222318
0.286438418024755
0.273476807506509
0.283588637845367
0.279678101705411
0.30221128807117
0.288720519318375
0.324676059300686
0.304453980723889
0.301392695959428
0.316255724178721
0.313576706699343
0.311765441025541
0.323068393805812
0.319168895739388
0.33026276396667
0.320212887772481
0.392255113347158
0.364291057284004
0.390471131389046
0.366536584958412
0.350877243480518
0.359851217471092
0.375705196891376
0.353912441859695
0.371431954883308
0.377810483815581
0.361892402505447
0.353479249548932
0.389087731705554
0.363829133040283
0.386722553837937
0.380023064672672
0.404427249860235
0.389398321425283
0.411668989315476
0.398051952199286
0.410443290306909
0.413068532468558
0.438567394596852
0.416353768098885
0.436365794220368
0.446641985320788
0.451808048391692
0.445850371612844
0.469466032559512
0.435897510792979
0.449757955500028
0.455821734164864
0.463039831163764
0.454291506970817
0.476850640004676
0.47310588114426
0.504487475381839
0.476556898164995
0.491511487014722
0.474114851297571
0.500492460933559
0.503636940740779
0.518541351124681
0.505405671908697
0.539354792987124
0.523594040030399
0.548109798417138
0.504098004945693
0.530041306783076
0.555876172853057
0.563424888124235
0.542376948695901
0.577170281062236
0.525893485250701
0.556106727018671
0.566414764731806
0.56744211679911
0.526593628536542
0.582754295583382
0.567434836453774
0.570204976745233
0.565267452035508
0.620247622217077
0.613948976476531
0.640691302564686
0.602424824695693
0.596881036088279
0.599051713116609
0.676003678057046
0.613837410862278
0.652240752093633
0.633754636331722
0.631670486008174
0.643958753559304
0.66840758585158
0.634901643643025
0.669672846983611
0.66160543786565
0.673609379291512
0.674132070619766
0.707010846816294
0.659468076969763
0.710552528166467
0.687027845096111
0.709411488369673
0.704168617105674
0.711552161337539
0.709622260765254
0.757314956557153
0.738442041381755
0.75742381281544
0.693749360306192
0.759346092543722
0.733252951732656
0.773781122293985
0.7458817894957
0.751813009461039
0.751223868724793
0.82655281205806
0.752989488108056
0.785826364558809
0.752267877219308
0.797913705305708
0.765573016718782
0.793425832170697
0.770069869941706
0.811090505299733
0.769212938865936
0.821805486410936
0.790990322390346
0.83487871651615
0.797619829069862
0.834041889107806
0.833554891311097
0.85269223664891
0.846841759769301
0.870865571479585
0.840106413668402
0.886017378897259
0.861715512182291
0.86607416210794
0.86716362176531
0.893763137090671
0.822909257679718
0.910436675867701
0.889040851009762
0.973152264378731
0.92896144557608
0.921170575568498
0.839472076280441
0.9668732028217
0.929192501153111
0.929603254458114
0.924728643581746
0.930018780055393
0.868319229314318
0.93297252260868
0.974495155591671
0.998959911647619
0.911254130855915
0.985619957959722
0.931907444351437
0.987145928984026
0.917187445621596
0.968781485893224
0.973526605709472
0.987495416356692
0.941513610745933
1.00860248360318
1.01140403863276
1.06853547592975
0.990029062471191
1.03252499845882
0.945719657013964
1.06807013834574
0.997752947802431
1.09379293973932
0.979507748831559
1.07870233225222
0.978285022709705
1.10386560285137
1.00335865874289
1.06194416886494
1.00272305401649
1.04487940072821
0.973423966110976
1.11305723007751
1.02309252297808
1.16394628893969
1.0469701736077
1.01299406469868
1.03739264173608
1.13222120292201
1.0670926953313
1.10087435269776
1.12261084697476
1.11050556613608
1.06510549362602
1.09483903119618
1.11015614440363
1.17237716534767
1.07458102027293
1.14033655025926
1.06254170935886
1.23274642510533
1.0115757106253
1.10545709935233
1.09471956699568
1.19970435812926
1.12943949310531
1.15826057692588
1.12885854919835
1.17700157285718
1.14192656232678
1.17249646741433
1.07812026034708
1.22238511377088
1.15694018772005
1.26761683523875
1.13381810202841
1.22423493961217
1.13450823225856
1.16833613159285
1.15356491762086
1.1357989536575
1.08528281099723
1.23432584203792
1.14751051237044
1.21726338274681
1.21133471339382
1.23543899171577
1.12596619622155
1.1973866733502
1.15940022733264
1.26508622623631
1.17622393315703
1.35476900271873
1.12771552951946
1.1519688916114
1.2175740171703
1.277234859828
1.15521748317384
1.27096455961635
1.21068392678583
1.33722853874202
1.31278584823513
1.27564148059877
1.21777637712423
1.25755110150757
1.24738281423428
1.28854051284071
1.23440475664692
1.33581551119916
1.1341926377254
1.17697438334681
1.2534270963536
1.31058022727603
1.14489345693325
1.36301456101111
1.19011043446059
1.26201648645181
1.19469944098363
1.19269047777838
1.19617056315962
1.24549341231325
1.25466121598911
1.29963297354094
1.23422371042794
1.16997752670064
1.18774144523936
1.30323850661171
1.20904826523676
1.31056732133192
1.2097042401348
1.23245628860916
1.24586465451455
1.30188063919853
1.26234186556228
1.33922270498612
1.20281095864349
1.31485284079011
1.21900157879536
1.26293680443269
1.27097848734154
1.26649019109526
1.25307396292143
1.42611378139097
1.24380133650989
1.36566953918039
1.16702146650425
1.31618565712332
1.26391117148999
1.24896948370907
1.2490028262656
1.31431617200249
1.23094331826261
1.22204315854831
1.16535467002067
1.3533121618604
1.22230852556173
1.22390474296801
1.19140584282064
1.3208470422004
1.21385728320976
1.30559248702324
1.18923762120296
1.24702976857804
1.22276436763196
1.26246558837777
1.20250381062442
1.213140740516
1.16082174307852
1.2148595695925
1.20210160774858
1.20983158004991
1.24754176836477
1.29143109378968
1.19853201231978
1.31402141520201
1.20950989752436
1.32544121399658
1.21944520606898
1.29975951294351
1.26540616982876
1.25152417978506
1.13491127453229
1.27747432676721
1.21582429405393
1.29729037420912
1.25376253528089
1.21835797311458
1.25534718779889
1.27441232468691
1.25189899480912
1.25916405464237
1.18728360615926
1.2516237701101
1.15694390788252
1.27808474986105
1.17863389263086
1.23391181276414
1.21917189233549
1.23994311886515
1.21507035411209
1.30726894108537
1.22890370268859
1.22603084129663
1.18670912304892
1.19891925638453
1.20310114568724
1.25665787381735
1.16083663671527
1.21718458993452
1.20590471138458
1.19335412034922
1.15223035817957
1.20921068821924
1.1753082832378
1.24786973906173
1.1340865141094
1.23020974094615
1.13936717794733
1.16559406986544
1.13931204615578
1.16416563597143
1.12105063936329
1.19363554454519
1.20666675339297
1.22519527401019
1.1614646840014
1.20393885293368
1.16884019679535
1.16960890978618
1.07929568622352
1.13372832473153
1.15184972114944
1.13524823224207
1.12813921707613
1.11755005542142
1.10108746524589
1.11328896460713
1.11719487741317
1.14074307378252
1.11815782068076
1.10433632593759
1.12682428208627
1.15059388787377
1.06375193073236
1.13010448090872
1.11111844910675
1.06613220585728
1.07110483406666
1.14748320400703
1.05775828323224
1.11629911854366
1.075649794774
1.13777736323526
1.0878515057307
1.10004793215932
1.08767132084814
1.06472179135112
1.02341230295001
1.07158311245706
1.04609715281795
1.09571156255321
1.03151602306301
1.08316146707748
1.00645418849573
1.06621294220649
1.01844897438548
1.02130850652714
1.03783246726048
1.03454657463517
1.00386470159333
1.01150923330577
0.963362048522309
1.04175786928625
0.983435125133775
1.02388306766065
0.985339713237486
1.01707101400619
0.970732365323251
0.980030742582236
0.959136441685355
0.971582701957778
0.948640365982828
0.96918749964792
0.922021455052775
0.969547050089719
0.927213436933522
0.990790060135657
0.931810989438432
0.969076711012308
0.918110877028463
0.9494089156734
0.902327679213167
0.940586010217173
0.898829295113487
0.931792773825075
0.898094600921076
0.926949567598586
0.888268526635169
0.936104241462917
0.889475210529615
0.898855301892931
0.887227556807758
0.916608680192732
0.871265121506724
0.902009866594287
0.850810080674804
0.878726984525522
0.858862050795743
0.885235338715782
0.839889448230511
0.863194339335789
0.834222492641986
0.831628286955639
0.826688635029164
0.825235959348703
0.809237289007934
0.837017233399578
0.82249087108616
0.806137027373649
0.798809441523562
0.805765360640717
0.790179295895475
0.801047787465888
0.779166648731838
0.797716526944475
0.776910845856431
0.799231703444488
0.762155513027803
0.789597991978821
0.753147324263362
0.771548389103494
0.744124695535384
0.773029900039581
0.740483223295074
0.756264335306669
0.72394015780788
0.735900874723016
0.719426030361263
0.746821604940892
0.732885481818311
0.735072322090567
0.713212256653983
0.72524141279303
0.704284269824562
0.712691020262175
0.694530937160556
0.706992709878872
0.684275366390633
0.686483937498961
0.681670742804421
0.688119287091137
0.6623320546568
0.696330311038928
0.664336457895733
0.681019267967185
0.642065283871849
0.660181773985949
0.643714042943851
0.658661228745379
0.636308582326984
0.652514488549493
0.626656976220535
0.64888626966647
0.61980013927092
0.640200739787703
0.617643873945629
0.634638321824015
0.610938733525157
0.625397456087289
0.609792695790282
0.610213963194318
0.587347495081315
0.612821035720895
0.598225759197039
0.608041572535414
0.584779600193542
0.606794492290869
0.588904067472716
0.591870911748065
0.57892441313948
0.583988893003186
0.559168400783134
0.575581148092074
0.55757526677852
0.564110208822959
0.560846195381285
0.55280489148774
0.542685590078123
0.554061700733733
0.537731425310108
0.543964521040782
0.535749795532952
0.542812383223683
0.518725140827552
0.529610565349099
0.517653697252999
0.530601706449406
0.518258640051126
0.533297152733712
0.515180405843731
0.51582293221812
0.5175678415615
0.520854247350056
0.50198935377158
0.519174799135354
0.495760482757539
0.503640913930142
0.494117992485178
0.503885322536214
0.481405495994369
0.486788814792716
0.478590228183751
0.480382942710548
0.475143389393172
0.483268223963905
0.473953958778327
0.470655202974825
0.459011108870138
0.469917517914229
0.452068775455437
0.466160187563968
0.454702770377534
0.45404579588429
0.441402657952258
0.453323646163631
0.440755487541783
0.449352601646138
0.436848360178873
0.444839807828024
0.435160418743235
0.441145025031987
0.435465833520034
0.437183763662296
0.423640377163341
0.430433236335943
0.425108103710849
0.423996964252009
0.411956551092789
0.420197454003395
0.411149945311473
0.428754951508926
0.406044689322693
0.415914867800065
0.403791156419643
0.407537505074084
0.401173558532438
0.404183688878457
0.400624538407493
0.39488630103285
0.382193063498451
0.38883349738176
0.387310505576534
0.397983198191492
0.381533443830553
0.383436759680716
0.374570829627524
0.382417840919885
0.369780616443595
0.384716306520341
0.36492552265935
0.372876098496215
0.362244476038477
0.372544190975929
0.361964443163451
0.368404454695096
0.363087075420698
0.36413467150661
0.356281588018158
0.351552470163208
0.357284386251001
0.364238212192472
0.34796687701702
0.361422282534682
0.346738712204428
0.358616858564884
0.351597492773411
0.355752629636531
0.346913295067934
0.351536318621886
0.343819709020132
0.345119793508816
0.339624594345463
0.345057421860549
0.344905994303307
0.34658046162705
0.341245979799056
0.341697466405579
0.340210358075342
0.339723539299406
0.336167953289684
0.34399065452972
0.335984292491937
0.342357520879161
0.340976040991497
0.339091753943297
0.342475128618102
0.344027531414485
0.342666572174594
0.348091178904844
0.341782720012408
0.353029846222881
0.347012489426917
0.350541056233524
0.345308113004754
0.352314481051771
0.35085590215664
0.362542503131774
0.353328965557635
0.362814302815775
0.352389015887269
0.361074323915439
0.354335838235829
0.365312880776841
0.358168231315334
0.372256165910716
0.367466381037137
0.371613700268402
0.371761403248798
0.370812162954468
0.373029508594989
0.379097571297604
0.369818983218748
0.385118732390398
0.384425746559728
0.387223072659691
0.382059859550647
0.390909110355458
0.385562908942883
0.390875806184259
0.395101833226395
0.396338539393693
0.398744490088028
0.406698398763768
0.400596563481165
0.414005273102576
0.410810506600264
0.418366146308244
0.406958720936206
0.421464022368519
0.419614465180595
0.434161032884953
0.424136438110061
0.437501687349424
0.432491992006844
0.449099258754205
0.451491365318996
0.450989763620768
0.448032216388399
0.467509410384176
0.466300783701273
0.471053937361763
0.472118026170087
0.480354474077
0.472149052445629
0.487960388618477
0.478336170981053
0.490095928661893
0.482899648659181
0.497294410265596
0.486078726540706
0.502491830135927
0.500624343195878
0.501295797262152
0.492732298932305
0.504999322806465
0.492859028210961
0.502162935446568
0.505341463901534
0.510430618135062
0.490877321426087
0.505940140847913
0.491045279943962
0.504915508682075
0.493976947200846
0.492633776940069
0.48423363875953
0.487866089601474
0.48675102878044
0.493914695616709
0.486543927771202
0.487785139559939
0.480337924958902
0.484427832938019
0.478261674821729
0.488578006154583
0.482540152330381
0.486846096718391
0.473984107956167
0.482199838061332
0.471031847236373
0.478551875527792
0.47668993823579
0.493516355231116
0.480934801763418
0.480824044226462
0.475988594717196
0.48389698288449
0.471163803632899
0.487258509279725
0.464766292755873
0.481201787894769
0.477099186626119
0.485190136971847
0.479713216635926
0.476271751347143
0.475160351185851
0.480814321825356
0.467678178027301
0.484022758443021
0.476929288667512
0.475113198127431
0.47576711844826
0.475615653538063
0.465588284297248
0.474949981279017
0.461220303789651
0.476564692633592
0.45413329435953
0.461494435245185
0.46053590278065
0.464454472162265
0.452886359042323
0.456073919243252
0.446612108484689
0.443218155511559
0.437007801575627
0.456157922275015
0.431140936948548
0.439564495469295
0.432950432402655
0.431511800569169
0.426873685932048
0.430415965993225
0.419635755326367
0.418974684143581
0.407635252316428
0.40885959450892
0.415127231128049
0.4090593394558
0.394081631634564
0.407372494880464
0.388655755803277
0.395084685323409
0.386770583120488
0.37811479256159
0.373113937991127
0.374244977543967
0.366421299263687
0.371178063224346
0.359595291306549
0.364310799090279
0.360514614558241
0.364109600535943
0.354636542651042
0.362538839679165
0.351640602770166
0.351089302303662
0.344092454337829
0.348843436040502
0.339869025122564
0.338795878450213
0.333458573358996
0.336258096386282
0.332883951898708
0.329715646543259
0.325971372711087
0.326927405723961
0.320751458111035
0.323583560279839
0.31430406302769
0.318638619830273
0.311368126920981
0.317808309744898
0.311804469955358
0.308875343105822
0.308711835012137
0.314058626086816
0.307414664211759
0.309157481752808
0.296066766122728
0.304687254824321
0.296753943970473
0.301699353770748
0.291333939949894
0.301253095600045
0.29828097265305
0.295616464096298
0.288240668652212
0.285977397548386
0.284415803395036
0.284948350051299
0.278987960369661
0.285192352599132
0.280077258112696
0.276936128987699
0.272662645497886
0.277730778798182
0.274083730297672
0.273675568715205
0.27414306653086
0.267931776967244
0.268082885351045
0.268028591443192
0.265327816690182
0.265835297310513
0.263679872413352
0.26521825151752
0.262949081001654
0.265269115881686
0.258892111643709
0.2599471183105
0.254907230415716
0.259612222860025
0.254918721106505
0.261380531040171
0.252598255894294
0.253618874388275
0.249254372181108
0.25114204697014
0.251071075955187
0.251338998387866
0.245566239421039
0.249071908946169
0.246789582195652
0.252034314804895
0.242671949260947
0.244584018764165
0.240925881544097
0.242338294159595
0.242634486331785
0.246165673167919
0.243535440953315
0.240691033599405
0.239181408940047
0.24262992822974
0.230647628106075
0.238929741437663
0.242086129925215
0.239360333401909
0.23554484721994
0.235837440779817
0.230198677963656
0.233480346248334
0.23381734880363
0.233485784131679
0.228903229738999
0.229928518447155
0.229676492358971
0.233478294056123
0.232803850208304
0.234197331424881
0.225513477545883
0.229927494260144
0.224021116737825
0.223867626004143
0.223122146526173
0.223698859094114
0.221799468093977
0.226422336397437
0.213816752558963
0.221512630672889
0.221561762037118
0.224608052999389
0.217065967490056
0.218362130091011
0.215900335257602
0.219967843792449
0.221418578260209
0.221829372984583
0.21456340098591
0.214317629251594
0.217341534474854
0.221081003620943
0.213487025730275
0.21732427699793
0.214830438788545
0.218490000848367
0.21340274226877
0.212788754955416
0.21199109874086
0.210817234030305
0.213066823418709
0.215106143812035
0.211565170115248
0.215186791599683
0.212751130990382
0.213802473757794
0.210283048499541
0.211830630203556
0.215206028807424
0.211042550032695
0.203826262662743
0.211345633618842
0.210019828344539
0.209587233957513
0.2056653972964
0.207606249050612
0.205850282157699
0.206082606189777
0.204099269614931
0.206922338824039
0.204339040615067
0.20746159893175
0.203157723785389
0.202800176750836
0.20260157697858
0.203820048654768
0.201226733593121
0.200848061720374
0.198443780506655
0.199281035755846
0.197282811026824
0.200991385694571
0.192543338320734
0.197465702907469
0.196260359462846
0.197282462583528
0.192177768574542
0.193148120230343
0.194345123980349
0.197691434314077
0.189871479309801
0.190993511930401
0.189308188056989
0.191827367893487
0.184421553080359
0.191979012286022
0.184247770455464
0.186479711281586
0.184502289487967
0.186707133623087
0.187388202812827
0.184838096673816
0.184930228163935
0.186542748947451
0.181588090522143
0.185123200984054
0.17901678186364
0.18291868599664
0.179482514887579
0.18282642367081
0.186437897688979
0.180384918071278
0.182739104221542
0.184083747806947
0.17517379929559
0.177320855009358
0.177491508956676
0.179735965370139
0.177144882008531
0.17827521659107
0.17340201102112
0.17509709728802
0.173134853055682
0.172764199750141
0.170919691861964
0.173483904497262
0.172521113200691
0.171778102149211
0.170088059306786
0.170612703596622
0.167613222427067
0.166749679497157
0.163166290427224
0.168119909129324
0.164773487119472
0.164090562058884
0.162963532596323
0.16166111637022
0.162044672735666
0.16206811553007
0.160672834153383
0.16179519711954
0.158393054309874
0.158818331562663
0.153110910382064
0.15820129781591
0.158983387472045
0.158069414922637
0.155643926945106
0.155143320372332
0.152617178090526
0.152736142190682
0.148548914621763
0.152460349261789
0.152007613662381
0.147865925243957
0.146927117224261
0.148312709480399
0.147266162175329
0.14816723660586
0.14606292386506
0.144117149423703
0.145088414102233
0.145325511585252
0.143353116785265
0.143723195038733
0.145343605080033
0.144486446768448
0.140692233804277
0.145041016765092
0.142507477277353
0.141407342111467
0.141167634102525
0.140250878854701
0.14147093264312
0.141528087548225
0.137559465392825
0.137122955659224
0.137755594513292
0.140836284273503
0.138256134224866
0.139687112540027
0.138944164763985
0.134342950835129
0.132950696090212
0.135710549850948
0.135467082273
0.133773833615583
0.132585478965641
0.134126307987163
0.131799859779865
0.13385144461795
0.131907892217246
0.131748466455418
0.130996182467297
0.13108362465007
0.130346974214546
0.128721016368565
0.129854004385527
0.132958983205065
0.129497538330895
0.129028938905303
0.124564394344855
0.12410350054001
0.125435113128074
0.127508325931604
0.128496961177475
0.127331655384267
0.122910399702755
0.123627286735745
0.126298904906464
0.128452570013008
0.124777243237087
0.126965097684885
0.124356267827853
0.125632113555204
0.122526470550356
0.123941940848977
0.122141384520424
0.121636557011913
0.122373614364487
0.124111876116731
0.122093339652592
0.123133519689199
0.119809891452431
0.120462578771399
0.118615891049069
0.118969797125164
0.121214136433254
0.121532524161893
0.118331583678147
0.120752728816571
0.121145425108614
0.11823486344232
0.121011211723047
0.119480020479152
0.116185061614576
0.1200387360492
0.11643106592473
0.117103475063601
0.11771826883713
0.11841645577144
0.118975665966857
0.117573024243604
0.117659529206099
0.11823713324842
0.114898712552598
0.11631523616004
0.117434613641975
0.11747716058901
0.112326102272389
0.117699388547128
0.116979462637487
0.115405797161239
0.115591245625735
0.114507389189096
0.115178837928933
0.112094316391687
0.112836685847893
0.115732613342963
0.11230833733504
0.1121782455417
0.113739503012056
0.11160112294832
0.109589008042931
0.108994535403898
0.109497108947451
0.108673788439169
0.109230443367891
0.110404291976327
0.109738089083259
0.110150999341827
0.108681578540582
0.109525098103546
0.109221222457298
0.106447859738682
0.105203080024384
0.106654815568366
0.106789834812834
0.108574835469801
0.106710847581227
0.106912064086779
0.10662999688967
0.10903635470062
0.107586607668279
0.105787405056614
0.106585192499952
0.103297200613583
0.103683169195997
0.103667614051903
0.105407166525031
0.106452823165133
0.105675385746045
0.106893421213909
0.105524853375762
0.104178707065975
0.104336826134088
0.105590781915375
0.107421177492013
0.106338468714246
0.102918373118701
0.10202776523765
0.103409741059434
0.101541346749891
0.101832386107898
0.102652753716573
0.100743139852683
0.103024968470191
0.101554624027775
0.104513320625251
0.102185970781871
0.0994912179954054
0.0998491932180635
0.100592444173057
0.0991990557926822
0.100130178585437
0.0985599335304903
0.0992641141930086
0.0994437259465247
0.100006215097545
0.0987335422293498
0.0978861007029191
0.0969808934359005
0.0948886937156651
0.0957230296274055
0.0974857138582309
0.095188984150972
0.0948539903788591
0.0960691895679263
0.0954048557465105
0.0933525737948383
0.0940401487586893
0.0936408497803646
0.0908866812148218
0.0928473729585993
0.0900432439348627
0.0901588762570768
0.0920582441029822
0.0925437145076509
0.0926016133985235
0.090592870905194
0.089582800964791
0.0903905058514696
0.0890260755466385
0.0882019774386417
0.0902748375355
0.0880107479453638
0.0880125056279535
0.0882909240462307
0.0873256489556711
0.0851236890649748
0.086197779630361
0.0874719182986873
0.0872642462793241
0.0864456457458391
0.0860340046771117
0.0850330388725872
0.0857012732800167
0.0863022969431591
0.0872758887720398
0.0835078465059849
0.0828963858527929
0.0848552973147353
0.084337778421761
0.0846702833263055
0.0843134284393316
0.0820891877572605
0.0819779263639447
0.0815244443823589
0.0821452648377504
0.0807809039536104
0.0833921082251672
0.0815869690907316
0.0810437023275288
0.0812245500624893
0.0809724968438986
0.0810566610138774
0.0804781399011997
0.0789688662633377
0.0809372652668141
0.0792079753717261
0.0783446233522185
0.079928037066184
0.0790300692617505
0.0778727244253504
0.0775726019252238
0.0788195577400309
0.0772851041928133
0.0773591039892014
0.076840422246056
0.0767119778855782
0.076498788314795
0.0755991419363955
0.0783014422568383
0.0781115035491726
0.0738183721679863
0.0749267738321051
0.0754125751173249
0.0742002337443835
0.072960961847863
0.070883504381936
0.070836222855356
0.0736278641702275
0.0749064158785342
0.072857035759287
0.0721667896435172
0.0728643325608319
0.0733018738815166
0.074631114276626
0.0725299987635341
0.0717877614623694
0.0728269870179379
0.0721059386577576
0.0711228960691485
0.0728495431633763
0.0729325345957244
0.0714791398934336
0.0732143495875758
0.0742135294584756
0.0748490690876146
0.0738562725170913
0.075496775216474
0.0732485053483683
0.0728297797840352
0.0741733006825982
0.0721418689599108
0.0715730458919134
0.0742856299371488
0.0739253702571064
0.0691452444045914
0.0656980535511422
0.0636207123842426
0.0630799515134207
0.0648870643089811
0.0686369074674523
0.0693037775758291
0.0640262959347843
0.0625507692610871
0.0601147170495949
0.0635930726389763
0.0641927790251367
0.0607650884447008
0.0623338055600621
0.0581900624442128
0.057753536472834
0.0592972981993281
0.0612513614316457
0.0621697967127625
0.0580293597535947
0.0625624626702399
0.0600063515737136
0.0625583214890872
0.0666871906608231
0.0669218216788697
0.0655368109900105
0.0659947520090391
0.06501764373602
0.0637789134902466
0.0650562321999593
0.06395539761101
0.0626038230247959
0.0615593308451245
0.0567122360194929
0.0584961859932478
0.0612080858774862
0.0643035301075428
0.0588196712699178
0.0579987561039389
0.0520513560061849
0.055928183103303
0.054897171338259
0.0614186040568466
0.0637172870141034
0.0658226505154937
0.0598155392730007
0.0627316571450571
0.0610753747088663
0.061669702973589
0.0667385664413515
0.0669368672000609
0.058203200220848
0.0628997196562092
0.0693605498764457
0.0677117692363514
0.0618107909600784
0.060464731265785
0.070388163612215
0.0689613797641308
0.0636697243482723
0.0639198137741932
0.0698723350357049
0.0621268885310359
0.0674542416050429
0.0684146148887959
0.0676208689569026
0.0630557150269141
0.06814253555022
0.0643959477328127
0.0681436806852811
0.0640900269253028
0.0670244793781223
0.0623879813060158
0.0654909935946835
0.0620299567022183
0.0651111562552869
0.0648622574529797
0.0638031034124535
0.0630283272986119
0.0637903104077941
0.0616366925675722
0.0627849490523
0.0613744238201173
0.0635000599575513
0.0610639290365953
0.0631521964885584
0.0607091405334359
0.0622370679126818
0.0608588595810317
0.0609400085968778
0.060189540939593
0.0595181839535667
0.0585689296297651
0.0623440281920468
0.0616765161629447
0.0612330557513855
0.0582136752167213
0.0616783921017217
0.0596068976008704
0.0628321468892565
0.0627096391613819
0.0624381637082148
0.0630560576253868
0.0637154031950499
0.0587360751532741
0.0608884121093436
0.0612310338831513
0.0609032344225313
0.0603345606052948
0.0631444083672146
0.0599857639798259
0.0618256726576587
0.0606633306326341
0.0625105827288557
0.0615421549111344
0.0622221545854578
0.0618250010538005
0.0614233902883418
0.0613446799525621
0.0627802579506086
0.0590819803909546
0.0631418828586226
0.0602957658401035
0.0634286436320859
0.0638059423796398
0.0628379994780534
0.0596932905655416
0.0608536512522349
0.0608032007580286
0.0630243092735314
0.0605153591862651
0.0629857155537268
0.0625191946438809
0.0630162710914254
0.0598628093621399
0.0618818257688804
0.0609047478444867
0.0621904044244791
0.0615698763173525
0.062132101817269
0.0612362042362084
0.0611409494174979
0.0608119579460656
0.0635628043230431
0.0608443983341822
0.0625592532273127
0.0621821285881859
0.0609444676033132
0.0591242424612423
0.0639707590855786
0.0627558347397924
0.0626771181289439
0.0605680354109213
0.0614965161270188
0.0602407871315935
0.0624142145023451
0.0638768356069724
0.0624052688931781
0.0587216656765194
0.0616496005448777
0.0604297616905312
0.0629690994416704
0.0612857516910028
0.0620465932869263
0.0633236637461376
0.0650112941621705
0.0608954793150429
0.0642100494469595
0.0638116206813219
0.0629429069097744
0.0629789495495006
0.0640294272808342
0.0609550711128389
0.0627877731095254
0.0624053977658631
0.0642032043348642
0.0625863744837423
0.0646110959833382
0.0627853697796797
0.0645662640131127
0.0638666592918943
0.065872848776258
0.0640854700364715
0.0635294241590728
0.0652350621122894
0.0648943569440196
0.0628211534895252
0.0671254585714039
0.0633819683821541
0.0652342562491515
0.0640833154691708
0.065412331654566
0.0642871032027385
0.0648288723982223
0.0637747299398317
0.0643052237330095
0.0626732961944765
0.065486163652658
0.0639168281150176
0.0642024868415611
0.0618178752450144
0.0654586980317442
0.0639180637173341
0.0651655255141134
0.0639043891788408
0.065019021025772
0.0619364490189603
0.0637913992087883
0.0631423653751286
0.0644959929278403
0.0626449308194023
0.0653380306104224
0.0666334197587059
0.0690216694185583
0.065594935358372
0.0669162925450259
0.0645623724474089
0.0665489356245933
0.0646397550844272
0.0668610435821588
0.06585695415655
0.0654476702980467
0.0638257148409869
0.0657758544368834
0.0653602251276889
0.0693458356568615
0.0675543352266199
0.0692197838100482
0.0659481300384866
0.068526127865384
0.0654894296528276
0.0652897555281195
0.0660681216551149
0.0684967723490869
0.0675428414030157
0.0691177463523068
0.0657282585971855
0.0669114214192035
0.0668503555981943
0.0675290841205186
0.0677796256700332
0.0694132069111163
0.0661147367218546
0.0673066551563193
0.0654717845732096
0.0696899935202232
0.0673765740502979
0.067553650032701
0.0661713686619386
0.0669773329291228
0.0658634050869495
0.0659423774827246
0.0637985176521794
0.0659593205695063
0.0652121355381537
0.0671797055729039
0.0647730616734696
0.0665556130989772
0.0653308576842535
0.0662928065718212
0.0653984181432506
0.0644646049521634
0.062863429569463
0.0645534414688939
0.0635391387199376
0.0668854785744613
0.0647800745283167
0.0634128796810046
0.0629623053817285
0.0642254403229851
0.0627768058665007
0.0651308205929908
0.0622991129136131
0.0653776078774261
0.065146489510412
0.0652656490019233
0.0643315185516757
0.065640228833636
0.0645179940006626
0.0657576188097019
0.0629804846361785
0.0652923416242477
0.0646006014524094
0.0647585318313646
0.0613207777615621
0.0628814525966544
0.0621551209627468
0.0636285541321378
0.0632049084193579
0.06522171449102
0.0602026045410807
0.0597415692335467
0.0617054134394305
0.065318798228352
0.062087906583931
0.0646506385582704
0.0610530899326467
0.0627856706732011
0.0620305324164723
0.0644921675508141
0.0627442189471795
0.0622566598171178
0.0616985250752206
0.0671235359838473
0.0617585616439619
0.0628818386980227
0.0620796774416083
0.0622642365621115
0.0606646290482293
0.0627647191560534
0.0625034733247614
0.0641163782979431
0.0619847682607415
0.0626327828360775
0.0582958453773357
0.0627594951619548
0.062939370580879
0.0632754871343224
0.0617403867736176
0.0646082291085668
0.0598990970567768
0.062320719985565
0.0613609632252841
0.061925221093438
0.0606283068727896
0.0623746684240378
0.0608139545919567
0.0626376259181053
0.0622059802883225
0.0621458954970765
0.0630305269052041
0.0657151114475741
0.0610112828218441
0.0609222741053797
0.0609146070622964
0.0620412628107539
0.0595600301338493
0.0622160575884336
0.060052509968637
0.0597345563228049
0.0594670521881802
0.0642158462854122
0.0601060909472552
0.0621341313794503
0.0600218645495268
0.0601798612055731
0.0603535083457891
0.0622682643989351
0.060254266572748
0.0601890358242039
0.0596015820298717
0.061653544671413
0.0599672347623814
0.0631621747936839
0.058357863535954
0.0631217901376636
0.0594604008361616
0.0607893336016344
0.0588450205991097
0.058569203412694
0.0579493095036193
0.058176155980846
0.058198695549917
0.0603459788248265
0.0582732379779832
0.0593318212641604
0.0567067185203678
0.05820607263762
0.0581595427127065
0.0590503372525223
0.0547815402180861
0.0582124567547624
0.0565310546630551
0.0588534068476658
0.0555768922915499
0.0571392872949548
0.053323879165052
0.0553649648226261
0.054667350013896
0.0578209585102153
0.0564910448258081
0.0598341919840401
0.0604583288395211
0.0568358132397003
0.0542280079945722
0.0530635534826348
0.0521074463038447
0.0537069393151839
0.0530353834357054
0.0538659806402891
0.0515488627420835
0.0545635287703165
0.0534415219302629
0.0527418357988687
0.0505113520023822
0.0528040378480942
0.0529266814903187
0.05387986654769
0.0520484381861908
0.0507621547104624
0.0534840343859733
0.0537171715176225
0.0490996479057197
0.0491522142727789
0.0511611360631891
0.0527689657835016
0.0507525834623086
0.0487605888310433
0.0632198642345012
0.0613074569582603
0.0535301256610849
0.0521127535773504
0.0545844506782898
0.0534710982533964
0.0508660903176468
0.0513967956834118
0.0511624156594677
0.0512095857848134
0.0494133682494285
0.0513018420520247
0.0478446474697596
0.0496206287239404
0.0472542188101164
0.0515282581085285
0.0503775662673302
0.0514935755504336
0.0517415426977873
0.0514278467616293
0.0479996477184184
0.0507039435345298
0.050125499746631
0.0497997270187705
0.0488646274224431
0.0498962329283591
0.0510272806536503
0.0592076162708894
0.0545787111473437
0.0550617313854472
0.0490714282088845
0.0489175640419882
0.0472246865987716
0.0516567765001908
0.0478475532165641
0.0493999496539552
0.0468202828002565
0.0503213754027356
0.0467452136855951
0.0490289224791848
0.0479753667834255
0.0506390696963941
0.0445634866646909
0.0473364287619313
0.0442946554230438
0.0505545825363379
0.0469968875874245
0.0483957178832127
0.0471352045259135
0.0500782631261995
0.0455174286716546
0.0542760325423318
0.0420580583233335
0.0619079911855334
0.0595024070089231
0.0546793532977405
0.0480932034295712
0.0497303493320091
0.0453304374730451
0.0484620915648557
0.0466964580020254
0.0471803975646679
0.0450099562854614
0.0460097248512761
0.0461914694187724
0.047247767093011
0.0455953692899389
0.0497707707482638
0.0435509186179403
0.0497631508178954
0.0474698489127392
0.046890383134568
0.0472340973124717
0.0456177586206616
0.05076607470342
0.0654333231622101
0.0503047023636324
0.0541150716866065
0.0441457863818215
0.0530088677614932
0.0700711157377004
0.0526767808406413
0.0506409692165199
0.0466661126859289
0.0466869058714496
0.0437415353585637
0.0533541647586405
0.0413079894120247
0.0521992836250075
0.050511882520124
0.0494664749958139
0.0504705473230904
0.0463514859652638
0.0463635667114311
0.0467326028578228
0.0471799752001783
0.0453195868609668
0.0468987671818781
0.0452466676384991
0.0460383002984219
0.0448992313655649
0.0444380868600117
0.0466409375037983
0.0406867107448134
0.0505182312654439
0.0515305827068798
0.0486537868331637
0.0461058219198975
0.0495949057206435
0.0405833456438116
0.0587162551008788
0.0592689523932523
0.0482493753294832
0.0467181378821614
0.0451273499346959
0.0477748798880616
0.045704729354519
0.0474691873321343
0.0437048133188133
0.0448638397155675
0.0427749124103682
0.0469042215492739
0.0456537436816567
0.0477447161220069
0.0433211292138486
0.0475979066777171
0.0440200783220494
0.0500540555285353
0.0425735056198652
0.0490733713930728
0.0449604974001521
0.048595116764846
0.0688753104401016
0.0655037492197058
0.0667462282387984
0.0559202434397183
0.0542745206132338
0.0456676476172758
0.0484171709056857
0.0448416655653625
0.0488664170436608
0.0471837033869179
0.047571982502636
0.0467410364179797
0.0481619784355676
0.0437252902741596
0.0459138958691173
0.0451233235506963
0.0464687308875335
0.0416904386649952
0.0476128271480812
0.0435850452647952
0.0446932643255988
0.0453255247038699
0.044390234706775
0.0561923424826673
0.0534515380142401
0.0502516423140243
0.0423986909768348
0.0972560497307967
0.0582899659427353
0.0632789974566099
0.043679444183881
0.0493231994765513
0.0434439478760576
0.0463197431015499
0.0458729481713436
0.0535032380539518
0.0466825757726401
0.0479751099171044
0.044952685868761
0.0536076661517341
0.0444793030768672
0.0449034708931487
0.0659359509003365
0.0796372147982511
0.057075766922775
0.0573545953998671
0.038689154159871
0.0724652147156265
0.0670131139780528
0.053507545427126
0.0518319860335699
0.050086024568279
0.049541228163548
0.0490278910196293
0.0461597705174034
0.0489819604216766
0.0582551671662871
0.050060656387062
0.0516501694307617
0.0481053809540813
0.0486299725619247
0.05273381896454
0.0486830144673478
0.0649185976602753
0.0572324471691265
0.0511091025720733
0.0573217927432525
0.0530429293937076
0.051035787959566
0.0488399793053602
0.0500308539563579
0.0493180232824256
0.0669421327889098
0.0601620737109226
0.0588353409116312
0.069941252644735
0.0569532209389583
0.0502739526297686
0.058219669573284
0.0615285916693269
0.0655999204081321
0.0402130318163355
0.0857637884739376
0.0669030615253088
0.0866598196935115
0.0657299382232479
0.0600177228950863
0.0542063178246291
0.0540796824036374
0.0480461790896654
0.0548473009432978
0.0782709253498647
0.051981263168569
0.0636169502138171
0.0433265922453575
0.0802162448274312
0.0602518854597667
0.0678773778074779
0.0548460201898453
0.0551372221520953
0.0515405167366078
0.0819997068037533
0.0465535039026449
0.0663874368024959
0.0851683665283845
0.0882799858584535
0.090443496975589
0.055427661179646
0.0668411452417406
0.0934101475369143
0.0608512439095481
0.0676225228676711
0.0532788940002463
0.0673704965886943
0.0474993487116125
0.0815594951867521
0.0902170813686956
0.0656857388510429
0.0652244647902586
0.0600588973709752
0.0617437547702358
0.0931325598587512
0.0695493129682878
0.0660607313659944
0.062463815453975
0.0688264024752926
0.0621710271767952
0.138643918162464
0.0652736525288366
0.107563878285883
0.076576059800113
0.0993772894629092
0.0751922089627887
0.0893503190114155
0.068632302803769
0.0983383146224867
0.0887003720324379
0.0809485352110049
0.0594998529336478
0.115136058166589
0.088721706953659
0.0865097684479055
0.0820908073002235
0.0736248019204169
0.0819612262613966
0.135811036860628
0.132552228276835
0.122194478891246
0.0787521617372806
0.0948647531817911
0.110267548594926
0.0893044551266287
0.0834432062434603
0.0847878491210129
0.0848050024625569
0.0857623781512756
0.0879764986041594
0.103869884812159
0.0857912669087879
0.101858540084953
0.081958290409126
0.106995471076354
0.111898945509051
0.183494796810518
0.124032373532993
0.117709414410203
0.138527064420196
0.121644316389813
0.113624938667612
0.0988928789914133
0.103937990784344
0.115352122429877
0.109173192780575
0.107206987777919
0.105331562850336
0.150258446091167
0.112159155115693
0.151298716942527
0.123816360803502
0.127474891910417
0.111317015034999
0.157935689885077
0.272493817395273
0.146412613978781
0.161191843085275
0.12684930693669
0.195203723258082
0.19197946003133
0.15449180265976
0.139128883583253
0.144274420947315
0.137289658243345
0.156705042872749
0.159818877859554
0.171361042896454
0.181998321013593
0.166146391765448
0.166961851012674
0.21547944433459
0.25697808935761
0.264343878698584
0.202212423911938
0.19691281375172
0.214845632181048
0.218309014131721
0.199375994825063
0.22057692097698
0.19564860006106
0.260857678415436
0.257375847331675
0.245620317391545
0.229594696112796
0.246179993593037
0.271045317521593
0.241159110039576
0.329925901095656
0.267227944191294
0.287291046842999
0.252710150578713
0.283529465643192
0.266918418502969
0.288276924917993
0.320321449593697
0.305255017694417
0.298882654480897
0.29983579555701
0.295829492449484
0.300807074120012
0.309129907651118
0.311399560176011
0.315278325077762
0.372321577545228
0.37844439122144
0.551903775648072
0.334835948197657
0.342136291179893
0.310246634104721
0.338321319354446
0.360409231395714
0.36476480121063
0.389694612253902
0.35107906304639
0.335472576231538
0.329831448127785
0.326711841540336
0.332465459227848
0.334403252801046
0.339021818533256
0.323528398208742
0.36925308644067
0.313231756869843
0.441858052037322
0.369081203942925
0.348215192368022
0.31725969684359
0.33872626399579
0.311382148610451
0.337140121032167
0.306069201695426
0.351017711393721
0.329690708086333
0.324562677485011
0.311470983558079
0.305136687053668
0.353533494247291
0.341766140083338
0.308720208856985
0.308959474497627
0.288998814265434
0.310631564453504
0.275160930839758
0.3534216687337
0.317775710945138
0.296523693936314
0.286101916763823
0.285402327661481
0.273284043883024
0.282594706596894
0.270668884378262
0.289742585613307
0.276069114712386
0.276395912102527
0.271747095796603
0.270275680740061
0.265942905613151
0.264939465562475
0.269502885304143
0.263991485529934
0.265558997462434
0.25689805634528
0.259426488218328
0.259129043208237
0.256462606805332
0.261318614003175
0.251210102535282
0.262309036558515
0.257892207128106
0.253248161546986
0.253705772453881
0.24974219245363
0.250350517180797
0.249645281503759
0.244610372281969
0.246100175198633
0.241051866459691
0.241825004482968
0.23963627517165
0.241410872149351
0.238450222945353
0.240590734256818
0.242079069732267
0.237048441640544
0.238824389863916
0.239785732005013
0.230313400000744
0.32968766744934
0.247607508389873
0.246852667082387
0.221689465948535
0.233284878782114
0.215749117508465
0.231568107615345
0.283541461760677
0.247619667384019
0.225873776852491
0.217414002789938
0.211405358864228
0.243419123204686
0.215833324910699
0.215142561719285
0.215835021948376
0.201110667421196
0.297673308641421
0.264425589033919
0.343270404575449
0.289142227907678
0.23696491750253
0.190775125339848
0.251392222297839
0.231902197629534
0.201008579615065
0.200041281155907
0.190138181053962
0.259694085430329
0.201359797889388
0.196975880171715
0.189389092206672
0.191411862803333
0.228943587941868
0.232553769583634
0.207635052284696
0.239026581670559
0.228812737753151
0.2255196503982
0.268427368471721
0.269897952275279
0.214069704292141
0.179111438503076
0.188359602563288
0.175441618250757
0.202299902350749
0.248053837530703
0.185222313314517
0.209935868183282
0.168634286206542
0.182839236472143
0.177992671719096
0.213072206717681
0.182254954386192
0.205810086681071
0.208758267793596
0.168525496461609
0.202203775574463
0.192012640035969
0.248144591131069
0.234457688007018
0.187883617171994
0.162289848646345
0.237111643966289
0.213080071262906
0.187801774439177
0.189318465719169
0.155045677628059
0.181216731300652
0.189969783778049
0.161298756528211
0.196840474296124
0.185607098346785
0.210196189493836
0.243827833326204
0.258350579573079
0.230920978059943
0.174135774647725
0.161282044239768
0.160163107670765
0.171705003463839
0.168986265258277
0.155061954811406
0.218347564847086
0.161076874248332
0.183598588268421
0.22272682549527
0.179510215302564
0.173724548114772
0.173258505782607
0.168439903783382
0.191769846679399
0.218753593761937
0.240915703926215
0.200005356681305
0.215093377353098
0.21053787891174
0.19904747180192
0.194918901919505
0.202683269895219
0.200850226036675
0.208466329564
0.225186730049022
0.221604365211524
0.222638102325499
0.233796956991499
0.226117863349738
0.284048067482005
0.270227611606976
0.2522082660201
0.295391086027295
0.279081018835282
0.35299249248298
0.27383809275057
0.283412543642692
0.278000789770682
0.289782607076135
0.295862519671904
0.289618183066162
0.328619285133301
0.341432833987383
0.309993729807237
0.320718146491674
0.311986841115121
0.333555655136468
0.324075196707011
0.380238443128844
0.348297398779943
0.447398580117116
0.383086260042529
0.382968584378768
0.353623241537171
0.347418635426623
0.35856757208666
0.357357745069836
0.350813743744041
0.350704252296026
0.360986424188697
0.389337359064187
0.355379781042465
0.367210457312745
0.356838306049506
0.364470266199403
0.360419346795148
0.369199395942686
0.367983042796828
0.370685200901946
0.381160923193152
0.377613495085423
0.386705307442085
0.475903661388421
0.395987872969241
0.404185986134149
0.389699690880584
0.412897393658203
0.391146436955525
0.408400868262532
0.426921800941509
0.418825793462097
0.411878762771238
0.416890300023914
0.417036755260874
0.418053533878325
0.436873454097968
0.464240085430505
0.414142603058435
0.444025387165674
0.411273854259372
0.498581980033188
0.472223871015941
0.468090853462943
0.447991904587072
0.448348169496025
0.440490785068784
0.445232196446005
0.433495526747917
0.447721949492731
0.448371307439308
0.447235636853189
0.445654046515284
0.436062985450337
0.445287137480691
0.44010244500662
0.445914636609755
0.474161046004669
0.439783576738616
0.43646564034189
0.430968800762598
0.438670815701004
0.432420175317573
0.473220786847056
0.441753748710848
0.440292016483953
0.434055768177318
0.450053957553171
0.467809631756554
0.45019450041184
0.421096833933365
0.434315806117702
0.422075502585635
0.437616660712927
0.425990341895057
0.455280175469089
0.459769317418387
0.449045997588338
0.43553961498237
0.441323546106775
0.438716619267042
0.445994186393779
0.447235655516469
0.452284315160895
0.456645062606933
0.460307247923342
0.457689182216553
0.463030955610475
0.466987203244595
0.484444178870117
0.486505605870643
0.486292405870193
0.466429248359106
0.471202202989795
0.462208786715347
0.472680648312698
0.470487724835766
0.460444577949612
0.455151279753717
0.462305655917314
0.4485660497108
0.462014087134639
0.488003561181838
0.451419915396298
0.460509943705515
0.443856044302291
0.434087740507579
0.440001774049615
0.423403475975707
0.430254798124684
0.427940082774743
0.430828182314642
0.420798514964651
0.421551765823752
0.417402003308871
0.414135088468253
0.412215955379643
0.41956349700808
0.409532294410214
0.414196219323831
0.408642357153883
0.413260546416581
0.410141793028321
0.412221013523582
0.410558236489435
0.406659265333562
0.425643464038828
0.430305043082487
0.430375921868079
0.416729113932122
0.412964990094878
0.413595872948029
0.404422638291073
0.406267801390075
0.399808196292178
0.410223755375431
0.404875657244224
0.405347888986569
0.395864654547322
0.400774618597424
0.394888743461847
0.398820575595856
0.395275022752351
0.399863863510276
0.39808535763942
0.39795529839725
0.387885881792147
0.398616597686651
0.390846787731987
0.405248323016563
0.392418438078084
0.394101106081243
0.394099976565777
0.392934878435543
0.391989199776039
0.39304424893287
0.390905926053852
0.390770244057207
0.388480885605224
0.38762240132401
0.38557408992819
0.386592210806055
0.383732516563404
0.384781513250203
0.382002321056212
0.380730208142339
0.377015210786782
0.379375641426784
0.372270895189186
0.371187902478372
0.367069455632427
0.365706486477732
0.362406150040198
0.360874520352981
0.35441710318398
0.354354685542674
0.346263531721836
0.345711603700882
0.34285578148706
0.340674733204494
0.339401382143978
0.340270818825452
0.337256545274188
0.334307619067373
0.331553279787278
0.331972344926273
0.328073295025291
0.32717370271863
0.327378982439954
0.326169441621487
0.326773251584843
0.329593503532149
0.32537680015601
0.331251930512071
0.326118944005723
0.328058331114984
0.327268848044167
0.331040934848127
0.330928951679214
0.333520352040959
0.333593628507817
0.334749600081239
0.336996509727489
0.339623083901038
0.341234509934944
0.340569681621731
0.340315529308426
0.344700065989455
0.342043780543154
0.343074229416269
0.346095063980465
0.349042794368608
0.346300216373275
0.349609646882468
0.350812235705487
0.351171877018682
0.350080460341446
0.351422347910769
0.34730249583099
0.34878117869383
0.345784479431073
0.349272457336615
0.346876175283292
0.346518534604815
0.345689946771668
0.345039328976147
0.346203319054987
0.344874052640637
0.341086857450672
0.343620885007226
0.339647551591636
0.340953135407213
0.338576319881136
0.339441772474178
0.335039150554231
0.3353565313123
0.334793511744546
0.336094695048148
0.333719175429736
0.334954833315211
0.331048325215105
0.332277255373643
0.330282376611464
0.326721527450098
0.326201259080889
0.326990804531962
0.324891906363808
0.323640711589268
0.321028480662305
0.322337172594664
0.318679842845202
0.318429251339326
0.31783364461212
0.314536131518767
0.313282482578562
0.31291800323848
0.308803640523098
0.309471983895619
0.304784570245667
0.306410173771473
0.299515349939659
0.302102657114569
0.299185818742435
0.298921089275485
0.296689185309419
0.29262041195476
0.292502053459403
0.29069228083481
0.289910022342599
0.291484558773828
0.290055839018606
0.289880748990239
0.290573868110049
0.290768425198972
0.286691702571308
0.289350193410821
0.290501029367637
0.288066780750786
0.28770355619783
0.284914856981937
0.282293608732357
0.278935203320842
0.276259206046149
0.276172776197563
0.270880198826091
0.267786206328036
0.262454481295644
0.25941117117886
0.256225821099941
0.253589745342735
0.250245318807959
0.25064378975058
0.25008477503808
0.249654830408219
0.252918349645182
0.254183944519099
0.258044784723054
0.264777844947792
0.269313098895217
0.276753839941453
0.284665938139864
0.292669239830207
0.305225577426816
0.318407578548842
0.328347023164371
0.344303804789015
0.357754706032544
0.367286189724664
0.385139597291728
0.400562262039757
0.410828600665449
0.430521353692263
0.446306017929402
0.461692786581483
0.477150991936978
0.496980913628881
0.511001808311075
0.525789563346235
0.543008023433475
0.559925242152246
0.576906016331256
0.593835339125059
0.605652001844639
0.622531340670357
0.634369173868766
0.646487731775964
0.655853110593377
0.672367612824308
0.675928061718033
0.676887509463596
0.682375712326217
0.685259902159789
0.6895329762569
0.693406172442175
0.691809503380155
0.689372651987138
0.684807590185799
0.683592517836672
0.676802328409749
0.675978711872534
0.674228174447528
0.673428500709745
0.671882274721474
0.669825245098023
0.670356107592852
0.66488311592368
0.665120475461939
0.665765841778136
0.67219148035299
0.676456909425785
0.676137297084687
0.688213768780705
0.688140554901572
0.694755957777111
0.698641385562747
0.712054059248001
0.716991855668246
0.72514434594937
0.734762964513498
0.744066984508639
0.757489394224411
0.76337013624194
0.773574368129862
0.774846585233354
0.782249543111169
0.787426935030742
0.805534785338352
0.800210217637206
0.809094703083419
0.80903024716102
0.809239527007503
0.809959884127411
0.812158979946014
0.814462899853338
0.801246660138455
0.810631016125314
0.813140347449316
0.811707459562629
0.817152528277556
0.819657875958868
0.830258380973664
0.835147311806887
0.851395122114496
0.851783576878563
0.856487152482572
0.873572648997695
0.877184272164268
0.899700949376477
0.901531568154547
0.916250064502896
0.920467303406488
0.927285339137762
0.937452419973634
0.966724441613414
0.965986948081126
0.980306780323809
1.00477335729043
1.01257450483765
1.03199524900095
1.06790677206691
1.08770036295052
1.10138862934298
1.12667600252424
1.16534187438918
1.19426597625861
1.20955354959173
1.22826277863437
1.25384561680776
1.26854107098067
1.28658372864006
1.30204313444178
1.32218656179172
1.340879772725
1.34105342078
1.35627130758918
1.37043597227748
1.3585761281068
1.34563735746528
1.33692075232796
1.35243671221869
1.35737905077757
1.33810471785378
1.3325818783883
1.3047628037084
1.32136292879845
1.37402484228192
1.32376877767078
1.34454200976914
1.33832834934758
1.33958616721658
1.35672552160547
1.37477505877649
1.37834574113032
1.40354765172264
1.41455530590331
1.40853763033428
1.44910492581568
1.46261163137313
1.48827272784374
1.45227096666062
1.49533062477766
1.51207349595552
1.52143519077094
1.52427862740828
1.53841271462664
1.56512036838187
1.56415812713526
1.56939489489639
1.62631589066063
1.5784043141833
1.57827862641264
1.63181302280903
1.64612985734511
1.63474563189789
1.66346435829109
1.74412274951081
1.76188565846155
1.79451116620321
1.7481823193231
1.76593465425209
1.74445579250468
1.78055366457173
1.78263872672996
1.79785966089403
1.84719282534976
1.81971170466054
1.8305233604931
1.8288810205173
1.8035062157536
1.83078230134842
1.79756510486691
1.80243746543946
1.82032394868895
1.77860493102668
1.8754868923939
1.6841451009107
1.66261349260703
1.63490711452801
1.56522794014505
1.55283934428374
1.46934969811521
1.40579510871792
1.40179323536584
1.36260279911333
1.30633641193648
1.28441046202449
1.2633457094587
1.21967876184479
1.21522840980852
1.17707331804297
1.14439323541697
1.11242944114269
1.12673673367472
1.0985566217537
1.07951219043251
1.06134598567941
1.06759367496359
1.02447094899312
1.00160259704997
1.0034565281149
0.993274505980506
0.964008909576927
0.933352552426853
0.90113947061721
0.889168150940193
0.859080319394554
0.821961765480483
0.794932397930774
0.756962802416689
0.736377485510408
0.703174947119401
0.668936021460121
0.644172771558674
0.610413844117385
0.586843284366581
0.553798761819797
0.523448565045381
0.502190993501917
0.478470067450065
0.45042069275592
0.434020340192689
0.41343207016595
0.393893187489803
0.375770195676524
0.362651069224622
0.351523410185042
0.336278425220589
0.323935666964952
0.314183755954419
0.306432791597706
0.297432845913141
0.287447105460463
0.281486242740643
0.276108493107262
0.275530245977813
0.272523389879589
0.269730339522729
0.267752841496978
0.264731128752674
0.261942865668298
0.262430188427353
0.260648440437458
0.261972469663605
0.265529369894027
0.265657651567357
0.268673882062495
0.268575300852201
0.270063021532579
0.280371409929733
0.280900734411972
0.278003683278488
0.282548906057548
0.286303636818393
0.286977051974094
0.286156879836739
0.282155636992196
0.284734848453451
0.288414637158653
0.287903855195989
0.288384514333767
0.289114394003465
0.287347338589908
0.287920641365126
0.28899388057146
0.291805870953126
0.287248134972764
0.28619681450993
0.29364798181758
0.295633885185764
0.295529042401895
0.299214035867068
0.298427266828408
0.301995227161094
0.297769905962771
0.298658238113124
0.304827676933175
0.300472717988523
0.296973226390007
0.297008477547797
0.301741186699672
0.308884087814592
0.303626717643146
0.299917500079531
0.301127727830685
0.302298438220565
0.300481694293293
0.301421742912594
0.299035902892369
0.299578694425205
0.302374868939148
0.299575995421968
0.301681270791578
0.307334852044473
0.30825838940658
0.314587543538234
0.315661314580022
0.321451438351536
0.329819938649255
0.337567620291273
0.338681815479067
0.345436338446469
0.352639886890974
0.355367816942819
0.365855598065716
0.369763158760361
0.37965530917519
0.376590866157996
0.372555364594297
0.369650573555699
0.369058171909168
0.376178450817737
0.353942916924291
0.350957604994515
0.343558953651358
0.337320688875079
0.331449275061333
0.329362509135666
0.329135485675885
0.32540491654193
0.325462671364607
0.321128674934632
0.324599822446386
0.327826515169146
0.32982568297971
0.336188254354508
0.326414455733144
0.327561726603939
0.325704348322347
0.323598848632194
0.317760102702428
0.32372225269483
0.319558665567337
0.323787209521378
0.312738888137954
0.306484977008887
0.313627855143265
0.315755478731623
0.309334407769625
0.307099336234183
0.305301803308953
0.308510197395256
0.300045367333763
0.306568922887767
0.303151548331926
0.302147014149279
0.298412390857812
0.305285889027981
0.303738987660115
0.296520323999789
0.304275472026986
0.292469372527967
0.292533317940529
0.294793794188416
0.288089331866161
0.292762958052013
0.287211816309568
0.289638110851085
0.287792098859392
0.283722357377763
0.281938011534299
0.281617350555508
0.280028781296536
0.276011850432687
0.276706566754109
0.277959956350879
0.264058603240544
0.264263888225092
0.265502802692515
0.266471388023354
0.256077914148014
0.259672382610024
0.255435899648383
0.256045528140035
0.260006501356857
0.257973975651683
0.260370905421746
0.268138637431982
0.256587981037561
0.255529549055905
0.249075488533357
0.259068442641745
0.264232938718987
0.256332773379073
0.251820903241842
0.259064963860956
0.258370318741286
0.2602889538871
0.26695420677209
0.271309865992962
0.269744674723081
0.277969507488332
0.270882492651863
0.269530829076516
0.272000529341862
0.287632043434785
0.282141936896638
0.278254944261247
0.292903177627331
0.284333877028312
0.274625270491329
0.294399536600113
0.303594295445367
0.306263446863673
0.324128555026894
0.323215661250806
0.322924808576458
0.322677355952506
0.33284329856819
0.337114875309509
0.33740725992912
0.355380830381581
0.362617502143841
0.381329771583942
0.37980260599811
0.390480730833724
0.401243373082329
0.404547675702432
0.423740793860368
0.434753800505085
0.465980990145515
0.460098735756596
0.435094244821804
0.463714857952455
0.478362369850229
0.477974757487955
0.462269063232923
0.46575179575525
0.471388011197667
0.464396268474537
0.461757757739469
0.472897966553552
0.438082221064996
0.437988483364608
0.469133679123042
0.473785902018029
0.45006703893083
0.450807869581818
0.455122485196433
0.459075409920264
0.466087471388269
0.459458469670955
0.448446877516314
0.448446781407636
0.444624467035698
0.435491618904777
0.441576272343608
0.456635557166127
0.431055350352461
0.437640096316149
0.441404087329797
0.435953129997192
0.430197959506246
0.418267731818309
0.428867360594924
0.425986912725053
0.426483056022438
0.437714388261164
0.442855866633376
0.401950993594178
0.408853730788118
0.421037796336355
0.408782455167757
0.397936804061959
0.401404459281845
0.428996976691149
0.418494047241709
0.42102985012629
0.407055232190241
0.413136135786817
0.430335781280078
0.435506222714456
0.39048764175657
0.408630915761595
0.404491128008903
0.408366919515056
0.420933752571744
0.418399995777522
0.427338331988093
0.415384059462983
0.427661839569464
0.449028861095209
0.405713002507666
0.454286095593053
0.483742475632827
0.432630228940701
0.438889567949682
0.49087693264071
0.458906808881283
0.446654476075228
0.451965285039316
0.482518803923674
0.435276864053758
0.479339180700662
0.481664968408458
0.511943530216041
0.50911801165378
0.475549015140701
0.514817866167637
0.565021100614679
0.544175695404361
0.541362850393976
0.515918910126284
0.551556465779457
0.57382303234814
0.559134588470496
0.573573762412957
0.556883337048661
0.583156358031154
0.5783425906888
0.558497194889369
0.583775367299883
0.616236582384138
0.572693443702606
0.625130689370627
0.560986681410029
0.573829633528083
0.612040619124089
0.539180780629994
0.566510291409179
0.59503553434438
0.589107266554385
0.574133835161388
0.588983040275259
0.506241103801707
0.507940663709433
0.553005135947294
0.495369616959419
0.561319476937681
0.494192093622057
0.462713866115446
0.539639736941392
0.531986013774817
0.601487182114012
0.587013927824072
0.546036851021357
0.623550029732391
0.595632216565927
0.543211527564302
0.511276430609129
0.544020502093643
0.501687182927056
0.556206506345559
0.644706646805715
0.549299500959856
0.590539796254177
0.713250791940341
0.547688126166054
0.44891014959598
0.837091109597559
0.965494528751525
0.683522990690535
0.432173292873967
0.567719377365165
0.563638304676399
0.544098114174869
0.524031168700548
0.600772040347497
0.510573144861454
0.501356597301357
0.8450728403267
0.528493506215848
0.609975357176966
0.761808886416519
0.762053611098158
0.520211787430162
0.463730298161567
1.12182393386592
0.844047738678674
