3596
4000.36533379555
650.420452594757
1
2
2
0.109701201293454
0.103007909123152
0.102957990433618
0.104633967667427
0.102099314369094
0.107346529186135
0.103548112871022
0.0996799169864059
0.100236427746946
0.108661040367075
0.103471631442334
0.0973146176613245
0.0928431380533924
0.098333235254011
0.112796947346855
0.0945146675249365
0.0990891823840081
0.102568977128549
0.105585295369124
0.0942399833113251
0.0981508024128002
0.0965751094977769
0.0972536568958714
0.10847913300331
0.101410589324781
0.105919781457206
0.102490887049545
0.0986696234958016
0.102336232582242
0.104742660864914
0.0989654565591822
0.0993151237002678
0.0960385726500601
0.104606344261101
0.105562347948792
0.10210531101561
0.0943679275554977
0.099532850760715
0.101440499974433
0.102936291340802
0.108151568924979
0.0977374396007298
0.10461236526303
0.109073724673403
0.100834288082423
0.104743148764098
0.0992712245698057
0.0948645440490902
0.104065595340713
0.104064476176677
0.109000385760038
0.0972368807243894
0.111625542644867
0.114962967873062
0.105218712555184
0.115202165456776
0.110587883752691
0.0943604002760115
0.0987864861945538
0.101539579654846
0.121125263555438
0.118202904006436
0.0923259588267417
0.100967340839879
0.0907981380768021
0.10214215928535
0.0926402516251604
0.104439494772349
0.094912903627768
0.100240959980805
0.0937529707616893
0.120401079501257
0.114400504417694
0.101000233566741
0.10832961702182
0.0963712593690482
0.0940297763033262
0.0975955155408063
0.0917254138244745
0.109945933775422
0.116732512553045
0.101136962213054
0.0951078383745018
0.0938808198331832
0.102368535423906
0.12142573223502
0.0878329943451571
0.100713860981737
0.12305012292385
0.10441533948984
0.0915755927484939
0.093338169802226
0.0903942722827766
0.0963743915247945
0.0950891087497647
0.096435418414084
0.0929115767591903
0.0954517909095883
0.0951432699552056
0.106812590541232
0.111145930758978
0.0957811896332004
0.147213037697114
0.100256342710345
0.157189789072114
0.112060254302
0.0898719080803697
0.144813359451743
0.102896059394195
0.109357956705092
0.0890047841544042
0.0979366733231637
0.0953521987871124
0.108948385390998
0.08791629839987
0.123584105110499
0.129029494975108
0.0986849970272597
0.101466084250835
0.0980407492769066
0.0845630302138538
0.131242302259044
0.135421386913518
0.0995779722213874
0.116799874378759
0.0906376111859375
0.100647100463116
0.135755402653978
0.122017546071996
0.0915942058460524
0.0955791607342134
0.0868209415932342
0.0887049291516289
0.0816063450304359
0.144617321892511
0.0981863968070785
0.0997995385385229
0.0919867017872212
0.113062375204219
0.15311421736779
0.107384729882816
0.0919577365237956
0.0863790766909395
0.106500575997941
0.153673959849911
0.102640934665065
0.0944016921345126
0.112057579451544
0.113303936819503
0.0926270509443486
0.0890786072694838
0.0840541184644784
0.113626266289938
0.100968450833662
0.0737969934463977
0.144930905673517
0.192773736181809
0.0960480323496779
0.171257057567006
0.0962258810842823
0.114650316265769
0.0922236534431947
0.0904814347064202
0.0897460800730178
0.0991432810490527
0.083718080364424
0.102953654473822
0.128157940554849
0.0938020214321635
0.0986150282550408
0.134421643043605
0.119132821737139
0.0988129535052858
0.153326672854204
0.10822302889254
0.0881201183786498
0.129823775739766
0.100134089601774
0.0911100899224602
0.106701312419375
0.136743075534203
0.0873180837326684
0.0945878318383456
0.0881074221350424
0.102378817242918
0.107922715400136
0.104222658869601
0.088570478658419
0.0978396383580699
0.0888392872220746
0.123514172774797
0.139065616945338
0.131372130904532
0.0961144243709595
0.106151107772801
0.0646340095978116
0.143788896832911
0.134093549208383
0.0913488136618438
0.0929913231477232
0.0905167701442444
0.0863826030600259
0.0895815485888749
0.083675916724997
0.0882655778859808
0.0801324423260828
0.147570565472291
0.102257001947748
0.0978759722866465
0.0933718448309197
0.104676613358817
0.0979411961470052
0.157637991389881
0.12771672062545
0.0962051298701071
0.098780290282276
0.0885940621180994
0.117084934294431
0.115915309725884
0.091942557650512
0.0942518307894566
0.0894322592248016
0.0946125236365886
0.0864707778916244
0.0890443466802727
0.0923525908526916
0.0928470529497298
0.0894516548328358
0.0929064280622642
0.0962475425881528
0.107449954577493
0.0950027789791938
0.0950210248709191
0.0895062855989962
0.0817061187627498
0.104106391968531
0.126234726252488
0.0940405865310534
0.098227846946702
0.0864030005010994
0.0983980801374063
0.0911932621190933
0.0924119905480792
0.0942282878676316
0.0981052510653552
0.0864062548503842
0.14093508560869
0.0949943701842181
0.0950328047891904
0.0887246439966212
0.117921094753948
0.110165032202829
0.0996176312986399
0.102424920382585
0.0943089485999738
0.0887541937841616
0.104414092551892
0.133301995848387
0.106761394918282
0.0952939862939197
0.11197866370954
0.106054487333464
0.094539865062083
0.100899713311449
0.0923132439966033
0.179522066063246
0.122573353254261
0.107903075525775
0.165019288218064
0.117929660143384
0.111674517698348
0.104677695042074
0.0966567533378819
0.217373301850141
0.162025820103683
0.0994836950913701
0.110287171875731
0.119805279909036
0.0997656743247671
0.10754908526848
0.117213696894852
0.114882983321768
0.147584664978922
0.167918786541822
0.169946596752014
0.0940484400951496
0.141201493086256
0.135536508482387
0.106548712359799
0.101383458962353
0.103148262461359
0.109150315854038
0.126664817261659
0.135849326522723
0.123666273931396
0.11513238741421
0.109072306192758
0.146512239678815
0.114518323285609
0.104506501873805
0.127819356864554
0.125024557019078
0.104879734816742
0.112746312227898
0.105024489262438
0.115164643445637
0.112658148984952
0.116129023274332
0.17644027283318
0.132975164497546
0.116923961156165
0.14502560320662
0.118814783954069
0.114300515010027
0.111360764422681
0.11206351823476
0.109171311699194
0.103382827205214
0.112712504546556
0.151286205528524
0.128580252579702
0.112363557037367
0.113301763505494
0.106513718070038
0.116337480173831
0.115644345466996
0.120868492511208
0.117569481867817
0.116335464488807
0.111151284454007
0.14883904812338
0.152692316417725
0.114670826360391
0.158395383951063
0.162869145633651
0.121180855587849
0.122787384884743
0.112415908742714
0.127709943665566
0.11955910702772
0.13179222491722
0.122257192094206
0.131368872509553
0.150184988448255
0.151945527584969
0.129557042382505
0.150449651411676
0.209204498579753
0.20209489099019
0.151754585121406
0.14188953395954
0.124639150990114
0.181929098989733
0.189903931618602
0.165825669095238
0.171202809755922
0.143736568693742
0.156294870500281
0.147457015524782
0.150302825564685
0.153943164104313
0.152710117597956
0.156832421013139
0.158035514571271
0.158894188418663
0.164739109869319
0.161091898083462
0.16684421685622
0.208768722529021
0.178510069565959
0.16726004450476
0.172117595005822
0.172601294380289
0.210493986728224
0.224325531443326
0.219279288874626
0.228233326930868
0.215140271747083
0.237034901554857
0.186764200464
0.187751208239901
0.185845498490721
0.20992894499951
0.195808056327529
0.196430913045657
0.192152040014121
0.201296842624528
0.202275071885711
0.211557164800519
0.211385448493849
0.214634608380627
0.211593208608465
0.23845203969836
0.224317538752789
0.222432764741115
0.222127591695494
0.261582143366881
0.30195135715745
0.287175608310617
0.256127765161792
0.254071283894545
0.242667356581574
0.247145964259518
0.253978494326838
0.255339504749693
0.263875521645277
0.26892290982069
0.301488700938033
0.301221270975001
0.291586899719011
0.291615152236123
0.271188343996062
0.301101886748972
0.292441024339415
0.293189389802797
0.317656117151718
0.298791754810984
0.280720775386326
0.326341678368895
0.323600509706228
0.322337148375283
0.326485377744849
0.307064176075194
0.293535183539149
0.314124871931285
0.330816031078762
0.333375113542806
0.339587827198113
0.346291967159778
0.338722401870368
0.342516157544783
0.34649044761395
0.363504532601847
0.370533033036272
0.370826862510759
0.353544557312605
0.358203213548207
0.350607044882008
0.366850120369746
0.365830073045421
0.395964999368675
0.408797753438403
0.431132634855885
0.416691483409775
0.396149433902964
0.392690549295658
0.384799492896128
0.396845961614775
0.417432200998034
0.410536339984555
0.430551209300335
0.423378627696526
0.415117813890181
0.428161378849346
0.438318101449398
0.437849536767107
0.434888353745329
0.424128689411677
0.452405999022706
0.453932125694328
0.471832093832692
0.462301644347488
0.503979948361733
0.503096878176008
0.519937805602624
0.515794532935464
0.495184975933068
0.489822273169558
0.49239192002151
0.490082223679174
0.517977576546567
0.520600164112307
0.519586968652182
0.508166130054188
0.530644937325078
0.530005591531301
0.540411913975461
0.532587625081752
0.54992218984443
0.546101494832566
0.55709203825968
0.54641418065279
0.567732388367582
0.558582398277982
0.578788553782785
0.594005901078248
0.585904326407026
0.588741219177614
0.611687303512058
0.579504453100845
0.592441057544749
0.570675708451306
0.590626571710701
0.596318870369523
0.636397399916632
0.601524446907528
0.621566019457302
0.648126023953255
0.663031031360623
0.630656392553225
0.626926424130086
0.627942764578029
0.674652745974066
0.664342982117988
0.681348795205032
0.664947009196036
0.692963912855417
0.66252611796829
0.693530070041435
0.66259642754852
0.69545778730106
0.683299899526367
0.704780581782459
0.707203238395418
0.715458503110819
0.692845729789788
0.73214658798842
0.719246213741224
0.727628899178638
0.729279650819138
0.742597072720436
0.729032778349397
0.754250637736183
0.769335487329684
0.774833132251447
0.76164536418437
0.775290532148585
0.799163863213625
0.781254473280759
0.736538511597622
0.782630156631181
0.799731419382509
0.875174872704034
0.802943230481884
0.804464238451421
0.806725013633299
0.820426344112832
0.824229794243895
0.815656219175215
0.822267277072688
0.906306392116921
0.831447872022789
0.838494252215694
0.867172047213014
0.881045599945851
0.842901068484438
0.857660927680516
0.84950934457603
0.874253176348749
0.834963590732283
0.930198641919074
0.858789653157109
0.936052232094578
0.888723790048166
0.917416596599605
0.958375496037601
0.964748802048816
0.892115218334442
0.921209279916217
0.914523447993181
0.932886816278268
0.902707833837015
0.970351411758406
0.933783164893761
0.947885785435653
0.96999886413508
0.957764085145574
0.908846153885758
0.971425888298721
0.969851674597593
0.979996128380212
0.97690163542988
1.02918824514421
1.00652525000268
1.01611253072968
0.999292336571633
1.03784900399235
0.98795038070992
1.06418629967972
1.10981018898521
1.05753659275261
0.995958801438714
1.08832521975251
1.01591352514658
1.10258179236215
1.02366742384952
1.03000846082653
1.07272725022652
1.11275592748114
1.10453364722746
1.14620948107612
1.07433598311027
1.17274382501348
1.08596047036257
1.0728913146229
1.11271721708407
1.16063093907965
1.09379067800412
1.15302893519777
1.11356913733433
1.10843310852148
1.08826703575201
1.15839904227595
1.07583492532184
1.14143889517054
1.10492256208212
1.27051816600805
1.18199287643244
1.13399423855224
1.23672889107497
1.11779562079029
1.15995796830637
1.26942130045858
1.17253917136149
1.1774001926497
1.18661959184348
1.24149257974738
1.23214439782678
1.29615862294509
1.24866330602437
1.244264651735
1.19899290420425
1.3091256735158
1.16781964973256
1.25276684864698
1.20706982180695
1.30839032965008
1.22519512063158
1.25768890430624
1.29196374036966
1.29747280164722
1.18742181101146
1.33464291087136
1.20582114421123
1.29751293543992
1.18919450049069
1.29480647908131
1.2462701372711
1.26555242404986
1.2019685350285
1.37523768773863
1.31240308625598
1.24704402766911
1.31498656452496
1.40296536488428
1.34916877762376
1.34183117933812
1.33269348790091
1.37989772233888
1.25179028084092
1.29407877421799
1.27318362325806
1.32375446895187
1.32026312373504
1.56113895031388
1.4032441127257
1.52089779839003
1.28334575988064
1.38357572583748
1.3714166052088
1.39706030553532
1.28261855183684
1.46631232224893
1.37177514525865
1.51565891463933
1.3064219464005
1.41146026052744
1.30308686680659
1.29645469103015
1.37029886809341
1.33694886646966
1.31398298717205
1.41848897156498
1.36199592898812
1.41931650823629
1.27900953612925
1.36820406077043
1.38220786041761
1.53356544790176
1.61077781584952
1.54319966879185
1.42488881417906
1.53975748560591
1.48188060015555
1.48329292659509
1.34553975799645
1.51296126205171
1.52044260694815
1.53055222788109
1.40652034085241
1.52669063968134
1.43189742978287
1.53029809174442
1.36686438217711
1.39380978983656
1.43908406890803
1.49215221150828
1.36423827317344
1.53797698982354
1.502045604353
1.54585364408511
1.46293614612519
1.42870240809684
1.4232947140194
1.48355351994112
1.44043309651179
1.6557158834807
1.47158638020606
1.6690657335694
1.39207431282211
1.5796275360107
1.41415525344004
1.62607544545254
1.47415836877178
1.52092682542155
1.62375517816804
1.63167299243783
1.41377896006012
1.49244866489858
1.47050805205107
1.6089802470542
1.50258280238786
1.6105644262828
1.60402648092996
1.55526587186891
1.3600747963759
1.65968601197095
1.51187853230501
1.62822966589279
1.4671317775757
1.43944807457664
1.44862667208544
1.56705161703869
1.46984935795114
1.61290053502366
1.4512732575942
1.55847115300862
1.50511266826869
1.59701817743538
1.48306366867477
1.53207203235175
1.41276500215646
1.51934468004548
1.62582934245289
1.54965167362981
1.47403698670766
1.74094062783511
1.60661282777696
1.60852331691701
1.47257120986916
1.60885220701917
1.51536493156746
1.60303651291871
1.43393282981396
1.57762466066942
1.45594829973917
1.56045763666788
1.58250447957173
1.63518156629535
1.47682231013846
1.7065531748861
1.42221990946413
1.62534741518166
1.47705893300446
1.46611419734389
1.57863355404053
1.67334556870706
1.51912001182314
1.45557319149405
1.53205420051603
1.76387278240734
1.46840661079882
1.52103473711582
1.67565360112574
1.67486054617849
1.61247632291122
1.59151554027832
1.4025475586592
1.52571688192604
1.45405617605417
1.56103372291186
1.48471668211233
1.54975144812795
1.47283467313968
1.60206598583898
1.47398103956266
1.81702424236222
1.55041157504539
1.48462993888803
1.42962910565541
1.61239585316648
1.44521863164301
1.59547110301472
1.49109722272277
1.606596471731
1.53361311062468
1.60920051332584
1.42829483761738
1.44391306199614
1.44219732699172
1.58459242574232
1.45551298188942
1.49597427484237
1.55177235376463
1.46853413084356
1.57424301380748
1.55604031871802
1.36909529020762
1.44979015247452
1.37681155786404
1.60751258326122
1.52835379026744
1.607504474665
1.4570100093596
1.53923619534854
1.3593518375191
1.48252976295736
1.39722093605288
1.47497115210621
1.37722840089253
1.60784029407603
1.48043079596524
1.51477236215056
1.43085964603079
1.47732448809718
1.31055172435146
1.53107173599374
1.48096572302881
1.54066437963916
1.47349149500605
1.4653000751499
1.43156149388231
1.44580032429325
1.38808011229116
1.46980298785169
1.42919471558158
1.51173239270397
1.39376787298091
1.4733902883974
1.43319705690994
1.44606319422418
1.40260107804229
1.46933211659464
1.37445084028286
1.49907362866579
1.40704009060439
1.48527444692187
1.42964030560012
1.44877755100167
1.32120773945615
1.39031417242714
1.37716136152477
1.42162818801616
1.37001708622461
1.4435505438982
1.33690081538981
1.41911991715668
1.31854432279218
1.36988702329439
1.32759324917738
1.3636008773825
1.32598902796981
1.3032828172756
1.35305818693753
1.36630209927321
1.34016080220755
1.32465465002341
1.29853194687446
1.40656100739096
1.31895273928761
1.33570026913123
1.21333871052525
1.34910439774357
1.3279072572543
1.27677133860221
1.3033793729797
1.34435996180819
1.29500594063443
1.23182752498986
1.33036059950246
1.28046732042789
1.23836493961878
1.24346140524506
1.23480036233492
1.27629140070227
1.25925834827868
1.2439741155102
1.17398445553151
1.24835796410134
1.21462094341843
1.25116351217213
1.19726311842874
1.21232896914022
1.15317259172532
1.22827495730873
1.17702148718484
1.22162325344286
1.1329048882703
1.2235607158225
1.14470147476926
1.14922395544085
1.16082945659527
1.13005248342746
1.13761130374745
1.16658911112487
1.10878870909159
1.16664768382421
1.07892634985465
1.13079191698342
1.12318684809623
1.13724902135906
1.08900982824966
1.18049649609837
1.04127402311697
1.10375330481569
1.05657421140014
1.12800375876663
1.0663561503609
1.10643415260207
1.04377699797676
1.06437372088644
1.03921687672988
1.06615281111047
1.04448878548179
1.00745652441554
1.02083625878478
1.06057520140019
1.03702923878192
1.03414583297795
1.01434971764748
1.03167787491876
1.00105954255685
1.0129677163253
0.960833069488171
1.01300419851734
0.97161115477774
0.97499834064469
0.958039497991004
1.00511743416543
0.911796051726178
0.93253042993496
0.953700665723602
0.957139455096674
0.953539816554151
0.947529944480139
0.924290723756433
0.928497176765377
0.915432567353841
0.954724448875346
0.8899569101839
0.932154023705831
0.906315837614681
0.933003804215594
0.905191912598511
0.899850965564966
0.881615771990362
0.890564825521937
0.885089600711727
0.898125350196623
0.850990720643899
0.889167005104204
0.868531772229531
0.84698111676236
0.848531994050323
0.86919262571641
0.84031825405397
0.849793327558991
0.808085361828033
0.809040046689768
0.79459971671772
0.826600537657614
0.800456870548019
0.819125505949735
0.797637880238321
0.779463412310271
0.787414703560659
0.801314927655892
0.777720178915883
0.79614647122947
0.761467000143651
0.788434959080407
0.744381288392719
0.763684901112125
0.755447023837909
0.772957970288084
0.73748628143562
0.742670730581928
0.732417662822474
0.732940396986352
0.747345025350835
0.747531119928541
0.730161131297647
0.73237944900539
0.730480462647176
0.734368525373237
0.698560913621099
0.710581525101338
0.715709082915041
0.698106157094398
0.674076496815612
0.710807270499277
0.68871300103403
0.709906251765476
0.691091336725589
0.678062786920588
0.667122911885355
0.673133140357015
0.658409072205169
0.664572273236726
0.649413155846889
0.6824583006009
0.643987107494705
0.662933310993549
0.648196034146146
0.642403218332324
0.636838021499501
0.653719342268155
0.635595299913935
0.64206697782953
0.621184299335283
0.638372965113618
0.6103792116763
0.620182416572365
0.611621125115381
0.62115625854562
0.595304762040338
0.619445935313479
0.605309412742607
0.603141037736846
0.60394800646726
0.602451552950224
0.586860325409239
0.592356565597751
0.578969066155621
0.592099475292408
0.574347875549815
0.585670080146037
0.56662357447555
0.590162797261249
0.56464875015653
0.578850141224088
0.565927294015023
0.563440430645925
0.555309949473209
0.552307963445624
0.545053581654545
0.555536015335442
0.540164874219088
0.555132769004839
0.543679508440818
0.564120969475172
0.53740254606749
0.546643393740406
0.532310054707843
0.545327034448699
0.536260289838742
0.534475551986155
0.521406283441662
0.530037653872161
0.523412329283133
0.531150782055729
0.5084371715488
0.531948621403812
0.511855120138138
0.5200401109873
0.519798365262919
0.52398468018237
0.513855994801834
0.523815577295905
0.504526743857634
0.499972621729866
0.512022683850036
0.510692747884892
0.502936707084408
0.51087600140358
0.504999395941
0.516183638163745
0.50296740069414
0.508633914450511
0.499341263136662
0.50201622871693
0.508218103997112
0.502645654216269
0.504626660059573
0.509634083079294
0.500033744762963
0.511020268849681
0.501309132233087
0.51415635260278
0.502545191668417
0.525637255686174
0.50388240548928
0.516086763151518
0.516990130856621
0.517365499514695
0.51130413818901
0.521430267360657
0.510157832705665
0.527042234880061
0.512978488987753
0.535066139804276
0.517795718455104
0.542231920508132
0.523008873236672
0.534511963884215
0.5330420372294
0.538293178565707
0.534535178945649
0.545639117862612
0.53870230045874
0.550939276191624
0.530439029950993
0.550143075873125
0.536848940065613
0.557230972830453
0.544383029256065
0.566896195504938
0.546944225945371
0.566252120041245
0.558299345124844
0.57373049003327
0.563581984060294
0.577173262404417
0.563362748118314
0.587819925190999
0.572682428418597
0.593582426591971
0.597016551259139
0.614872543967208
0.594368251896394
0.607049348101121
0.616864920879131
0.624089639440585
0.619268330755752
0.639020688782978
0.625201418889202
0.638855574525532
0.632232923697783
0.655198265854831
0.633470828625491
0.663903889476878
0.643512011432702
0.664394037920253
0.666987210643475
0.665969928370237
0.645416777269096
0.689170135634941
0.667397369844347
0.69359910138425
0.660592790965881
0.703123589043439
0.665464223759066
0.686202462126774
0.657746096946884
0.686199948086899
0.665628317364829
0.690821890508232
0.659812022440907
0.676390818027175
0.668030868567157
0.665372180407108
0.658633545027192
0.656580009368651
0.642601467895949
0.663260470724738
0.658639403328812
0.683783161655786
0.655105905570872
0.665233056358385
0.657089033086925
0.659707010975834
0.651206469106745
0.65481503339136
0.655955883216744
0.657650955986954
0.641241259033945
0.653666552677303
0.646220299245035
0.655948948911808
0.652375828694423
0.652243904845619
0.648920236034877
0.664865527556657
0.65085011004398
0.654734406341498
0.645942450035088
0.666848077910675
0.639730698633583
0.652052201267361
0.629943129408853
0.646231807465794
0.659510869968888
0.656570433692149
0.646744397980641
0.657899760053701
0.630971452186344
0.639394521187001
0.629655892791509
0.64354159210897
0.633490873490634
0.638295923368786
0.62652374888899
0.632582649677328
0.619481924446516
0.631701819367495
0.618917448419723
0.614896711087946
0.622534969028806
0.623952225058646
0.617856082036795
0.616364298075001
0.603050447215512
0.606949770115841
0.590285403067276
0.594640901441952
0.589903077955119
0.603793520890254
0.590535575602022
0.589597455744586
0.58208406423174
0.584035734327811
0.56825704408125
0.572853601387659
0.554008268216351
0.561925110005851
0.537065942683734
0.556950160610375
0.537733484850132
0.546635681571377
0.534237702409363
0.536265703548708
0.521755312726799
0.527745829456917
0.522317264557173
0.52160031591192
0.515406263039014
0.514096254449413
0.510630611008739
0.520146182201713
0.502002261209914
0.514683663679751
0.500949864896859
0.503849186951587
0.487944487410915
0.490491438281134
0.488060063023851
0.485094798857296
0.480775713492271
0.486897618712436
0.469698328656103
0.483817101040218
0.471195576618147
0.47348040909421
0.463326777146463
0.474322981408793
0.464270864624666
0.465596166742969
0.466126249273869
0.464718689801946
0.462424639237174
0.453361722577592
0.455922689927997
0.470343233206108
0.451475002433455
0.451973440028026
0.443273155734883
0.445767546427307
0.441260362013666
0.44526185897218
0.431200010559005
0.438721038759744
0.435599471572051
0.42979205265469
0.421458463877323
0.431932130778545
0.422188021315978
0.430502493147606
0.422553605568514
0.424939288523094
0.421474672322002
0.419897120787086
0.411808561654004
0.4177165722713
0.411597531311801
0.414253118030807
0.407884441734132
0.408481421619178
0.404794191252993
0.409182865309956
0.403420917589486
0.410591320022705
0.396674325015213
0.406039409731628
0.396725072740537
0.402661770194444
0.399632878582856
0.399463063701202
0.384522411906168
0.398636815734365
0.389270782504542
0.396938109613807
0.384381770423546
0.390423054081247
0.386317896262857
0.393408845334762
0.388633212528208
0.386228543635442
0.380194315797061
0.384359436584348
0.377053157044226
0.392081495726636
0.376766420816255
0.385339087320461
0.382503731844619
0.383432654092779
0.37439994540299
0.382033137742515
0.376352727145659
0.377977980830474
0.365741663429214
0.378304276730474
0.368626501477126
0.376763834331285
0.371624729580543
0.374290470789306
0.367710043324848
0.371025523463621
0.367933749593024
0.364989702585814
0.362195465027982
0.368505748626505
0.367172359830474
0.369177076057813
0.361550009488822
0.367834880514724
0.359973669744945
0.365969589307266
0.350540230246429
0.359514717410165
0.353625654652581
0.360092779753081
0.356106928805653
0.357219399850093
0.358754520195993
0.360803115297136
0.355308340352148
0.353793154159663
0.351130149176725
0.351754719935245
0.352355435941898
0.351991289418124
0.346569912160316
0.348807215806564
0.349458511241354
0.352537910857921
0.347543210749027
0.350780367755399
0.350178982735609
0.349115870941544
0.345671219785649
0.352590904143182
0.34308279763237
0.350220110430784
0.348122080187251
0.348959474900952
0.339852198162154
0.338308756743915
0.342296314135652
0.346297465353325
0.338609023521499
0.346848019199011
0.343216249723943
0.342336383811583
0.33561755985723
0.344328395383836
0.341758146668636
0.343542782964791
0.336155126414671
0.340815616073432
0.338633219430888
0.341505565673866
0.334861484715149
0.337669891293087
0.326589315195529
0.333361621176509
0.333895836823153
0.340683681578614
0.330548383166754
0.329710160066919
0.331797018807601
0.330399184648105
0.330912008343819
0.337599935478083
0.325575081233849
0.331366085527977
0.326904645138745
0.331960115830009
0.32443998830949
0.320874101033954
0.322157730619546
0.330844256343413
0.322048692309797
0.320665944119316
0.320743021591561
0.323395303798451
0.325609730515937
0.320173620164985
0.312870303148812
0.317213941751462
0.313706096036683
0.315824630402123
0.312909213379426
0.317509546951889
0.305961083705802
0.314207804676508
0.312975757379571
0.312797593394506
0.309844021061165
0.317286399705075
0.318419836613131
0.313890920499493
0.306099171641262
0.308765346950619
0.306135677539713
0.310569966191572
0.304497601007357
0.306755402379094
0.30962097256051
0.30572314988262
0.305087243345554
0.304762498143353
0.299077286345365
0.306154128353353
0.299354451370941
0.299022807464863
0.297001766082635
0.299699080535995
0.294206616786341
0.299945518138579
0.299195517386283
0.295314774380323
0.294073637854572
0.29620904677758
0.290165801197368
0.295651234731169
0.291700791978302
0.292588899957643
0.288668813582784
0.289032481902203
0.283388069262483
0.288018692256467
0.285859915339441
0.283426316906048
0.283179744802947
0.286910075653878
0.281834751932628
0.280439091344586
0.27931547254947
0.280287960465033
0.280839540773319
0.274793816927947
0.276534658694076
0.282517876166005
0.273158240906584
0.277451854700321
0.271675348398767
0.270881323029772
0.269093394111569
0.274443271800709
0.267064659792191
0.272134226911975
0.270052900515987
0.267146726382426
0.266270349575095
0.267623291114959
0.268136426177109
0.264107867464832
0.262271637480239
0.260906954818678
0.26207741726182
0.265703472741504
0.262227428166976
0.258777963916645
0.256154755089793
0.259916052076679
0.254777669212786
0.26068657228295
0.256932166807686
0.25798462338391
0.255054059980827
0.256079606690893
0.254637806073554
0.256913680123361
0.254580278349573
0.253599651447276
0.253359186059361
0.252744716683386
0.251000689496902
0.257029170624117
0.250511735743849
0.252425158110417
0.251568048925982
0.249923656265426
0.247623512343065
0.2451817014468
0.248133689745904
0.246238268251728
0.245955791151656
0.250815836796447
0.247494513237065
0.246495508872761
0.244557888604443
0.245499441801694
0.242939538715918
0.24460389117995
0.241708256981474
0.245534523777729
0.240454015681867
0.238737082449694
0.238245962593624
0.235116784844935
0.236385855270653
0.239949470406116
0.238129608276291
0.237623933282783
0.231903690492416
0.237184159664625
0.235072216951154
0.235969196408977
0.236429688168812
0.240033596650621
0.235848777441291
0.233724274042652
0.234472364254961
0.233846816348213
0.232007513679914
0.235261454573172
0.23094114062926
0.230889462943804
0.23146432224278
0.234271659804208
0.229153565867088
0.232006962401718
0.23252659479505
0.232160736003479
0.232734298378787
0.231896965747516
0.22434886466272
0.230380616886342
0.22838913539714
0.230126950281481
0.230029529405259
0.22957692388214
0.228269925053769
0.22941877943067
0.228739214971437
0.226138081886653
0.227701453953041
0.228133656214871
0.224114408597438
0.227158892065391
0.223628516036966
0.225382973115865
0.225632558872881
0.225502712253493
0.22263840962854
0.223554646433864
0.226153485158939
0.226142830965629
0.222226088187553
0.224202483499071
0.224248744571447
0.222676444813986
0.222553013981138
0.223526606771961
0.220687712415882
0.219822355338865
0.21968451656625
0.219499910101417
0.220483556727341
0.222536869193731
0.216370647878036
0.216208304742159
0.216314093747354
0.214181990218644
0.215300936534229
0.217454020686516
0.217907123048914
0.215116894704802
0.2135720890479
0.214405220731629
0.213775351146364
0.210274687035585
0.211925957711435
0.216001398931358
0.213179748477574
0.211461151305377
0.209834941181813
0.215960722012735
0.211974620035748
0.209039211193407
0.211900088764331
0.210894585057072
0.210236668113573
0.212507940350051
0.207504302549055
0.208480495644518
0.20790138502587
0.208387025230556
0.206848873013645
0.209384977963307
0.209540340457527
0.206304254878434
0.208036218468326
0.209463911644905
0.21204576332865
0.209566215347237
0.207965566479823
0.207260352101963
0.20810945070781
0.203585289119083
0.205784896324836
0.205342417656918
0.201581065409426
0.205733274206374
0.206445722441962
0.208405097526299
0.204833052245785
0.202105780930105
0.201851185686566
0.203083354147296
0.202807500511953
0.202805047710198
0.200987839517295
0.199224051944888
0.200150868265502
0.202655529296075
0.197561999024987
0.198105838336025
0.196898012130644
0.191722414910907
0.19568836539198
0.194821132859165
0.195086243681725
0.194279780387246
0.194434581155386
0.194497586643533
0.191917143778017
0.191311792160125
0.190546123419647
0.192668409215422
0.190123117837679
0.189404439200988
0.189295668486129
0.193502401020106
0.190278257426141
0.189029989059635
0.188154173176933
0.189431400464783
0.190969735852797
0.184315048370205
0.185712928472095
0.187182686860418
0.184276646303658
0.18468147235946
0.184739802386634
0.184135879823607
0.182888280690987
0.185527922595306
0.183385612563159
0.182780174964196
0.181675381057577
0.181071238835875
0.181295067021499
0.181135283832707
0.181966072498292
0.181479923700333
0.177214602703553
0.180154586068852
0.182182635125679
0.176725346380424
0.177170596616595
0.178756729378983
0.177838209741724
0.176117474039186
0.176385589420756
0.176959160859604
0.175697917888654
0.172917795040425
0.172386228436308
0.174795866121004
0.173295372743688
0.175241677320551
0.173921395941115
0.171847172053677
0.172754298506486
0.17379456754235
0.169623380432243
0.169200279010146
0.169659759348896
0.167605429930549
0.166263823838275
0.165477791871166
0.165142731136699
0.167225650846305
0.166373735963076
0.16626162410351
0.165694289830475
0.164923242380525
0.166301906934039
0.164301683665626
0.165515860150822
0.162268708476344
0.161086285930416
0.163007496471862
0.16083482667268
0.160983646473435
0.160313115378162
0.160400133979082
0.160793769028475
0.158596276533021
0.15839437205379
0.159090275240542
0.16066351999994
0.160902462436491
0.161076839952745
0.157904813504544
0.160119770250523
0.16131434571133
0.158772230913517
0.158737510662723
0.160443172193203
0.160824411040676
0.159156304848037
0.156117754155074
0.157719313080752
0.160512002550375
0.159047802162379
0.159796219569105
0.159056901274654
0.159134814800826
0.157664140695655
0.154750550370558
0.158630674377662
0.15595621231439
0.153284762374298
0.153406390933783
0.149971983121336
0.147377861712208
0.147078639105416
0.149936556436582
0.155229472054588
0.149615283112391
0.145808154776159
0.144907350125219
0.143402283045932
0.145621433792475
0.147317478889382
0.14328631409763
0.14371017167516
0.140495795488345
0.142551235739793
0.139628081485555
0.138155175318531
0.141672500018958
0.13968586419291
0.14224557046361
0.142476552042452
0.143167962758702
0.149102607642761
0.145526756841978
0.148422669632187
0.145228391586578
0.145546582100966
0.143789631748915
0.148205958737507
0.142595908274302
0.144861198016425
0.142620422753101
0.140951329565066
0.139941556073342
0.140790035777871
0.13997150775003
0.141342472460328
0.136884146233825
0.13455619166006
0.132986043396139
0.137216002511146
0.136378986629154
0.144136030267939
0.14405601252506
0.140091769462263
0.141467047310724
0.139257940754688
0.13850101162878
0.146275799177145
0.141675532135786
0.136735525747662
0.140440316354623
0.146320209986997
0.151876471332613
0.141382048296797
0.140929453284789
0.143380232998459
0.152370765590124
0.134869976580843
0.14561677642495
0.14346788517067
0.146293624894293
0.139695267777498
0.149373606919493
0.141351167147755
0.144287808030834
0.145172081348067
0.142440294297475
0.14633971383553
0.143079756333219
0.144177786806136
0.1410723902592
0.142900114057035
0.13880420852308
0.138394030577745
0.141358474273026
0.140358944519396
0.140027105294002
0.140425640591147
0.140646198536757
0.136091129939015
0.136675843398902
0.138465913457786
0.138825605266823
0.139717787509118
0.136713732238895
0.139153405183655
0.140422688073731
0.138330800299512
0.138404358385099
0.138110409723744
0.139764326183884
0.139198698597366
0.139164314311868
0.137070976752601
0.135891640480487
0.137642932758291
0.136514810772694
0.139093397510386
0.137956525261558
0.136992913066994
0.140818482789175
0.138255416323312
0.136956325684454
0.138660653224132
0.138116215711057
0.13703105510874
0.136696411373149
0.139798377143956
0.137463079442454
0.137943585933249
0.1392518381442
0.139464126735292
0.139572211487978
0.14002109607346
0.137819469994302
0.136593886177627
0.138691455786497
0.138975458597395
0.136717299981916
0.139483785916185
0.136219371898954
0.137369656112819
0.138491955342163
0.139882300095008
0.139279178539847
0.138201002995589
0.140275425432519
0.142890938539748
0.140842306682209
0.139368077728656
0.139676524789659
0.14089194959414
0.137030879612696
0.13729487992218
0.136472183505977
0.138077372352231
0.140700269321752
0.137667707442856
0.135672922355935
0.139300231531868
0.138924690833628
0.137876292613453
0.137677509656613
0.138859232300656
0.138563968005533
0.13726416371558
0.136163936569038
0.140377342495034
0.140021505422137
0.139411776824294
0.137434481150649
0.137950052029245
0.14004417286404
0.140013612837712
0.139981132845417
0.143225274047657
0.139896954246903
0.138417667370323
0.140076511439629
0.139856708338803
0.139150797509142
0.140775563669264
0.141075990934444
0.142542289130686
0.141171236244102
0.14193086017963
0.140953986453371
0.141265223920405
0.138671352455113
0.141320374015356
0.140550246474651
0.142383838923297
0.142563749209725
0.142168002051718
0.142110813434552
0.144254533280076
0.143569598333913
0.144251522834017
0.142979775965083
0.144049160760117
0.141641538026679
0.142907370925039
0.147561733539138
0.1460921579317
0.141807450194082
0.14481464192122
0.142663530146036
0.144642529312672
0.144822997068559
0.14499624798651
0.14461321662097
0.14543468496307
0.143282897350547
0.145168404661308
0.146811329730198
0.145861958312743
0.144847822122191
0.146739738862856
0.14419716179238
0.146101216984913
0.144283370773614
0.145959432917643
0.144014121229851
0.145271391546637
0.146014841758361
0.146715333423539
0.144062622801535
0.145386622487909
0.144611683967441
0.144964788484966
0.14705698505977
0.14958412476447
0.149100819227864
0.148702416317388
0.146267447990169
0.148095527599604
0.146202993748471
0.148195809455297
0.147129451013598
0.147920125269323
0.149173259428892
0.149696179808115
0.147806569697956
0.150288029063078
0.150574575502454
0.151736960041472
0.150631274626012
0.15193659805523
0.150089226942415
0.150051908897361
0.148695524808592
0.152227135012766
0.151067449710412
0.14989930878742
0.148626020320041
0.151540682097604
0.152630608030828
0.152831889812063
0.150229399850521
0.154368920190985
0.151514853868875
0.150232359225504
0.149363576524063
0.150605833404908
0.148308941040121
0.147501837708998
0.149901674970425
0.150254185455266
0.149046163587844
0.150545735936356
0.14774392987995
0.150208802399696
0.148502482666606
0.149785226562326
0.147297904418456
0.149656436391527
0.146260878176846
0.147295666102321
0.148699763320879
0.147292857099368
0.145267331913559
0.145642435895384
0.145804277442948
0.147056401914947
0.146562100842515
0.14741840085931
0.143553074016061
0.145574702209084
0.145638651048553
0.145488764101596
0.142510123081182
0.145040771301984
0.145133899921932
0.147222081731752
0.1470324991874
0.144884363584279
0.145660205226971
0.147138279164634
0.14315089022924
0.145298617595671
0.145686657594826
0.145805141454217
0.140515635061607
0.143618235531175
0.141844711413697
0.141641631444212
0.143153812877331
0.144438665652472
0.140097948584681
0.142525770171051
0.144477859107186
0.144997102009278
0.141323095705825
0.143997894465865
0.141135985047636
0.142261414300062
0.139987523270327
0.142248947284874
0.14272289455659
0.143168418267213
0.141662763303444
0.145258891708029
0.141265831177327
0.143762957229453
0.14279300438214
0.140661417140744
0.137702127489092
0.14153629736887
0.14011016856927
0.139659938740287
0.141427614816566
0.140569577615768
0.137125668472366
0.139583243929745
0.140336423631138
0.140500736024485
0.140324588476072
0.140034696934942
0.137158439788083
0.140684507466306
0.137181720741585
0.139574946738053
0.13679772836759
0.138483565249092
0.137612164399764
0.139223725646391
0.137676056905422
0.139333346641907
0.139687001410068
0.139379437519617
0.137436051126786
0.137900887273031
0.135722572133368
0.138340757235472
0.135677132837786
0.136694422723651
0.134436024019478
0.136351548049573
0.135719178937653
0.138394552746756
0.133814696296952
0.134563734281733
0.13500536300116
0.134707432433321
0.133868675391206
0.135256354175841
0.134116825071863
0.134355898346375
0.134276433767491
0.132464817876642
0.131261997825105
0.134100395251879
0.131417330159872
0.13463210421596
0.133902970677685
0.136119094838407
0.130813668895329
0.13223932164313
0.130359587836046
0.129987803582882
0.128803038556389
0.130055294979222
0.129872424508706
0.131863504509106
0.128414749819091
0.12866352964527
0.128574790433103
0.12773808720708
0.124580978485785
0.129044056349946
0.127414953880964
0.126541604197356
0.123669441135748
0.126959625426309
0.12133754738373
0.124330652452526
0.122230221206742
0.125364397153697
0.122846068823457
0.125923891032178
0.126342296148337
0.124249392452095
0.11849553335155
0.119151795610756
0.118577313187081
0.117545529840324
0.118296541445944
0.120765417319129
0.116239717352705
0.117250771841548
0.117206343338766
0.116223133303156
0.113791158734104
0.115928170552794
0.113947344001462
0.117117396219869
0.115113524150241
0.113376880202686
0.113377506492402
0.115687640564669
0.112273070571638
0.111358204061075
0.112933726810367
0.112574543252753
0.111067112117291
0.107720290757731
0.123627957798514
0.124083892965958
0.115056166854023
0.110775116717024
0.11399930195461
0.114032628047873
0.111247731624647
0.111442375935804
0.111106627654248
0.109419176698015
0.109310812070156
0.110798185690943
0.108464482663716
0.109904320049903
0.107852880929908
0.108422348869692
0.109426174135463
0.110717256795207
0.109595337046436
0.109862287117567
0.107980630872763
0.109017703048048
0.108280583840453
0.10686949575254
0.10657237329066
0.108041516847522
0.110064717562817
0.116127092030894
0.111738098891533
0.1101168875678
0.104782776246133
0.107555575159981
0.105228378710475
0.107990376273638
0.103751282029122
0.104717525627565
0.103013078107939
0.104120373785957
0.103158614929659
0.105925989272049
0.104139978166612
0.104444704340599
0.100203615724443
0.103431295104524
0.100318216855675
0.103864324104755
0.101407298645708
0.104968737963706
0.100423654025667
0.103115760080031
0.101581170435824
0.107879677573388
0.0972747621962534
0.113860695977697
0.115254727330712
0.109877150972581
0.100415562161744
0.104514122901857
0.0997374507449907
0.101275760610224
0.100560081868256
0.0991303608405122
0.0968771695254199
0.100464092588369
0.099913652887705
0.100829088983574
0.100832264816732
0.102546597721269
0.0973725976451066
0.102718774553823
0.100197773417054
0.100311643984863
0.100145518599461
0.0994967056331573
0.104894781357391
0.118272028522307
0.101771913898208
0.10623055517019
0.0962534377795975
0.104633901792652
0.120806103336577
0.106240510438625
0.101675341109073
0.0985046480740418
0.0985053717710869
0.0950996846048701
0.101633679618483
0.0933647553223429
0.102733594412934
0.100917993844778
0.100309055406352
0.100329652074052
0.0973585899283207
0.0953040987083974
0.0972213655502431
0.097362934755452
0.0942343683481125
0.0949155065212197
0.0957263209235844
0.0967734504688805
0.0955498074811862
0.0955208403191802
0.0961665990451927
0.0914812583558504
0.102287097223279
0.100111741895615
0.0953197688932008
0.0927252719551048
0.0976410100836222
0.0884150692731631
0.107269018663778
0.108684417326147
0.100015670414208
0.0977894372189609
0.0956223032380514
0.0969925115355283
0.0964402612867432
0.0959821441869899
0.0939261389385088
0.0936837955502603
0.0932284482200648
0.094738744137311
0.0951121955926249
0.0938904405684022
0.0911947135321496
0.0959039472287117
0.0916050341904434
0.0953348177967919
0.0916776602152374
0.0972689010291186
0.0951513464295154
0.0976531114452801
0.114549851045229
0.11530320508564
0.117237710637214
0.106163554209935
0.102182197113325
0.0934660702217668
0.096760232621151
0.0940327008131753
0.0960911622355232
0.0968768843712359
0.0956694006437193
0.0952359103072942
0.0978707762509445
0.0919142608961133
0.0972229382111185
0.0929033696452005
0.0925811897831993
0.0906756048673691
0.0962084660032894
0.0935848331204115
0.0960372859779803
0.0925872102671767
0.0958380132753285
0.103598575478092
0.102486301550266
0.0988449913462261
0.0924625352549712
0.144769487255215
0.10782566526648
0.112901520056856
0.0933295704302298
0.0986656891085828
0.0912898459009042
0.0948891759147146
0.0918629039623365
0.101832035323566
0.0938252110281514
0.0981883097757829
0.0922204236993482
0.102546729244153
0.09481879131282
0.0937637869988729
0.116559748033402
0.133358288373263
0.104962859262477
0.102844568938062
0.089251145279505
0.122596763784141
0.118161462564435
0.105650264119145
0.101300974511558
0.101712007431927
0.0999534011612451
0.0971285675015749
0.0978128067199306
0.0990960411574877
0.108385154272783
0.0994779008546117
0.102610659170713
0.0980705111386962
0.0978595643342702
0.103975582791392
0.104206857633799
0.117630936850998
0.109787491253015
0.107543291219088
0.107825387278357
0.101642829225815
0.103940082210756
0.101952140714454
0.104120022267222
0.102508876780174
0.118097503211625
0.114289573966142
0.111066387154791
0.122828220018442
0.112389487102348
0.106013385682097
0.11054519140829
0.115201444198159
0.11813414001759
0.0947767522374123
0.142004761963547
0.121527539668703
0.1440618356188
0.122059578369286
0.115936333231025
0.106247899038926
0.109019349596998
0.0983673372804101
0.110057249209411
0.130149659402699
0.109371171540876
0.1136903508767
0.0978540204474537
0.134315992601523
0.119121438082457
0.123465725002141
0.110379670579181
0.112374292210451
0.110076207474297
0.138964602060028
0.106211048859344
0.127098810453359
0.13990449357107
0.152197154874282
0.151688270826405
0.113413544364406
0.126904616925724
0.147904166720858
0.122730930374908
0.124459696417537
0.113422171412349
0.1272080612752
0.107753227873817
0.139090245367244
0.151954321791596
0.126155295195634
0.124444595347573
0.121274378506418
0.126613762314593
0.156642982066182
0.132017662643982
0.128402630288976
0.12557404902422
0.129424303641582
0.127282348030188
0.201218299137922
0.130555709015067
0.169994541212525
0.144734753861603
0.167003025594589
0.142930060327302
0.154545137980089
0.135546776498654
0.169920851974694
0.160088202323054
0.150006008413706
0.126736903003301
0.19203631035314
0.159158949421478
0.158443226701533
0.152898141932643
0.146487652793501
0.153212250532572
0.212819976676858
0.212114246900366
0.198257345668628
0.15565847425181
0.173087952900936
0.188948654544731
0.170333983276057
0.164217768123389
0.166172428615793
0.165406245858796
0.168649627880833
0.171203570096446
0.18616863547363
0.171215650283081
0.186210750645783
0.167989512803785
0.194306499685894
0.200245289970943
0.278510597114327
0.214859229204923
0.21127744490871
0.231341818198314
0.22011230540169
0.20649050329194
0.194463414186455
0.197606437943207
0.207652288309438
0.203790669223142
0.20271699019633
0.202743987792302
0.247355088646741
0.212626653272617
0.253154518826364
0.227623179136268
0.230927174033858
0.212521081714626
0.269071938888021
0.382413032351632
0.259740865520229
0.264936279072336
0.234613254827555
0.304248757916288
0.30090674768982
0.270635170681642
0.254281317565046
0.259419513324334
0.251979921762872
0.272866948594681
0.275288348100399
0.288368091819458
0.304998312308652
0.28965639751475
0.291778603665185
0.339393909876022
0.39584929455898
0.391031347180439
0.332290572748137
0.323624266073865
0.347907503866191
0.358860107542204
0.334339984873832
0.356603306636948
0.338380728396853
0.400686353019951
0.404176088592426
0.395179370255383
0.376042001615726
0.400671081407416
0.416971393654549
0.396577659493895
0.487901016565386
0.43270005419693
0.442844776622044
0.407935367686392
0.446407860611923
0.423602947131131
0.446101452385841
0.475974101152987
0.487050392977962
0.464396041325541
0.470993844240373
0.470357241748641
0.479338122904597
0.491682911336744
0.492161539093686
0.498323977335182
0.563091077420958
0.57621714542412
0.793474894642394
0.54241586565959
0.540184928220588
0.488915878702956
0.534498958464764
0.546572886242811
0.553040583412011
0.590618859228758
0.566079680664713
0.528940550783248
0.535991431831498
0.540890361047876
0.535726616352229
0.536210865813453
0.535968597727822
0.535092715288079
0.586452395855067
0.517842051151906
0.674692621744709
0.591513489716387
0.556302850275211
0.514309673722012
0.53659694502427
0.523125797347284
0.540201260005913
0.508771763572099
0.558265210674987
0.532689306606678
0.530303804874845
0.517181275831332
0.503164559295319
0.554443812217828
0.536960550610616
0.50641978019268
0.503024744054101
0.486117802049777
0.499210418427207
0.467624574827133
0.551654978802696
0.512031558306106
0.487191117038749
0.462585143602311
0.465603379999543
0.45366523433164
0.455095083947483
0.438175098654873
0.453813943166758
0.442045611442975
0.446348619092477
0.440104851536291
0.437113412697149
0.429803833401071
0.429007825036017
0.430379860593679
0.427333303072465
0.421274222812443
0.419194526246778
0.411765727398777
0.410635522988038
0.402918776873069
0.404404137416646
0.40201813883529
0.40852235002021
0.401806631166159
0.40319506340881
0.399302603377138
0.397302083554371
0.396246062355829
0.391474215995305
0.38529282437661
0.387570769753978
0.376368016307783
0.385773277958812
0.376889215321194
0.375371280358588
0.373926994431235
0.375059325391234
0.374277303488062
0.372434513280808
0.36952393266627
0.371876798013834
0.362050360628882
0.463678273491742
0.378892732582375
0.380736574358996
0.345831277218936
0.364197876105801
0.341822503192372
0.354091613718738
0.412463212461601
0.376320197118435
0.350894343438888
0.340946940372443
0.336153816525141
0.371528095180158
0.336355855400507
0.332971990115311
0.328409203428707
0.323536057991377
0.407021814896388
0.383473948150971
0.474526841979258
0.399079021354113
0.351996195766162
0.307920203819083
0.358360921049425
0.347029727115682
0.31706346129319
0.311695491546396
0.295910644025431
0.373068884046982
0.311556677385194
0.308831400857433
0.290714142673049
0.294031467000825
0.332864391132083
0.334629959287416
0.305974195774187
0.351432122448821
0.330699662299059
0.325870914329878
0.359182387691562
0.377425341522262
0.319574052069938
0.282432052033577
0.292372273700131
0.276387023601046
0.308341450204428
0.347469199318606
0.286317431014662
0.30930597009457
0.26459329937091
0.280572661591438
0.269535974333025
0.314474542605731
0.276008574510358
0.307986751438562
0.309337425500833
0.271120599464546
0.298373116855713
0.29349075131411
0.346917440669291
0.336322300919223
0.285001434851571
0.259542083162403
0.327500874026823
0.307850125843422
0.290630388912942
0.291105890085824
0.255985420114449
0.28006402263128
0.295271109272073
0.266405527039724
0.298990045308309
0.289000822310849
0.314355658658229
0.352094895572813
0.372904606300007
0.340860229214382
0.28106381846498
0.271221469573494
0.262803404317155
0.279637145595103
0.273320597411105
0.260482656398121
0.332600379389853
0.269743340398876
0.295776930319781
0.33387340979235
0.293203072379454
0.28733187668715
0.288570520512753
0.287894284136358
0.303710656179367
0.336803296299422
0.365345791032983
0.317499708495368
0.335507456276078
0.337927786131622
0.324390124405736
0.323808347613666
0.328701348949607
0.328791762933088
0.338992269174959
0.35806491755576
0.347096780304076
0.357081909381059
0.368469460186055
0.361320735723612
0.420231532013835
0.418676143026318
0.396037415942577
0.443938994554256
0.430956442965158
0.505351957163826
0.42989649251627
0.446433573915316
0.439117413079482
0.452553106653009
0.459331587018793
0.458508239042666
0.485294824830921
0.519773363493844
0.482886532355406
0.502396634839818
0.492403169607752
0.508857591889673
0.503494769357101
0.566999344300191
0.536186456186584
0.667223636307047
0.57308505546242
0.574956131308267
0.536776363111215
0.536646353290484
0.549526834796664
0.553161006256774
0.536726651621798
0.537463233392799
0.551273107228957
0.586918412270713
0.546286761083134
0.559806444798816
0.548396682150714
0.566879301682131
0.558857550305117
0.574388028005284
0.571400058384058
0.574477553550377
0.575278083791649
0.580134912586065
0.590401129625232
0.67885150851009
0.60241163839392
0.615532095930312
0.592040642701487
0.620911692040979
0.595358106466673
0.602434531111594
0.636567323675169
0.6354740009073
0.62354385571073
0.62566868560938
0.62734636108429
0.632208231856254
0.650186944865792
0.686389914778887
0.636645275687306
0.664489832579055
0.632106868640315
0.718022467467947
0.693947665371821
0.691935057901365
0.675947652330798
0.675372414723879
0.668571231101809
0.663402904252186
0.65940282078798
0.669227073113702
0.670245968833388
0.672356317520382
0.668499790398127
0.664097823080516
0.661292839085654
0.66620127030132
0.666136669208114
0.692205723862838
0.667080214996826
0.664344097197414
0.658606696920804
0.653144918753192
0.645189136686483
0.683754662570964
0.66817264128351
0.666823237514231
0.650099734191556
0.670747184880038
0.683153482964067
0.669953574932798
0.632007834114266
0.65364329416697
0.645583366981891
0.647865937494308
0.633773938304789
0.669928649510675
0.683399306890274
0.673461509781385
0.656413503728767
0.663102643027656
0.669346135380924
0.676670914727139
0.669544453122969
0.677878617020191
0.684797883627009
0.694695563946047
0.705407609590917
0.711091938404049
0.699899482833976
0.725818803060219
0.724519067031655
0.738122483959792
0.712311965410064
0.722261792032362
0.712344960841535
0.72177832336343
0.718674067364935
0.724930199800441
0.704134036275365
0.719802624092041
0.700056207576284
0.708068243800069
0.752853648130822
0.712097221246909
0.713018067009263
0.711739882512639
0.692649177521818
0.705904471789288
0.6893983789765
0.688733073837886
0.684656073027461
0.685351378665983
0.676876257347233
0.679175822048149
0.672606420242933
0.677949496414359
0.671055915543736
0.672873752211623
0.66949557655028
0.671828836331167
0.66701705854414
0.666450841338202
0.659485469872417
0.656876807429479
0.660795425489251
0.655767225639329
0.679666835177562
0.685618913259297
0.685092691781132
0.664464062623966
0.674580396680889
0.667310732736238
0.659124749265719
0.665048015073978
0.657934317418011
0.666510713856072
0.656379084386946
0.657009767157232
0.657149538964131
0.658492390124834
0.641711148065471
0.652113060624214
0.65101505742575
0.648204554443898
0.641229828300722
0.646444657314683
0.636914933681586
0.640851920389589
0.633702292356486
0.652428899509919
0.629470619497018
0.633597691763919
0.637006166318822
0.628169822054968
0.629750224938071
0.625729287518338
0.629127544885535
0.62860627164222
0.619140940233677
0.617661538283876
0.617305498872821
0.617767240785614
0.614905472250284
0.619884662573962
0.61845280277439
0.611727049269914
0.608265550092612
0.611757392620914
0.607390812931882
0.600924921880699
0.597120850213042
0.594205868950755
0.592414632399908
0.582444050787706
0.582838705985595
0.576189978325598
0.576790798241072
0.576194368724735
0.564740427756119
0.56305683837893
0.562773678866482
0.556854848084322
0.550905505549267
0.554095051176198
0.546581335961052
0.542671165560599
0.542656634587283
0.541760913873477
0.538182489522944
0.539687205484709
0.535841069224771
0.54107394771358
0.536356826052077
0.538969886619897
0.538121676884998
0.542529615499887
0.540291882610948
0.541078209260689
0.545995247860967
0.546456412820331
0.545040034525887
0.54452064372302
0.548108010446544
0.548333888254497
0.552519647122544
0.550470336817049
0.554895146405973
0.559242973094355
0.559575211822421
0.562719856043938
0.564125168226103
0.562630722157986
0.566011270953876
0.567217881217393
0.564448954273259
0.567561938605104
0.565850558373754
0.565649532701069
0.564855257128017
0.569534305028099
0.558508904681763
0.567428170297398
0.561048621115522
0.566882182184571
0.560307828543607
0.561107799321352
0.559784774768769
0.561512390906568
0.559412471772725
0.562627911108393
0.556837417536547
0.553280989362045
0.554859850878602
0.553836770792538
0.549955461708801
0.55181194958254
0.546521828520276
0.551320514441068
0.543857656201727
0.552269094941862
0.540152241672469
0.540639008496135
0.53517248313521
0.538880808103872
0.536479999979043
0.531778276450165
0.528095100252955
0.531756758270673
0.526088688580838
0.519620147311904
0.525554437537424
0.52231054645213
0.518505915574181
0.515409489158588
0.505126451951315
0.503820630546541
0.503543468037145
0.501645405052349
0.498356487468061
0.495555930662923
0.490654689212386
0.490364781033704
0.487878192458847
0.487675023225759
0.483970236785277
0.481625050578895
0.478615758093097
0.478183413284099
0.479382837801702
0.477737952500239
0.475930013810195
0.479989796838846
0.476631940360454
0.474784613970849
0.471772741577473
0.475471404860017
0.471686592556116
0.471366547980953
0.466014312208734
0.464831162247684
0.459735953354779
0.454936331769281
0.449314320831161
0.445426826705438
0.441951092347219
0.435475896898443
0.427048598606132
0.422286201647531
0.416105099807872
0.409390516098917
0.403860153998875
0.403336203207077
0.399585698859704
0.400508043881849
0.400294951484708
0.401341595883593
0.404047719674638
0.41122408745897
0.417360638219792
0.421975234271889
0.430283665957474
0.440499123520902
0.455611043589412
0.463126840425402
0.478740675971973
0.499776695997736
0.512209430357558
0.531006035264353
0.544082956670635
0.566159691926405
0.586295299635761
0.604592229636531
0.625281111363796
0.651826871111382
0.673540899373334
0.701296583552679
0.722694861431687
0.753611239061234
0.772729348229675
0.805947721126103
0.823628513414863
0.859105579909756
0.875557388095919
0.900941916613389
0.921338459426301
0.948191922674366
0.969407933851545
0.971992122163232
0.991747733613249
1.00389613705367
1.01975197200503
1.0197580903195
1.02948329496197
1.02763411077535
1.04473344718234
1.03360873626558
1.02923595964416
1.0202949167219
1.01605581776297
1.01089847328046
1.00381063719893
1.00257998610179
0.988296530452413
0.988038567027043
0.985433467291574
0.97661494123639
0.970749491572173
0.962377736775976
0.960842466512989
0.96864226266989
0.973777167094446
0.970970974239245
0.990722352858629
0.992200467117793
0.988787873612333
1.0008631147741
1.00675461013987
1.02208090967732
1.02993586028854
1.04452922985966
1.05762452825639
1.06783594861461
1.07313510121676
1.09191994646048
1.07808658102513
1.08947460824431
1.10651002098304
1.09918803451527
1.1200169223452
1.12333518623133
1.11258625932419
1.12209653597555
1.12736250505581
1.1428495589254
1.13687344669445
1.14101435902168
1.14680472207933
1.1252455707933
1.15632564368488
1.16117752009167
1.15717893357327
1.16469394090084
1.18407782761089
1.18103510769297
1.17294904375399
1.18749366996773
1.19393929424206
1.19571261051379
1.18723324831199
1.22807112454239
1.24322404947718
1.24417365788916
1.25778867592924
1.28201731779451
1.27286601870996
1.29203631082922
1.31540025913895
1.32982609714319
1.3309961377872
1.36948782929973
1.39143550719213
1.44011886968746
1.46776780748902
1.51746909992831
1.55581383524561
1.59793338353054
1.62373245631313
1.62067130199757
1.67358442478205
1.65915586000566
1.74865095159158
1.69275498203772
1.68499377645668
1.7766448606106
1.76239994989668
1.67477007960426
1.70636886579034
1.76569762828792
1.80575148241629
1.69886180642622
1.73114812447023
1.75512349840465
1.72084373359248
1.72170938222495
1.81052430981839
1.6901564422087
1.74282865702671
1.81633829947881
1.73943816883906
1.82743047534238
1.87851858454536
1.77027551883544
1.77205418349305
1.83757668600657
1.75294356474596
1.83013586005933
1.91985712482826
1.93886108163464
1.99474558145197
1.92107410700425
1.85679855826159
1.98174317776189
1.96073773350314
1.93631511506983
2.1262253505183
2.08367657412088
2.27321380688138
2.12518471354176
2.23254101980888
2.11630044205314
2.27453147308447
2.39328323690154
2.13677316997056
2.38164141269281
2.32335938786217
2.12656569990026
2.65223855373332
2.05093873148604
2.27895979643232
2.69477823508888
2.2486057089372
2.39978864020817
5
2.4222262402038
2.51200358678694
2.44495744552065
2.47901230393778
2.46753132490337
2.76031736237026
2.58077714535503
2.27571891025696
2.39156611515986
5
5
2.62476469359131
2.82852834959463
5
2.4275890192724
2.17449719514847
2.46323147941954
3.4276548517659
2.4523287687529
3.17761034836829
2.27833238198225
2.39948989459229
2.27152637650963
2.40717047375233
2.17810687596378
2.34795023359891
2.75936964964053
2.42724135544192
2.22379094924369
2.25714882618486
2.11048668405654
2.25704107966537
2.17072828200869
2.10209377716741
2.18291943133077
2.26005388350025
2.14353414129166
2.28899419510568
2.02262845353586
1.88178142319196
1.87690291896907
1.93599180744077
1.87396333664496
1.96779961963779
1.94768926567912
1.92269060403169
1.803761719428
1.70899665275431
1.67069713221355
1.64446568260916
1.59836430988412
1.65459037841808
1.5196870584812
1.47588451898973
1.41764384825673
1.35808756571205
1.28497713268667
1.24981440723068
1.17880040819507
1.14025252958982
1.116305843453
1.07450095512525
1.03748912296814
1.00188076270997
0.950429704283834
0.915594334717197
0.893274841396335
0.863569555381432
0.834180464991114
0.819766988625011
0.813872548500231
0.797343349717599
0.77577911893267
0.779112387589411
0.765231108381602
0.752619243645268
0.734793355695483
0.73107785805756
0.727143090317277
0.729246885744256
0.725521263565578
0.732384694821902
0.728732845257184
0.736491540263909
0.736170298503469
0.742343792890194
0.74086015315986
0.74309439548114
0.746420806834524
0.763883919665004
0.760815403537349
0.772836254219828
0.774719756459756
0.781144353709636
0.777485086342151
0.765590561721889
0.765799657862804
0.790582884422261
0.773177020971628
0.767419275712224
0.773125412158943
0.781978970427237
0.777366583588089
0.787526376973937
0.776959663127047
0.787656406128257
0.793766423478733
0.78612332036169
0.787118246833528
0.787999296898887
0.784204266354634
0.78881972279635
0.789189130585668
0.79081109089161
0.786047113674781
0.782078301195072
0.782972255455649
0.796991169595507
0.774591025722925
0.774054427234129
0.771701257183003
0.768309854561279
0.759263419595488
0.752958273950969
0.750429867204622
0.749233626620525
0.751678101562649
0.750661457401275
0.758184019855568
0.742397525372006
0.74445549477848
0.761379032138138
0.748472635560607
0.768827634253863
0.768420316366136
0.794216514478441
0.78380124063629
0.803886813742526
0.816778632365306
0.827802641168918
0.843727417812925
0.856693432892119
0.853211821165081
0.861093628149338
0.845564445641447
0.843138914857009
0.834790298338378
0.833279808498932
0.828285168540721
0.813173325276777
0.796808807831329
0.797234773445323
0.797697650109078
0.791253115991704
0.762143738416859
0.771569932630864
0.771433615270247
0.764537259508241
0.763435202314629
0.78245457976091
0.768238036855586
0.771458570980339
0.782145998578699
0.797536141530863
0.772854969575957
0.772696074049726
0.768982916218193
0.765837375361443
0.766769711091108
0.770627367299011
0.76867931668539
0.789365643752871
0.773994725600112
0.78410552403103
0.775150178723027
0.775706010736673
0.763660685732447
0.767331496488466
0.775318260671637
0.768848332147522
0.773602916424527
0.775678317361917
0.763175647063285
0.790202368880806
0.775848661887817
0.771568496184225
0.776849116742184
0.765304671324229
0.756913648415521
0.775524704099012
0.766418971809238
0.758631494509297
0.73501836844224
0.775211853829237
0.783333737812141
0.762001413328034
0.741645989478871
0.754798099892166
0.749985010705671
0.749980445054781
0.758203890713691
0.74945308115468
0.730409303770244
0.735946361173676
0.734349658815788
0.742336330678383
0.729531623352283
0.732647042355965
0.723376186002916
0.723897275894097
0.695139899772555
0.708914177000036
0.701534521854324
0.703872428149197
0.712592607529546
0.70765508746514
0.697827632929245
0.709415001672389
0.705658258436916
0.69507672821466
0.697998586838347
0.712183457555037
0.712793605055522
0.733526229104818
0.709960170833028
0.709408500211504
0.717153008638421
0.704149402664306
0.726814775634816
0.737221688999422
0.734077636719462
0.745785604176239
0.714650504843878
0.739632947426724
0.770699722587307
0.776142357936941
0.729030396549011
0.720893272082727
0.765976757194742
0.773544150932254
0.781802563832583
0.770624368762695
0.807596016916489
0.798676443591498
0.771760137634952
0.826854794761559
0.845017739357941
0.840217639227967
0.835668511990151
0.875154300752395
0.912008829833819
0.932747539565996
0.901017979013153
0.925639966919448
0.948400675170346
0.980536099906085
0.966237791145857
0.955797701036185
1.03686359139137
1.03004508553581
0.979073382465581
1.04485860839847
1.08715863381068
1.01291795427526
1.01246561200565
1.03340341624063
1.01925584757955
1.06350009064097
0.99368220046833
1.03205123747322
1.09531651360632
1.05174038425927
1.08353601485433
1.12498499781311
1.04946518359443
1.08959641220452
1.11477026080458
1.049808349244
1.03777572085445
1.14211599001151
1.07428604759706
1.01726223939612
1.08198541399522
1.13104907718593
1.07543892621523
1.07027572274721
1.09118316828421
1.11192660093556
1.15080579712822
1.0851327415902
1.03580240358254
1.08509907177278
1.07395568583948
1.07998858316796
1.05764978177788
1.12872006122728
1.07597524939387
0.948574498964022
0.980831620428936
1.02613168360344
1.03413025359737
1.09967842897914
1.07626276317647
1.03865034490501
1.01339776347758
1.13111244657344
1.09160095038688
1.03620487622803
1.03351064324606
1.10166482982004
1.05322452713863
1.07074584728063
1.04541280695527
1.01383682549895
1.15556051051374
1.13041478107647
0.968730877981613
0.995539465843336
1.15077902523265
1.24320078338871
1.14527934495812
1.02666191506026
1.13695862044827
1.0494757566653
1.02723383849516
1.1276083800376
1.08948643057468
1.10245904611247
1.1738490056904
1.10019834996449
1.09879046751867
1.33533945352965
1.148552861516
1.29003743555331
1.1361674451654
1.01528072881826
1.45594593756842
1.47591295580101
1.32282205284554
1.28890147201801
1.15648838575968
1.38941242178462
1.52307599603209
1.10642046889547
1.18993507097988
1.55834920571832
1.65391470275419
1.20114009687974
1.059057586074
1.21430423995265
1.26635451243683
1.23209463353109
1.65081465690558
1.25260788847118
1.24394036619145
1.24995264314723
1.20032534651141
1.4358750113454
1.94444620439972
1.61252907776474
1.18407476341867
1.14940863620015
1.2161240770535
1.42675230631749
1.27762382119952
1.04088972205999
1.41551558648332
1.31216126565384
1.21324525422693
1.16138118271656
1.16581908581454
1.57623518949282
5
1.43895759521705
1.54291088689644
1.49472675776874
1.38467918430609
1.16995104582983
1.28875619311936
5
5
1.83100223255409
1.10883552450432
1.156975237803
5
1.3897139021347
1.41779913213064
2.42826382346165
1.33611538497347
5
1.00555877110862
1.0850973563584
5
0.854338403682041
1.58911056717818
5
1.21437394781469
5
0.920871155122101
0.682341768168247
5
5
5
5
1.31733190040203
