3596
4000.36533379555
650.420452594757
1
2
2
0.110762705639817
0.113010567338767
0.111984368596561
0.114089769417796
0.10390219797588
0.115726293196152
0.110156307604007
0.10661221439292
0.110830286946607
0.118400248084926
0.108136693169451
0.107170518987443
0.0973216397997196
0.108546332092066
0.117699544820934
0.108020255006479
0.102380843312768
0.106776711916377
0.112771906996697
0.103363032130606
0.104298290883884
0.102399909766707
0.102139180603713
0.108142835754654
0.110080316637448
0.106546400753001
0.107414774064738
0.102524522311353
0.10087084229957
0.10869320809895
0.104880959181109
0.1115545791582
0.108492419952274
0.106991129655668
0.109031205448257
0.102165826473679
0.0982584592905247
0.107509769673304
0.104061856349945
0.115727288678803
0.119079296908774
0.108050148848596
0.111809980976158
0.115892601718601
0.107910032617204
0.113682183892014
0.107610976686864
0.107837083530075
0.104120071000799
0.108497156045877
0.105478250465481
0.105848733102626
0.118907763666738
0.115005606230082
0.106461167400497
0.122944714222583
0.109293152675593
0.10218157508769
0.101789031673856
0.109518662581154
0.133614882002039
0.12285709792324
0.0939393201530524
0.107262137637658
0.102457837549075
0.114278396773898
0.0970651610557238
0.11074346653563
0.102528305953762
0.11325339571367
0.0997046738896964
0.127939276616731
0.119835948884779
0.110303116398538
0.107837709108169
0.105116327144406
0.102916116527683
0.102762905856171
0.100743696758155
0.122140957759127
0.113121957455405
0.112278355963743
0.102977783991576
0.101707019143056
0.107577758460549
0.119831106406298
0.0918809483857006
0.119096421738208
0.124940154765078
0.117021180866909
0.0990635971753284
0.105545655505414
0.100727893149524
0.103138872085219
0.106312379222916
0.104387123745835
0.0936370816736385
0.100663866056449
0.101316266661857
0.116365516854862
0.115301993418787
0.107574932694362
0.154898737214721
0.098977883360766
0.168274854337619
0.115839936010382
0.103901576251608
0.151193609697662
0.112630581161703
0.114582435456689
0.0901399446199061
0.111251564967379
0.100511430397189
0.117011711145907
0.0983423806347693
0.135984298656959
0.130411795983244
0.106985320896163
0.105552985247262
0.109864791283974
0.0944003480949073
0.139734339266411
0.1350435728431
0.103486213697023
0.118895173603498
0.0949719278692462
0.109950046499357
0.155011256855065
0.126867762962576
0.0970030069830339
0.102811622062329
0.0928449358503771
0.0958654921711034
0.100784071254436
0.154373590304973
0.102485486989327
0.11160608635307
0.102287799568881
0.127463746708019
0.14931319881584
0.108227717049386
0.101629773654004
0.0983174469440009
0.117558045300923
0.148632320242432
0.106544502224779
0.0973756990528021
0.122067113832393
0.113583971078225
0.0982927761058918
0.10101301689596
0.0950539910484334
0.123672225501257
0.102941245342758
0.0819085458244022
0.170264447830563
0.183733589054883
0.104805530318381
0.166746237377422
0.0955819751659719
0.119657874718068
0.092926550482745
0.0981686424531955
0.0900550987061567
0.107659980311035
0.0967272509457018
0.113974311431237
0.136691516900102
0.101515881046444
0.109715400655212
0.143450855751275
0.12674623234144
0.104647355529539
0.1656625116661
0.109265641363857
0.0995321362729009
0.146820815630189
0.108217021661134
0.0958004377177179
0.116891081847234
0.128580895402432
0.0862449545731094
0.108943255580097
0.0967443089610188
0.112883130705688
0.119525702945762
0.108278560970553
0.101857964678841
0.110475802461027
0.0905957671882793
0.12998170828729
0.154221994251699
0.136551382954348
0.0955495832206209
0.108295444409627
0.0765720281672104
0.147299708321591
0.127312401982641
0.0957277328267147
0.0972500917918211
0.094737666780137
0.0937931422498728
0.0996321179342323
0.0927907964797411
0.100061464373111
0.0839324464020158
0.146967782292458
0.104278137039763
0.100790291195845
0.0958068079720391
0.118315022601824
0.106531064527022
0.167952336687133
0.134349167034234
0.0999623742935602
0.102774987561889
0.0898521161390603
0.123454438603782
0.120473900296546
0.0958796964982848
0.102107587346054
0.0927993704305489
0.100258955037574
0.089970697249931
0.089224705502423
0.0994427689897714
0.0988946547762209
0.0958168985062414
0.10032491744009
0.100398135274016
0.109287153607899
0.0938781937304198
0.0957391323214407
0.101491431904133
0.0940146180677351
0.120035988415227
0.131147099288523
0.0991789408907416
0.105737828063242
0.0946843959870329
0.102643083447292
0.0957234802810756
0.101443806545033
0.0987823573228711
0.109359362515567
0.0967872508048576
0.14918531280624
0.098281553683945
0.0991179648352234
0.0920688613688116
0.126993952650844
0.113704075520234
0.102248743059144
0.0992980495795383
0.0992770061890804
0.0951739966484327
0.109117547609357
0.138065815847526
0.110748199797903
0.104402911092455
0.11895818880533
0.110349470345474
0.106124612231474
0.113384976655637
0.102324226618945
0.179443058062895
0.117445089931004
0.116926148028728
0.182308186949071
0.120277517989342
0.113663737708427
0.115193496708757
0.108072669168601
0.228927913421174
0.144464203294787
0.101163800808942
0.118219241657527
0.131288645149277
0.102582423892945
0.110529525514737
0.119946079970918
0.123352745889303
0.155339359076388
0.169877843880098
0.173155745697274
0.100189496921698
0.156341774417974
0.136435735036836
0.106132671987235
0.110520320092715
0.110714099001736
0.111085126134997
0.131074521012018
0.139815476216346
0.130796956027062
0.1232536501563
0.113650821395599
0.149567646540123
0.1144773068986
0.110213475824239
0.123460076689953
0.123215579477758
0.101633700283234
0.118803740581411
0.111037827148185
0.122202444913286
0.113604885028444
0.125868141480864
0.185136981820052
0.132114129392708
0.132437171476559
0.15632116692249
0.117922689744697
0.116987541077905
0.115343927900412
0.112738905399033
0.107870176893731
0.111022428420597
0.116318595605551
0.155020093370879
0.124495216977083
0.114366186389575
0.120288882577983
0.105156474617623
0.11297604964295
0.116801444589325
0.119328035502538
0.11828240279755
0.118512200370184
0.122067359330245
0.146617744460876
0.150721187791072
0.123933520355373
0.171942922883239
0.156057567177698
0.114228488103813
0.120246877630169
0.118125940281595
0.128986254868421
0.121119776452843
0.134466074681048
0.127314368444538
0.12840247575683
0.153559206218877
0.153960197855126
0.131743504302725
0.157046068467358
0.204627457360709
0.20043199394998
0.145712155391967
0.135700984966503
0.12648918738658
0.182455918641876
0.187104334265609
0.167461772007163
0.173369910239218
0.14331668565048
0.155963765007906
0.144279897321395
0.148700741443401
0.145434651675047
0.15110260919763
0.156906321024983
0.160605920712464
0.154989319686261
0.164338123086976
0.155191278215905
0.168467942414269
0.203339856371271
0.167759323547887
0.156482300108307
0.165451903476848
0.170370031562712
0.213496107386419
0.227048308858676
0.22025420921858
0.227692317091138
0.21806406534865
0.229760663067404
0.184026552661247
0.194325539790014
0.182027814603176
0.202516868927986
0.197367068155182
0.194827182037333
0.188547019183923
0.201231506959343
0.202070102027437
0.210199196188945
0.199801585557059
0.21006676010397
0.204697298347457
0.226283289264431
0.21376856249845
0.218664177394266
0.220985352085689
0.267144822985661
0.308141786409914
0.287933339042412
0.247745689006369
0.241891836975287
0.235708947511962
0.232558722936467
0.246842879044227
0.243307541807159
0.255911181036249
0.265036074846251
0.288255593182223
0.293085350340407
0.296421776430704
0.276273606609901
0.253925285820379
0.288273454248093
0.286153789166325
0.292307554612236
0.306569740066933
0.291600355489195
0.281784727978182
0.318255477352465
0.306836934633763
0.294739785897236
0.318403894729975
0.301586406628135
0.287664236693115
0.297218079270304
0.323922774143012
0.318017572111235
0.322428995583695
0.341195984790479
0.330492768713742
0.334850092126938
0.338835544164369
0.340868675230229
0.361168557680427
0.355051597412114
0.341035753660546
0.354946161602319
0.350090683974059
0.354259936102869
0.362642041323976
0.398123856466852
0.401012727493622
0.412907103887656
0.415314732691707
0.392548654388403
0.387953607186475
0.38271664840663
0.380421516876533
0.38274303509094
0.385281039990795
0.401560254052149
0.401476902852626
0.414840322520208
0.418751626953697
0.41377536072899
0.428618155125254
0.426600564620298
0.431576841695577
0.440107281958808
0.443383226841408
0.462044649951406
0.457063643312491
0.510083025332985
0.499130838803579
0.502602806669956
0.502033843865008
0.479467502606284
0.492308185052024
0.479891111225364
0.479627303722309
0.501118708582169
0.48388265246857
0.498152226333218
0.498474026854405
0.491540946124061
0.519235373287691
0.519124961219228
0.526203659881753
0.541993551019938
0.522340062202863
0.539617739095699
0.532398499231304
0.531401183651811
0.551259432298159
0.58928980973658
0.584115230231134
0.576414732610865
0.576691082641206
0.581664090572151
0.557029274167947
0.583192264190708
0.573375235092599
0.58175989478478
0.604661685032164
0.615564502579469
0.604338687235246
0.633105494083542
0.619651816158046
0.612847059330313
0.636105416419027
0.626943385940352
0.650840708290269
0.669986943748554
0.645225134642675
0.649620790934141
0.630936712225665
0.646804192140956
0.641962527200291
0.67924218284011
0.688114765965894
0.702820387800443
0.690399894592662
0.698758908963298
0.716985686824235
0.717310116174807
0.694459809091484
0.738639674612398
0.731355069502838
0.706764086455952
0.720794345030759
0.713279561443313
0.697730967841421
0.737661040436175
0.730212347489107
0.768265491940647
0.791683252719039
0.776480359320081
0.73787006684294
0.778359923346955
0.761632264831426
0.779402026357993
0.78018514461785
0.806126684829097
0.775838927599193
0.799691521976361
0.782628025551912
0.821227364004305
0.814861181406675
0.792543370290156
0.81230829370077
0.871020340838937
0.826605421304718
0.809872509979963
0.839626331104866
0.866284350166164
0.873909007686317
0.870281527316279
0.847906404270984
0.898850743638404
0.882461059972896
0.87258304830228
0.873512407946831
0.8979386057779
0.873674205131307
0.909830885896066
0.884576143784914
0.844723480890901
0.8409815804647
0.927262841612783
0.956974786283276
0.959759632653425
0.88582250491388
0.933547843274108
0.936959447229198
0.967124730542842
0.948641327874656
0.956447113465645
0.941646492792852
0.998271317412421
0.958309358663227
0.958836726501265
0.940573604012412
1.0137042435074
0.954998266471817
0.97686970554452
0.997629863058228
1.00594167825585
0.993617214361895
1.01214530961197
1.02059843780012
1.03377529178759
1.03865700775445
1.07994389813828
1.03725856068129
0.989109784327872
1.04824185751538
1.14711018823442
1.10734072470663
1.03717314801728
0.997615585860219
1.05178821037725
1.04071436690003
1.14993952135523
1.02808706526543
1.1323832002075
1.17902731048477
1.09697941287874
1.08713252173814
1.15009496973522
1.10057135183641
1.10009508627193
1.02741689002065
1.06652928009889
1.04317482247846
1.12151019953387
1.1038545949276
1.23735879271307
1.14886899014759
1.12433569961071
1.16407899590599
1.21601842657672
1.13643767763077
1.15816351080101
1.22616540793135
1.21780749318645
1.19722969280677
1.29302174163117
1.18245373082001
1.17177177423545
1.1985126677711
1.22678210153313
1.19493493706344
1.30279384385188
1.31495712065773
1.30739275465927
1.15673471990449
1.18838664485067
1.20293767617024
1.27794082700643
1.29787064234595
1.30875147979678
1.17398839697309
1.20767882128898
1.27731816638603
1.27778707300009
1.25379268831048
1.33465927191117
1.2303668281446
1.3124178420226
1.30989839930857
1.33495959393723
1.18280456487335
1.24723893171602
1.32324935937766
1.37784135290231
1.39260673665697
1.44629733210371
1.29738899970832
1.26423181366168
1.31846861413414
1.41352029019713
1.30906754388394
1.34043931197832
1.31612175869711
1.49948534805632
1.4060658135888
1.38641492566068
1.30399221663699
1.30434824454506
1.27432225676791
1.37676374148645
1.45857307474528
1.36716524390974
1.35681471796871
1.56872148326057
1.40651498820318
1.44343501218949
1.35872601871188
1.34603591193984
1.31081425904524
1.62581209989886
1.38316669579541
1.32634766678144
1.32961877710503
1.3906142745255
1.25838742712484
1.36307672045497
1.47536078706988
1.58605853946757
1.44135980238651
1.5303957668895
1.37611279192787
1.44937843901323
1.46348029185244
1.67082343812451
1.37291129472585
1.50143982164497
1.45034262404436
1.54459842302281
1.55247045477324
1.64855138585504
1.55990658818968
1.57166373596325
1.47272192806655
1.57616151002627
1.42936147125515
1.48362083172877
1.43234684562723
1.54558146838919
1.41685082823869
1.47697993065803
1.42900453666501
1.49467394965087
1.50131517014977
1.47316855528167
1.46002967365608
1.60858362384734
1.53358425417353
1.52918829759984
1.41050823787261
1.74597807661102
1.48784569896594
1.60471573793008
1.43682885002088
1.44118580304885
1.47910345830066
1.5605925924153
1.42644135284309
1.44216939775264
1.47910405336244
1.49986635007785
1.56071352370712
1.59444733122361
1.49572606373237
1.48241320680781
1.54958518743533
1.53612188767907
1.46119494884356
1.54320636377624
1.4784958399994
1.63963195279633
1.55753591673352
1.49439564004661
1.46909189403092
1.66431964341441
1.57299942446069
1.77719616360793
1.44561482375567
1.62483156803652
1.47461255249901
1.51800763945616
1.56504944130059
1.44879050175626
1.46328389709237
1.60996204485969
1.53256995216408
1.56266619494891
1.50636580002648
1.59953388385017
1.45323489386373
1.39613217116199
1.47831860907717
1.56667862222457
1.47434100481316
1.61222580843589
1.42973088586077
1.43304119968639
1.53652151071832
1.57482509057219
1.51682364633731
1.55866982739581
1.63818301034842
1.74393724570039
1.47461445697069
1.58144200252243
1.58251622982825
1.60696725299783
1.52356019122154
1.54247798891155
1.50915542978663
1.57056786863581
1.51184097627092
1.58373287839691
1.50138293095685
1.58139246941777
1.60730901291952
1.46335852692472
1.40321614996886
1.57412969729809
1.52153371460549
1.47453340543237
1.44698748849767
1.58827438273114
1.62295779427281
1.55126041713026
1.57928063071556
1.61540599098381
1.47695349184098
1.41944621775933
1.5165130613583
1.54062231013247
1.52176536922222
1.55520828470905
1.55271649093558
1.48497603332641
1.47755674895184
1.57584106295535
1.4838001292341
1.48487073077928
1.58410685738748
1.4873086936478
1.46171246943731
1.47544746755156
1.44649917533909
1.52101348168512
1.48889543587323
1.54583630855296
1.53792980735031
1.57841241873153
1.45909262149866
1.49454781882016
1.40053921956307
1.53417340042178
1.41836783574546
1.46091767055168
1.47807195899148
1.58918969056514
1.5347182831103
1.54861381995802
1.44469842189277
1.5708404857371
1.50562898055382
1.42564557745114
1.45417135576434
1.55718176924639
1.33246016254602
1.48328609435463
1.41118430614712
1.40603427038618
1.39667210495356
1.54294969740972
1.43195972485496
1.44195460495586
1.361854429607
1.51638118492304
1.41257800326851
1.39920336269074
1.39131198452811
1.37185216087626
1.42598488243171
1.3951297329696
1.37553459708454
1.45756195209768
1.34368575409314
1.49770960246212
1.48008515153003
1.40440072053073
1.36048654138414
1.37282518028952
1.33547623324981
1.4098963168654
1.31450763267311
1.34801223859209
1.36775907570003
1.43722414269689
1.31294935512183
1.41568964200864
1.42755450453039
1.48281680555823
1.26213089732952
1.35132522073674
1.22443718688379
1.32842613941836
1.24600275238165
1.34394652311848
1.31621623532875
1.40166333509246
1.28686116764426
1.3105892917601
1.28360319293218
1.31239238377386
1.30530233483896
1.30126518064066
1.25864860849031
1.28071149351887
1.21531876591676
1.30787132394194
1.24838661295881
1.32833820002783
1.20226436341574
1.28322976674334
1.27439851160476
1.19678086568385
1.23639665920749
1.23142456139004
1.19375680064312
1.23426484947954
1.17931661251183
1.20538810162574
1.18258012211397
1.19642341684281
1.16069028903967
1.21721312325246
1.17067029386311
1.15415261984084
1.13787403940046
1.17770041933286
1.13439141237793
1.18206580044006
1.1512155271472
1.14990124795566
1.13276470891599
1.19411332049317
1.13786035095503
1.13705805543824
1.08015612219993
1.09202405426095
1.0509599065122
1.09694401152901
1.06676865300927
1.06770540709869
1.07703035363269
1.09513099317452
1.05107776818761
1.0734169000091
1.05991378437697
1.09169567088263
1.02222105439248
1.06328241033381
1.06037290656122
1.05956282716366
1.02134268406055
1.01166940055202
0.990515605187815
1.00308248750833
0.99188631026648
1.02095662484526
1.01226614159963
1.01707011353237
0.941912286510735
1.00260207171579
0.961932533125403
0.957788742016556
0.951381937573545
0.968967684611865
0.941554958380628
0.964378138270415
0.94433981608898
0.958399305534942
0.918782116538706
0.949742938513475
0.925745603366868
0.909997887170516
0.914497913830295
0.908623580898686
0.881228999457684
0.904348363012521
0.868686880226778
0.893124255048523
0.870964507425982
0.871732946125812
0.877943366673003
0.893081286498168
0.84803538118282
0.868134066890475
0.833147355578415
0.854308936925137
0.832992014445796
0.85795743826472
0.8264239129785
0.829505709500381
0.824877904588635
0.833825844155446
0.810564917625883
0.831517953576157
0.799672814225029
0.824586598781657
0.791699868584349
0.811017512148474
0.79786444412834
0.8011273079291
0.7642958041685
0.778888103112055
0.762419332310029
0.792806695366125
0.761586249642017
0.781167043161784
0.759102055592654
0.750091413481217
0.721134869027068
0.754136742613325
0.724136713039122
0.714854632158082
0.735973820644367
0.73612212749345
0.728762168612256
0.732950462777007
0.706890556363519
0.718846316474133
0.707831824894462
0.718718383675794
0.707338408046408
0.71076724713136
0.688115759201548
0.688254917800935
0.676397347481525
0.695831590478943
0.672145120360952
0.667646432868122
0.655700182487225
0.679264948018843
0.657752722326461
0.669825775276749
0.662527298028945
0.643883812423409
0.638376765572405
0.648941960289955
0.646353276551152
0.6586291504815
0.63417914432643
0.640474893039335
0.621201375461823
0.631257533058368
0.608029564206674
0.628203311775493
0.626804518609262
0.613720185610935
0.595248823994356
0.613983664467666
0.5944867885916
0.608588618924536
0.588008914278666
0.601949229674793
0.593543227378453
0.59652322882875
0.583684446498726
0.590116395175101
0.578647995334355
0.588559801940034
0.56979017327195
0.576191517176328
0.578409013210716
0.577130247055144
0.559014108922754
0.560260937621539
0.554298144674833
0.557021344618304
0.557797872123163
0.565298726043771
0.55113918234216
0.542605484381869
0.540351900754737
0.542118105138993
0.523504744887674
0.534641978851208
0.531515468059122
0.539650644455503
0.529127432574706
0.530748146683867
0.521812768205253
0.519603265195853
0.50887041791698
0.521204893345388
0.511117941059855
0.517479684097454
0.50852630333588
0.520097336283806
0.502349292253557
0.509012936540961
0.499183983961973
0.510247324953937
0.508228400800864
0.509604659444294
0.497309985150749
0.499319208511369
0.490887063788064
0.504262746593831
0.487748602580658
0.499313579407871
0.490658187385901
0.502523026840608
0.484734736401337
0.497179551719251
0.485154670251923
0.484544946921645
0.487024004677588
0.487616848029549
0.480720675509326
0.501252777854105
0.477745284129232
0.49517441526949
0.486220247666842
0.488709343294418
0.477780927554652
0.496130561664121
0.490122475603613
0.496602897113432
0.490611660269905
0.508814390504205
0.494432824349261
0.510778506702197
0.492552981684832
0.498619487051059
0.491649989396602
0.50636278727549
0.499622113141095
0.50603836686584
0.500664248344616
0.508871809668136
0.501944952129251
0.516138884451984
0.50571476021588
0.526662907249643
0.517965597183651
0.517073036714471
0.516983591817651
0.531270604815304
0.51616389287506
0.531619508743365
0.518842171875093
0.523039018844721
0.531703501384491
0.542062445049228
0.529979621237252
0.551950232030382
0.536147284420327
0.551098838742174
0.549103038802347
0.540114401725111
0.552830277983317
0.55196318881551
0.553727181937181
0.580127778152129
0.562468725773749
0.582271902713964
0.582013894829278
0.591251322532598
0.583802032501672
0.598319082230865
0.589573877575947
0.597431936417202
0.602358945975503
0.607660248548292
0.616082023233808
0.631334149371212
0.626897802900645
0.640401039298477
0.633149181968683
0.639052757614776
0.650735909343289
0.672691418898016
0.660029582819132
0.658906087129655
0.655949515762642
0.670614451761163
0.64802924305446
0.677307459288752
0.660141126244696
0.679801997495633
0.657400387054704
0.68815229607634
0.658893599777229
0.674479971988498
0.661648347053609
0.678965267972195
0.676776011602152
0.693898534332389
0.673788136327347
0.68592995512113
0.66701844396765
0.680413520819244
0.659020066820903
0.66441259728734
0.654233833905792
0.661626645164934
0.649568315915316
0.679237084868135
0.653931085486297
0.659724838826305
0.635408447151909
0.63911442834031
0.636537513571205
0.660087038524197
0.639036995532723
0.658462999445395
0.647384576890239
0.646571779868786
0.642552515011046
0.643402427431954
0.632153083857699
0.6519127579682
0.631786633116994
0.645404280092798
0.64117403122521
0.642459091166005
0.634625434276311
0.63431201757832
0.625079789608212
0.643534465405365
0.632623251392142
0.639406958381541
0.63871272670465
0.640773412290665
0.628451000603367
0.636385034167965
0.639921525299543
0.62761871302235
0.623098983545376
0.630990031751004
0.63299971497166
0.636037012754116
0.6186718974116
0.623144890567259
0.606231718725794
0.606924828465698
0.592755945804644
0.616620559413531
0.603309789142178
0.612539385503973
0.600024304164508
0.598714181095555
0.581191800251647
0.585994639101804
0.575624189291329
0.577459577238526
0.575033096766972
0.577187461473198
0.566595487871283
0.580578277997844
0.55195011436595
0.548203323929922
0.548508113901854
0.555292123936934
0.543709985423139
0.547299621466808
0.529637802147429
0.538916649568625
0.534788929138098
0.532405142104995
0.526585538143625
0.522285524477543
0.506793276524648
0.512049213038011
0.514004689816462
0.510124462954133
0.496633913861918
0.506122202779762
0.498520278484457
0.490417669739484
0.489591338921664
0.49035536399067
0.485230949959518
0.487222327973989
0.476168045244196
0.490710084548075
0.467828844235712
0.478227376642139
0.460396413756957
0.467355313641365
0.463242206375262
0.46430441526139
0.463147548546073
0.45937119756273
0.45448163306908
0.466508738954013
0.447234789012866
0.459079566679233
0.444179474544912
0.451454371098606
0.448571869230631
0.452976811048264
0.444191104878747
0.447221634979475
0.43104126244086
0.440618284838673
0.427891626349338
0.433583943370656
0.428044142235414
0.438231332167132
0.426856319387726
0.435695207688392
0.418669543128272
0.422116020840864
0.417594415244729
0.41580759293492
0.414535313915329
0.419672379904539
0.406833839734983
0.424202369174042
0.404501719172105
0.408429602683383
0.401105504342231
0.4033509275865
0.400732359948814
0.40821840102634
0.397223721822237
0.399450802099382
0.393208984440415
0.399161847855292
0.391017744534896
0.395576316149335
0.384227775886254
0.392358110257677
0.393672062519402
0.396865569525771
0.386513157238755
0.386601263221694
0.385193308287737
0.389319529106826
0.380612020928035
0.384839863239007
0.381221263120711
0.382240729744856
0.37321996914573
0.380987387092039
0.37888731288234
0.378176612995326
0.370782223736905
0.377503985941015
0.369297151737487
0.380538915021287
0.373088294151923
0.373066034654383
0.372271194414525
0.372770166861623
0.365245005768477
0.375394508277363
0.363753124902061
0.374760764051573
0.366135005353249
0.364297815770522
0.357605816429762
0.364401140322942
0.365029840790915
0.361184941468673
0.357393862999087
0.364089345005185
0.349268025808985
0.360110807788671
0.353882961351038
0.358990694421004
0.352365036245258
0.36025778059719
0.350456750806448
0.357829374710404
0.355496305784156
0.360103814581713
0.346068589265958
0.357190981186253
0.35039676107703
0.349130159742837
0.345584632562223
0.349544854543082
0.348763136991649
0.350194067825639
0.347433059361201
0.351626453611806
0.348214920610674
0.34753891911011
0.345141343835401
0.34641257147835
0.340031101708695
0.34091152345987
0.342985076620254
0.349457342274951
0.340933112551911
0.345556319558642
0.34173943696595
0.344706281902698
0.328991533140445
0.343613928722962
0.33672608680104
0.34570359266995
0.335917815627063
0.34276682084655
0.339221532319739
0.338512727651089
0.336016205965889
0.335838154835101
0.336684149896879
0.335781713405444
0.333713068542075
0.335753168838784
0.33212146041157
0.33370143742228
0.331933208599808
0.332303578650214
0.325385923483972
0.332028446071045
0.333404591282978
0.33448755763396
0.328616343881036
0.33258132085599
0.327349247590147
0.331836749965219
0.324362293356818
0.331765260869578
0.322980752220871
0.328781229080839
0.322275955855372
0.329019616728569
0.32106237134653
0.326834807434443
0.322758785625704
0.322210147329524
0.325289123853161
0.319697140436249
0.317867705567135
0.320205614364515
0.318507692046193
0.322754131508997
0.311509179935042
0.317249458465535
0.313776588837911
0.31752520472007
0.307780585190574
0.315521335064726
0.313577974362193
0.31680976040734
0.31277642982718
0.311055853240334
0.307008167584882
0.31305765452595
0.304829272164717
0.31015572308077
0.305184499560892
0.31270678993802
0.309997618334137
0.314086597479462
0.30049370946986
0.303732381530324
0.29804769554896
0.304569077257615
0.305257066667984
0.308180341690011
0.300284662897028
0.311524771878488
0.306612347234805
0.306544272180751
0.298877690326171
0.302194397861822
0.295734607688244
0.29952301061138
0.299474230132199
0.299326742040346
0.295386292003248
0.29539515586795
0.292655693432457
0.293996373474181
0.29135827315999
0.296447223492548
0.298184486600613
0.292270747670526
0.28892558806857
0.292441449656787
0.283993402905192
0.290354207469923
0.284306812803654
0.288370815554532
0.289949134600946
0.28724753958759
0.280143846429147
0.28616639703775
0.281909431530843
0.283126743218616
0.279388394078035
0.283107626888036
0.280587029534954
0.282019983331036
0.278808227709296
0.272775500252581
0.274824600889674
0.280938408699228
0.272596721273458
0.271264273835919
0.270980337135318
0.271826493099901
0.27138813544807
0.271408370480468
0.264335547568757
0.268190311460771
0.269110935652198
0.267221672691789
0.26590701874709
0.265830488008316
0.267477783668636
0.265570576030277
0.260083386926042
0.262611152914428
0.263330915594005
0.259883871223801
0.260852594293979
0.26266073975002
0.260534955773623
0.260169228410515
0.257638117055212
0.262730082227738
0.25525076132053
0.259736211219641
0.258434356713248
0.262147075289492
0.25468673209963
0.261017958101443
0.254405128255043
0.256223309430412
0.251985457103504
0.255956941057304
0.251554756036532
0.254724690730667
0.254818148729258
0.254106278226215
0.251933700158653
0.252692097517692
0.249085981421198
0.250133567356702
0.249107079628352
0.249850535614943
0.251470357607043
0.249436540698714
0.246581666633968
0.249967945672039
0.247035476460142
0.24785317687598
0.243730402306835
0.246093339105311
0.246218842852623
0.246623509628578
0.244755931242173
0.246317711039765
0.241665346588057
0.238388550890764
0.239718359129101
0.240985576478527
0.241159223462887
0.244298600846188
0.239443112127098
0.241475227054351
0.239536357060857
0.239979827146086
0.237479388691082
0.239036720642088
0.240502006865815
0.24265465463468
0.234935146472182
0.237185109027037
0.238293549632475
0.238879737584636
0.234364554683922
0.234932864832805
0.238721685268823
0.237741587868345
0.23123691229233
0.233754719112812
0.234507092426072
0.233029660810978
0.233464257673712
0.234384992672181
0.23452357499137
0.238232680328063
0.235895800143041
0.232315741111845
0.233709897846835
0.233641273269947
0.232423024167225
0.233771576870344
0.23168488498296
0.23262149013115
0.23134804896626
0.235617519090473
0.233679301534431
0.2344607706943
0.229880229907773
0.232136317495382
0.230660231154209
0.230773297610539
0.230091172097669
0.231618279812679
0.226861437582385
0.229462012173243
0.230922643731619
0.228282805099556
0.227770587072452
0.229013340659763
0.225929559785968
0.229101228999727
0.225416360485764
0.229987038002326
0.222594123726545
0.222712164558603
0.223322514611301
0.22201399426922
0.220328928430263
0.218449075439561
0.222481152627797
0.225678450392557
0.220738762781243
0.220161406819176
0.219498233245401
0.218843361610381
0.219815062986862
0.221767845304745
0.221129019412335
0.221222097372274
0.220809585535092
0.219373928263507
0.216912394251278
0.217039107768691
0.218001349859892
0.219407066632069
0.217541323708367
0.219079439619179
0.220878502627843
0.22041630586718
0.215561812835817
0.213722463065418
0.213462879598438
0.212263737596145
0.215125538270519
0.220469657544396
0.214711927415008
0.218887373289987
0.215162651716059
0.215920121169111
0.216751040670216
0.215969896829046
0.213708494634364
0.216565721169922
0.215314785239747
0.2126415166601
0.211381257212897
0.211608449939112
0.211294624348992
0.210261124578156
0.212299966096537
0.21626585751183
0.212109999411685
0.21468729020938
0.215009061698716
0.211762760251256
0.209187116528965
0.210120241816569
0.208882917512135
0.209322188859913
0.20849199259932
0.208429383954975
0.211186275140002
0.20956070112705
0.204961434852897
0.204708872474623
0.202612768998495
0.203419550162699
0.205637481053107
0.204369695382806
0.204930205703122
0.207098209113457
0.201139194976551
0.203449153930662
0.202172346972365
0.201211656629341
0.195529701737281
0.199794401036073
0.201362094282179
0.200058236567299
0.19687890549128
0.198690544244717
0.199564004208909
0.198880447490095
0.195968875747957
0.197517422216814
0.199652470964513
0.198755362978278
0.197063486899261
0.198581698130685
0.19797926650461
0.195866453439083
0.194603650910287
0.193521494374915
0.18903104725379
0.194686457636008
0.194822879191519
0.19498610280761
0.193514599862538
0.191279050703619
0.190845783743157
0.187309612479063
0.18857801714646
0.193550144901055
0.192002490624082
0.191114885650329
0.192725832084672
0.190323583505549
0.188635816678876
0.187719405127762
0.185771918514315
0.186650101569535
0.185170650804959
0.188313187932718
0.187818569037978
0.184748698848169
0.184288436829762
0.182370023935083
0.183161281595418
0.184115818509687
0.18382747403058
0.184731275153173
0.182633472344266
0.182638049795633
0.179788365662041
0.178310890920955
0.180060974173513
0.179810102837958
0.177468653639035
0.176337418575674
0.179422919104402
0.179426652769186
0.177701107408587
0.177243225303548
0.175206424448691
0.174727653149877
0.172877261495113
0.176149474352131
0.178543944875183
0.175289683704053
0.173059017730516
0.175201356553557
0.173428636742533
0.170604548640422
0.169381944228467
0.170224984826709
0.171097457578936
0.172606966163672
0.171343290456529
0.171018949319979
0.170794199582153
0.171831401248585
0.172202237925506
0.169748865415794
0.169289637853345
0.1724204934978
0.17336217212569
0.170379805331428
0.173075662271832
0.171720121215239
0.171025372833926
0.167893768328764
0.169547655792187
0.171812169833552
0.17235086695092
0.171790331265421
0.169169461098508
0.170769666825691
0.172321665138747
0.166876811931028
0.167510891002883
0.168277549558289
0.169130766954119
0.166212306488411
0.163583934563786
0.161181943671431
0.1616656037487
0.161570536327007
0.165127469677567
0.163668663653225
0.160926644958206
0.154212086537238
0.156134973154029
0.158092216500582
0.156954676253937
0.154769612093958
0.154784602788428
0.151259111436168
0.155968372451042
0.152706338014154
0.151588205664335
0.156012716489442
0.153556990897653
0.155178415646973
0.15537657129354
0.156118362435221
0.163084050980019
0.157463737770237
0.157776830628427
0.15805929064946
0.16385074246496
0.156034317001393
0.161735465516836
0.154367761418352
0.15664971565846
0.150787395092587
0.1536250004108
0.15368386015989
0.159279078033232
0.151957134489557
0.154970499165571
0.145718166108489
0.15014455311103
0.143690672270908
0.147673751385692
0.145605222000674
0.158887017410558
0.155193912475329
0.158133461876818
0.146846469637929
0.151766269164912
0.152693386088643
0.160852868315024
0.155358603294009
0.150996295861204
0.150525543561938
0.15659145937576
0.158569655408595
0.151791292823545
0.156680274383942
0.158229230202863
0.166347281151822
0.147432724160735
0.159768796582181
0.153979324466342
0.161773017498627
0.149669574594388
0.163538207094664
0.151786506675251
0.158269445063089
0.155317346026212
0.157067906567713
0.155757976735462
0.15765951579733
0.155066090180873
0.151559599485725
0.157226046758403
0.153669340253275
0.151787904896143
0.155436227338334
0.151169012992891
0.151493418510272
0.150969729957843
0.153920744801509
0.148796939334966
0.151266749822956
0.150239341471409
0.150246352007349
0.150077398381157
0.150243447641229
0.149726481203667
0.150855829948543
0.150931159972175
0.152014921821056
0.148616337881765
0.148133921229795
0.149142842546324
0.149871434427941
0.147078936415092
0.149185496981597
0.149863101327233
0.150037974369691
0.151022833769715
0.150085291417507
0.148551850119842
0.150410039637364
0.1489416631342
0.148049112834208
0.148846832177087
0.151990893877398
0.151343752475091
0.151090176462637
0.149987828314854
0.147427304735521
0.147695020661749
0.149842105345341
0.149910433702509
0.152812716443063
0.15118057719872
0.151288052645232
0.149451668847354
0.149886886505783
0.150665977818534
0.149203230157017
0.149237171208312
0.150796445822271
0.154171678203065
0.155267195324126
0.151703327571847
0.148507581764814
0.147222935167229
0.14924472890476
0.150343701967917
0.151873637919318
0.151840759985263
0.150470568398025
0.150925935602105
0.146849006376809
0.14843444651518
0.147755858211748
0.149183387711106
0.150430383849714
0.150678743437037
0.150771354871634
0.151463229309259
0.150781911299388
0.150143301117786
0.149418047537009
0.150626246042585
0.151374860181529
0.150279622612901
0.148235541793266
0.149047375617006
0.152348410865594
0.151348556336894
0.148809575486156
0.148455065467311
0.149821100765837
0.151076048387757
0.152095319858013
0.150226824524482
0.147900322436944
0.150823726186871
0.151431066952009
0.150788961675731
0.150743202641865
0.152373527526878
0.151158059130162
0.151195708871293
0.151292767151024
0.153886375993071
0.155210450836405
0.153052041725866
0.150846778320615
0.152918522156177
0.151334292086046
0.150918675610515
0.152669028496279
0.155630787007718
0.153828346061708
0.154236386756325
0.154360273515096
0.153445914311208
0.151858405440209
0.151595835767316
0.152640188323619
0.153554628701459
0.153148703575854
0.156566280194336
0.155233385902813
0.155115056738715
0.15419233715958
0.154499093426708
0.152963403202135
0.15508843738201
0.155874414776261
0.156840156066571
0.155384663248048
0.15472272507985
0.155239492807282
0.153448921597745
0.15271271867283
0.15313210837138
0.155647043168448
0.158860017015479
0.156596235992722
0.156865674400617
0.154767841119666
0.155245072765629
0.153523809573223
0.154962648457324
0.155803133820946
0.157204786187571
0.15435149289052
0.15884777177694
0.159365461015993
0.157407572035547
0.158685869397788
0.156802628552403
0.15533393668015
0.15846969792259
0.158418272622505
0.159563883909711
0.158613932727256
0.157900019449109
0.158509095586975
0.160926833300384
0.159150783197161
0.160028887156869
0.158411713668706
0.16169652207919
0.162610254045292
0.161634655013089
0.160502425952618
0.15969826708183
0.157657221920701
0.160672888744662
0.161503147169991
0.162438222237017
0.162071388228995
0.161654138209544
0.162575681504696
0.162051635558405
0.160499193756289
0.161491507289909
0.15944411869814
0.161568573999487
0.1591168889479
0.159811983941864
0.158891617409697
0.159326018286132
0.158594357470052
0.158640648020846
0.159037181029116
0.159744394722208
0.159036146815368
0.160076099214838
0.158825933201385
0.161036588589742
0.160320581431759
0.159443361900773
0.156007439623577
0.155756965646443
0.155463726150919
0.15632753750195
0.157878239834587
0.159457708539827
0.157746238010564
0.156515727292219
0.1550932804926
0.155032862515577
0.15545690957812
0.157371936397788
0.154702220563802
0.158370673598882
0.157089767845894
0.154246188806172
0.153701764648512
0.154851469983239
0.154899529256445
0.155172042158203
0.157361516130202
0.159495884513007
0.157430750101354
0.15835711755205
0.156326122024306
0.15380009980939
0.148511859936103
0.152527923096464
0.15431604707674
0.156311183156706
0.15783208272104
0.156382763522594
0.153244857105585
0.153240170575468
0.150189587833963
0.152063198859235
0.151676314375701
0.154508768112073
0.154165001771955
0.155089416835671
0.153874056069138
0.154202354411975
0.151810584228288
0.151172670689707
0.151129823947862
0.155502475289504
0.153531641235656
0.155814661597752
0.154764664128897
0.152711035212764
0.150234712231327
0.150193866645198
0.148887626441421
0.152837993039307
0.152302337007487
0.152461881347761
0.149904656989579
0.151064376078388
0.150690752691442
0.150577506046557
0.149011297295503
0.15093164321376
0.148641625065053
0.150708873128056
0.150480948194705
0.153235256819133
0.149664227593539
0.148225417908788
0.148065279411442
0.149764107225365
0.148858920947935
0.15026814424871
0.152447353279144
0.154187549769618
0.150054427931181
0.149519996677055
0.148573800206663
0.147725079063495
0.146432226479108
0.149296124275664
0.147748249902968
0.147231573212081
0.147726362608679
0.148896049682903
0.146825957390758
0.146739993432839
0.145357850519327
0.144777880018868
0.146848002677909
0.148828434627163
0.147574776354209
0.148616906271406
0.147618314034853
0.146085091905135
0.143724612367576
0.14420795837901
0.145832597844024
0.150180870610632
0.143342926144992
0.145264198591113
0.145309113091776
0.1433677777876
0.142131190070051
0.140079042544748
0.139755059271432
0.143314415540928
0.141730954394258
0.140970241975782
0.1409589670733
0.142094653113208
0.140119700631312
0.139931856663044
0.134950968814239
0.139692340637396
0.136869152544773
0.138081994828103
0.137348271334668
0.139503746386131
0.135532063586764
0.137214399365627
0.133623878034201
0.134817620428566
0.134492084054177
0.140085247527293
0.143047886580081
0.137683086365912
0.132112375175289
0.132460397956019
0.131478876602782
0.129687950916371
0.127785914766574
0.130443385581457
0.130096242366938
0.130305314582949
0.13021737220561
0.129476671040534
0.125799834267236
0.127897932544163
0.126715577617092
0.128049707215578
0.127955091957557
0.127443340089948
0.126647728138239
0.128495207849766
0.12529071012549
0.124912150434157
0.124219254226871
0.126200851432922
0.125264814591449
0.125456592184853
0.139612273852307
0.138615041700879
0.126894848337908
0.122727905196645
0.126498245557317
0.127674714485942
0.122589423632902
0.121794769361419
0.124962221666984
0.127056748120611
0.124506776105511
0.123778085212071
0.121699521476506
0.120353726379046
0.120256328710402
0.123286554959284
0.121496617035788
0.124462483018994
0.123696347334458
0.123565163206766
0.119265786931887
0.122522038404328
0.122270355564573
0.119066242395196
0.122389719479404
0.124131771789918
0.122664490942486
0.128903732051206
0.125870248043962
0.124194482256214
0.120245106276188
0.120534772535432
0.118175651890435
0.121725814908878
0.119458693132204
0.120207280511612
0.117558027242819
0.11752333144275
0.115304009074957
0.117032756887247
0.117649180866692
0.118084985625407
0.116452236399979
0.117754773358545
0.114459614492972
0.117621855027552
0.115959070489244
0.116492631811539
0.114736293986638
0.119949383550313
0.11617702884613
0.122410801127198
0.111238204136818
0.130648352855291
0.131627933706603
0.123774614252861
0.115087523448319
0.117477846390625
0.111714938421548
0.115359692586089
0.115116887101175
0.115798336862832
0.112019037142665
0.115224858283157
0.114275517948701
0.116516854900727
0.11713448268392
0.118412991689114
0.110016927842156
0.117309094175298
0.111501107065869
0.114501353277866
0.116287099591847
0.11346118959609
0.117790949528858
0.131796318368626
0.116497316203616
0.115984865735645
0.109468807076137
0.122690313093062
0.137081068934824
0.121508341709521
0.113944877368245
0.112515621451939
0.111563194180863
0.109624987111555
0.115976170259982
0.108590901046221
0.118664755372608
0.116227531856053
0.114769051681117
0.114995461274186
0.113103381182999
0.111281125643431
0.11113879593364
0.110689480918786
0.111368855387965
0.110836405964307
0.10945000481871
0.1087939271404
0.107236969167137
0.108881280605261
0.109827448147212
0.108323730385763
0.120025026831725
0.115064588464424
0.110518581418213
0.107863953193242
0.109544193979796
0.103576751509611
0.121779569156027
0.12198134856547
0.114048501004461
0.109996230437516
0.10865214480337
0.110894685764225
0.11015416529619
0.108235532733611
0.105061351243426
0.108049709538596
0.108621902347898
0.110159356001976
0.109080391684073
0.110370369783017
0.105195916582701
0.109399697410138
0.107527799373024
0.109880306796109
0.103157494859554
0.109630763596209
0.108210823097172
0.114006543629653
0.131384541955945
0.130367898929512
0.127622865858798
0.116899659677576
0.115808759369592
0.107442641897958
0.111956538416292
0.105866907060886
0.110261646075204
0.106670303604413
0.108003584920697
0.106698184696048
0.107831726619612
0.10390369527126
0.108425335077193
0.103447488946986
0.10631930056296
0.10334666429332
0.106862683008404
0.10430687014971
0.105456530613445
0.103692331939554
0.109031379762731
0.114974842567283
0.117448281479271
0.109262911038978
0.107421552742105
0.150416459786681
0.118923419109493
0.122098759209165
0.102919590134943
0.107870999454207
0.102898384454078
0.107265804308466
0.107661652495572
0.113322490292524
0.106026335896552
0.108756697994002
0.102287389423127
0.112569325325964
0.102557347475465
0.105873661305132
0.128922208978644
0.140610941197606
0.115291077213825
0.113575991744755
0.101415452520718
0.135827845136046
0.128204043512237
0.114997067614777
0.110200633463678
0.110392098259455
0.107382865498138
0.106570143203805
0.105753013467154
0.108100347553924
0.118118516696366
0.108172937650105
0.109812805642045
0.105589101439115
0.108261684127361
0.110820049102469
0.108887039690485
0.125662698775949
0.116873018407776
0.1125167872452
0.116498324132403
0.112250710955097
0.109054875552517
0.108355078620101
0.108881106778153
0.108836576622067
0.128557980065508
0.12426228968289
0.120261112262402
0.132256180710823
0.117765709396102
0.111361276855973
0.116550885470878
0.122833293228895
0.124815743610431
0.103633747225397
0.150673568804848
0.125737889503168
0.152104255165596
0.124208560172294
0.119914407770289
0.112225813082479
0.116250486632312
0.103260598431616
0.118184571512781
0.134394075269262
0.117128890677996
0.12044772622962
0.105126199586869
0.137268838960614
0.122333760146409
0.128103393705555
0.119312864181026
0.118547266169348
0.116654515471786
0.143396615993992
0.108641750450178
0.131407620504039
0.147392785648758
0.15877737908726
0.154237497394111
0.116840429490046
0.134892092134341
0.153394848197971
0.126095745642458
0.126025138873675
0.117172255613509
0.129516718131736
0.109719408778642
0.148201560438128
0.156481037552614
0.13057134837104
0.128241713978906
0.123260130435408
0.132592252147829
0.153638278294426
0.133481970026354
0.129649419281763
0.13075309992652
0.13360283676864
0.133342534367936
0.200241535772766
0.134571806422392
0.170500926713044
0.144370183593772
0.169803300045767
0.145168047314972
0.157836479386511
0.136144707348285
0.171455516509586
0.156021923652275
0.150472962380348
0.129856571743681
0.185231533296061
0.15638308822271
0.16284743512572
0.154818274034989
0.149718446899282
0.153287398173507
0.210485421455057
0.206260814009505
0.194751585606461
0.153357952794524
0.177731783232135
0.189540230923755
0.168970100472462
0.16076036194619
0.163894511115568
0.161228804174029
0.163999269691694
0.171581468908929
0.188811472814067
0.170466170283871
0.184494455266356
0.165157329329713
0.189133101604116
0.197273408527333
0.27391544777134
0.204520860386886
0.213523709261212
0.222734762175862
0.215077772011637
0.204528448788117
0.187384489012296
0.192636706429917
0.201633705290249
0.198730634303323
0.200171680825152
0.200055902998352
0.24336755311547
0.210510703399334
0.247677792042402
0.213449458807707
0.225000001956889
0.20467409468478
0.26940974859656
0.360879390410714
0.254916999937976
0.253815587414684
0.227881896752087
0.290208619932271
0.280863672235784
0.253297361980863
0.239845594543993
0.246590385858216
0.240884855030187
0.25664481425007
0.257988240290005
0.266683341282887
0.277862192085378
0.264767269501449
0.269068340729119
0.316320730942487
0.374687738720014
0.374412296057139
0.305131750171982
0.299101234817671
0.320625544016125
0.318781169413468
0.303511268993921
0.324620640588898
0.304397370806901
0.369633881047102
0.362580654626432
0.353867096824435
0.333690660596846
0.361174673332631
0.367997046745251
0.357897225751437
0.442472018244571
0.383559096681392
0.400567845071278
0.367101574923824
0.398936605082552
0.37547637127385
0.396287488554116
0.421019555571028
0.426966005780077
0.421302638078277
0.416914108454552
0.415143984787331
0.426105507646403
0.429475804791748
0.429276294719072
0.441933432040687
0.491104070783149
0.475713718848013
0.683182351271519
0.475056076268703
0.473535443900341
0.43381158837973
0.475628830418825
0.490569304124451
0.490156526233542
0.524130118971902
0.492601999391706
0.468410601417892
0.466937367932175
0.465352655943352
0.469945340494042
0.474256946870766
0.468004080810632
0.457253638150116
0.516105559301521
0.461674212571834
0.575208285475754
0.51207109278218
0.495839171019223
0.447116276403752
0.475113282419715
0.454917241933587
0.472853377647821
0.432358612966108
0.486835381253207
0.462932202316008
0.459994905535591
0.43654347583939
0.445469512803553
0.477728200462645
0.475849388381704
0.436632325665153
0.434948975936114
0.410090617476607
0.435957506354866
0.3927776703882
0.471725891440342
0.441110591674315
0.419530357340354
0.392045657716013
0.400239918064183
0.395254339192518
0.391377815155808
0.375327911840558
0.39326374136141
0.374650887076991
0.376440302063814
0.375786046238367
0.370182063649776
0.362074677951273
0.366748862001411
0.360496576530231
0.360533353259438
0.356946467861692
0.352439738423493
0.344556859212348
0.347480568550009
0.338665432372016
0.347600803418902
0.340036072092051
0.345781201732386
0.338424537396443
0.337982156870074
0.33217730358
0.33069918285605
0.328067126586271
0.328242706206139
0.316869114545198
0.319211190902272
0.315325699597073
0.320165733385138
0.312038681296278
0.310472775187759
0.30872142215703
0.307021240155462
0.310371175646112
0.304445137904662
0.308009784492609
0.3086605258868
0.310249641763798
0.393970732774808
0.31216126525713
0.311554782516095
0.282761292584837
0.303941626422025
0.283905285397793
0.30522501306623
0.348884375981297
0.317237860023216
0.292529956524486
0.285128184217184
0.276471281709068
0.309629063588588
0.276463038851653
0.284792133584906
0.277459349539594
0.277957925306415
0.354072988334513
0.318660758926321
0.421058407802794
0.345138603306872
0.305760293148502
0.254592871219512
0.315044100459281
0.289323658452921
0.267891928530926
0.260814734595706
0.251161185479676
0.316022706391911
0.260697468551097
0.258593202938521
0.247646561726352
0.253782225353552
0.286165159581224
0.287053175908655
0.265116062692911
0.310922403019916
0.279498475383835
0.28162444706712
0.323662925091703
0.343548058582423
0.278298938709196
0.245812072712104
0.248728121209619
0.236135281732216
0.26747822171074
0.302765467020934
0.251810183976948
0.27165835566202
0.229274723856762
0.247150570580362
0.236945629833072
0.279530762914716
0.23640781221477
0.275778185792774
0.268747896758963
0.239878080437089
0.267906218754243
0.267959976122569
0.320994474449025
0.299220527174714
0.253128515081488
0.228846540063176
0.302999743172919
0.277499747726115
0.26230912357697
0.264120667746812
0.228410105464136
0.260315712050041
0.262441872467556
0.238660747070139
0.272478821232079
0.26224988383729
0.291099731449325
0.32465383178643
0.354844286317581
0.312654093791386
0.254890282626096
0.243455920215978
0.242768799438343
0.255725581507805
0.248359422651116
0.240998557660492
0.311276644125407
0.247851323738056
0.278354416510094
0.307782946921607
0.273283220168781
0.265242410775393
0.265538010835829
0.264974233039323
0.283459892609093
0.312618086202552
0.338668024769055
0.295973503420792
0.319767159710763
0.31314318735631
0.304139260612684
0.299985907914694
0.305679241223492
0.308162573244324
0.313318032045281
0.339467782375575
0.327960055896218
0.334958692368542
0.347837265776928
0.337762213734425
0.399834885903696
0.3824266840418
0.37445943492701
0.424258902119377
0.410844167368497
0.481451382711434
0.409771189650832
0.422212297412992
0.412423842196854
0.425888427377844
0.441637716455435
0.435757077882125
0.474846945604766
0.492826299115944
0.472229187227765
0.481659790062203
0.471729747830609
0.489780782627033
0.498597562677571
0.546424878757719
0.514083399591135
0.643919521266414
0.556586255452101
0.55949645095408
0.522486804320477
0.517800536786254
0.53185112545125
0.528338213464534
0.524411398043008
0.530551059453446
0.541428182594027
0.558427227136885
0.527477445249468
0.540945895038443
0.525307098376967
0.53704902087965
0.538569412931517
0.553092636223931
0.55138452256949
0.556223956199643
0.550298835970681
0.545887000249536
0.564040360716428
0.645741398843862
0.584210180236549
0.586285128438913
0.571119214124141
0.599462152081064
0.576489844082132
0.587447129937115
0.608643491592518
0.599701021545885
0.599267354750429
0.605873652138258
0.600243970251228
0.605276136708917
0.616993495932517
0.641174573305041
0.600767305837815
0.62687358205788
0.598925138108187
0.709171634450939
0.669093017366362
0.666813749021333
0.636642179435709
0.642801843161707
0.628310824820859
0.633839673592616
0.627353751252567
0.629959657816128
0.646466066831339
0.641493594125674
0.643027022266199
0.623191626306876
0.630141418504178
0.617204445640317
0.632785258257114
0.665032458277529
0.62427845877208
0.634108506669109
0.614381388136989
0.622996671370281
0.611633976839914
0.641693847473505
0.623385613400229
0.624354144723728
0.606524759261175
0.638859129901904
0.635168695178278
0.632274934391791
0.594651215270526
0.606640105566168
0.590669738570292
0.611687766709667
0.595672294875018
0.637895522856715
0.655227687677788
0.629955329428591
0.609041634664951
0.622096267741047
0.619336086005062
0.633699625239664
0.635110699133206
0.640033548726706
0.644731984065959
0.652706515958962
0.654803656697347
0.65525739814395
0.657483076256703
0.681774635927744
0.692384225395327
0.698238476105952
0.675129823997161
0.686848019711146
0.676025474049893
0.688314058278212
0.680159468044714
0.690023538882185
0.679950379730261
0.689210735086447
0.681472849855571
0.692648842094749
0.715432132679247
0.682365157835118
0.694164498741893
0.683603373979303
0.672629562162741
0.675095831549454
0.672876552626147
0.662198305084223
0.676195949661093
0.677608972889435
0.666355442613288
0.659350912648869
0.658971701106779
0.668592503565268
0.654146320574415
0.663063588538365
0.642098847220472
0.663293872976125
0.650700438826991
0.657732587744411
0.653705080142963
0.642175029557839
0.644304775187097
0.637406213722624
0.662556626281592
0.672184787972283
0.673062226598255
0.664884518408003
0.657627362298475
0.652402409399115
0.642821496093525
0.638575273431167
0.633855452985902
0.644199288419457
0.644672638937012
0.649262001272488
0.642646019009297
0.636603279730698
0.624741414400607
0.632597496512331
0.622288694366064
0.632484718196527
0.623352612243122
0.634412758020559
0.623791570659611
0.619758510531188
0.604599158413831
0.613996943178994
0.604288563701626
0.611450060977465
0.605439464648124
0.607206867991724
0.607678383488435
0.604425440383079
0.599783683045381
0.596206944110585
0.587409858877985
0.590084547069048
0.58934436385071
0.596102017576037
0.59489493877067
0.593820758693441
0.583515487648696
0.583075298446928
0.576191965385521
0.577511617736421
0.575839819362449
0.585317378121361
0.579428889070811
0.575352770982492
0.563162565764168
0.558335421627029
0.55185366280906
0.549468745450352
0.548444798351966
0.549752168158728
0.544230217697032
0.542444295682285
0.532375908345105
0.52987448491874
0.522514318433263
0.523856345357453
0.51880538265615
0.522733370415688
0.519684903928572
0.520059013506158
0.512706241985226
0.513795113966247
0.508228449766772
0.512198067576025
0.514383589696653
0.515854419553114
0.516043982419927
0.517137708400891
0.516737605634914
0.513178829743241
0.509634543348348
0.517464280506332
0.514786209652575
0.516690880196292
0.522732678539971
0.526760158356418
0.52491455586716
0.524411549087269
0.528065406719651
0.531262559235664
0.526903974135899
0.532659433427207
0.533159680444376
0.534617694125004
0.537089801796136
0.533616753779765
0.534258184015651
0.533284631169071
0.531706610900424
0.541756159227149
0.540667628470109
0.541810493337663
0.537046633269515
0.53655505683678
0.53449077930494
0.5401510348968
0.529048710456705
0.534080893807913
0.533919973120728
0.535423360309993
0.533863052497701
0.533870881561198
0.531572110008586
0.529335940167305
0.526031223104748
0.526236228603307
0.526211697541899
0.527304943547548
0.520657239165812
0.524327165542948
0.518406398296377
0.52006343079946
0.524010011009616
0.518975920977194
0.513101298252919
0.513022239274697
0.512275573265757
0.506231747465838
0.506841725051032
0.503326159304598
0.502658998704953
0.504024557465108
0.4971055551297
0.487780404165294
0.486713056121965
0.486074344062985
0.476761601394751
0.478299768341769
0.473137857499578
0.474500575468082
0.465603183264398
0.467149265320438
0.458657313270364
0.462625478268635
0.46092266148106
0.460576516136995
0.46000593420277
0.461190133298162
0.454880228814193
0.4545807291057
0.455862205787436
0.454084060242128
0.45606024468134
0.458401203621582
0.457473873111595
0.458093681530963
0.457108407237681
0.455536301664571
0.451834484576069
0.448517026197173
0.443432561292223
0.444913225235908
0.446813704952565
0.4400684652264
0.431992602711249
0.428908408221082
0.418665927926543
0.411622779040701
0.402807433157763
0.397785212154754
0.396215899268226
0.390051771549841
0.383647508963563
0.383082491576394
0.377912992266738
0.37832133198893
0.377144527477101
0.374842824117642
0.380376912601759
0.384421534225857
0.385532908336804
0.390592692272853
0.397393060499989
0.409027385798252
0.41739583559836
0.427253365051147
0.442238352288618
0.452688842206194
0.467599203002195
0.483289704134775
0.503245658720549
0.523978184260723
0.540508736714856
0.558521229555641
0.582321723125339
0.60515376977393
0.632981509865664
0.661811064563279
0.690855031217651
0.721999737332055
0.745997680768017
0.775686646252488
0.807428706278462
0.834507582287282
0.866776168785599
0.892622947372807
0.927991583457059
0.948199199871456
0.972479307315251
0.994082261675834
1.02148442544048
1.00897022689677
1.02450943200132
1.04725357508794
1.05020018480059
1.05520249364257
1.06865798688788
1.06846126928726
1.04363491980972
1.02827531908969
1.02614056301773
1.02344413442797
1.02031240716894
1.00315118431513
0.988066823708148
0.972758757445747
0.976509939098404
0.966306629054483
0.952735394199107
0.955808726563467
0.942787326345806
0.948363671357547
0.947031500577983
0.94845599881559
0.949520843063683
0.953421169422436
0.9537622780615
0.96075817067487
0.975932199838419
0.966455631660352
0.992166108900275
1.00724680704491
1.00493092515315
1.01753911151919
1.02764271565648
1.03266670187151
1.03807856923713
1.04729041957553
1.05220555558376
1.06575952785791
1.06776033311349
1.06994084049845
1.08036921835634
1.07874417870441
1.07909964865615
1.08146992657292
1.09995705536991
1.1009294143363
1.1129084020802
1.12271476727273
1.13112390837902
1.11489395912916
1.10774196994393
1.117706682979
1.13205311383495
1.12718230113004
1.15619342242883
1.16013822556781
1.17385451605578
1.1798932622447
1.13934433203069
1.14939595341098
1.18435990320228
1.1743922317472
1.18402869866948
1.2168144353108
1.20981840763575
1.20754471878395
1.23949910417817
1.25172297252706
1.27850166174878
1.29509474832948
1.33975236437518
1.35422105147623
1.43820992628054
1.44800681639741
1.50256527238037
1.50773401547907
1.51668733545776
1.58749118457181
1.59955375828799
1.57296935972507
1.64651987186408
1.64503960278516
1.69547939381645
1.74340030168356
1.61346651248701
1.61361123077048
1.65891575735045
1.65766464607004
1.67016770177228
1.61714158479743
1.65670176864784
1.57804559536554
1.63289137410688
1.59520775708237
1.62185554137967
1.56181692934847
1.58527691418959
1.65380868586914
1.69847802107943
1.61249398062381
1.65459279394142
1.6278487912765
1.69340399250449
1.7320299946212
1.80274669489953
1.79185054061307
1.89263802023923
1.80172451380293
1.79634339755539
1.80688177375974
1.86034631450419
1.73570778010613
1.92589471620157
1.94837881301031
2.01796421782977
1.93674470102702
2.08484541880916
1.92092345744667
2.06027402282245
1.96484688170452
2.0100542569514
2.16172777923781
2.58675642984687
2.24738326354022
2.14174568599983
2.03505619727134
2.01220009767568
2.04654244942875
2.23500217728655
3.13840127781015
2.91251343055493
2.82443013512529
2.44195799334652
2.123175289723
2.26544658069327
2.21356338349285
2.28190931482967
2.18483618001639
5
5
3.24205485864756
2.21042121660159
1.9916673282927
1.99771159775109
2.69738300439149
5
5
5
5
2.29288252952192
2.3319367244551
2.06648853757088
2.08641126770909
2.08829472290881
2.67877730988142
5
5
2.59013055138158
2.06461533434003
1.90934490939467
2.14422488970849
2.27421754532998
5
3.43011582143881
2.95066251457476
2.43239821627789
2.28728964388613
1.97550791644248
1.92661335158536
1.83781199682363
2.39220714048755
2.78029310734415
5
2.36099644144673
1.96481291019805
1.74522286449023
1.83511140438109
1.88602411021448
1.98667690578021
1.94182325625554
1.85910505194075
1.79048216784667
1.75502605877061
1.63544787059523
1.56109138256863
1.50567516735369
1.56882980109419
1.55987496550353
1.59128043475425
1.46607159969459
1.4059242913734
1.31511713765961
1.27346068730321
1.28060071711984
1.26537901804913
1.24102086827844
1.19877312410945
1.16796635802394
1.13848207919831
1.05990973226485
1.02282909210677
0.998416882886343
0.963914232518109
0.956723768799577
0.943197489819392
0.90920734767452
0.905947244643073
0.864728935840285
0.853635547079028
0.83203972419119
0.821929456804751
0.807078019266651
0.807678665574032
0.80671774875185
0.799314769898935
0.784699773836617
0.777491191679948
0.788660095408019
0.800237747585956
0.798123121004965
0.802501341370247
0.826209889813339
0.82814924583341
0.816164737437335
0.828240776633725
0.837649397947184
0.853196887888206
0.849358961321482
0.871361414487187
0.882383491834198
0.873248791159968
0.853597496474424
0.850350268340928
0.858449285525234
0.855382350320942
0.841880835592348
0.875725247882315
0.878106119205634
0.880566887176072
0.881956910319123
0.896462132338217
0.899391774481193
0.884736904093998
0.864525498365697
0.865381577291118
0.869609312274676
0.860702294434162
0.850351916825623
0.859895834310994
0.852143329341863
0.848333888863995
0.847218561766147
0.848225657542429
0.83365806609812
0.832229068661446
0.8143269884707
0.804624629768664
0.800532481690325
0.786489361018303
0.795504178545622
0.806926048054785
0.784245009133964
0.78848607902525
0.785924516062775
0.782703669207888
0.779959368390488
0.788530455177095
0.793882609783746
0.796740194152938
0.81545380616832
0.841703338731144
0.812168000294347
0.812122735109769
0.823801235333454
0.833372878822295
0.840565676223067
0.845153439693973
0.835543942140202
0.832029949762341
0.827866050843927
0.797056849475148
0.795060944253381
0.809882897369108
0.795622843560933
0.787670525579085
0.770763896248892
0.763615493708221
0.738250657000679
0.737656974755929
0.752274622153428
0.75681714147436
0.762184544533184
0.76716514743374
0.733874298874005
0.747560103362213
0.750826134387227
0.747583180714515
0.733439584153088
0.756046032411253
0.746769398752923
0.741907187387091
0.747667081508556
0.760419331129517
0.747652051120263
0.757575874073014
0.766522524970085
0.784849009433528
0.790927972329468
0.779264584636614
0.767077875683224
0.774847462710985
0.76062476657656
0.790080945152135
0.797489503160689
0.833329267859463
0.816334547769384
0.792286348980738
0.793375877740033
0.799665752190894
0.774430133411624
0.781643110360942
0.802043783264453
0.802906203092731
0.835122123800177
0.785649899894474
0.750825818198476
0.777423109511901
0.767152087845375
0.799735320323266
0.801151736434663
0.807785041793493
0.79451760705441
0.756934336500403
0.754612291705822
0.761849290111977
0.751562210051895
0.776471498319337
0.781559694033206
0.775965770925356
0.729304121302702
0.702666082710265
0.687174007800402
0.704500771866907
0.71207353478397
0.763038585225903
0.751034636383048
0.727925879382588
0.697041778085887
0.671180177721425
0.675641389935657
0.707948449148126
0.733729285075927
0.722707661452405
0.712330604628076
0.715479649510609
0.683552673620316
0.693705159565027
0.708227716736112
0.712435301289168
0.710274015476595
0.719950028903233
0.728187332051134
0.704189952946235
0.708993210824328
0.734383472264071
0.731320837365336
0.741060640247435
0.751034653476602
0.765108667682147
0.719691121742175
0.743312712185984
0.768549345855492
0.748651675116252
0.754389094263209
0.776430632019747
0.776296470466988
0.783388810455072
0.791355467827323
0.810372283525931
0.795046955631942
0.820595435391913
0.841801291542673
0.86648108310455
0.879426224883782
0.891007233294609
0.877122504526673
0.926644088755007
0.9301906734154
0.907436159190061
0.895476356462688
0.941771650604346
0.925190303164287
0.901171808464722
0.931917193516151
0.938041159387499
0.929741521379336
1.00433412000603
0.973699035586348
0.986852090351861
0.905094746099671
0.953797563115401
0.976204514768282
0.982135991059694
1.04713652471068
1.0217342829628
1.02514831424693
1.040418740214
1.07278022223544
1.11924168913561
1.02007436483358
0.985522537749475
1.01571898688153
1.01833896402498
0.98207134819724
1.08067329318055
1.20528949714323
1.20528152033859
1.03818001108874
1.04808130836792
1.08509086360253
1.06797613334666
1.05955632886869
1.08398939348472
1.12622573301456
1.18384323871402
1.03808103817392
0.990548732939696
0.980775190428622
0.933762987502533
1.07710497757911
1.11051344202334
1.01642829327662
1.08706229284075
1.02933972867076
1.06136153043178
0.971029570479616
0.99352410285482
1.01897247524648
0.963686658400174
1.05962215638161
1.08590575956334
1.02888502533377
1.03261165528002
0.965414360945123
1.01871747560487
0.982716320518347
1.06975281865612
1.1335708929907
1.03559969633206
1.12933848495805
1.19815039417988
1.06178005289431
0.901772977213198
0.946467865372217
1.04891272324303
1.028071030097
1.13758349670718
1.18632691196899
1.23439764543953
1.09345791391506
1.04311048585534
1.08603797353134
0.986706003835978
1.03250696246771
1.13335876586397
1.11756780266153
1.43454609236788
1.32161160181098
1.05830069174822
0.985735982875368
1.18367982410021
1.18469523238182
1.50943266519135
1.47006522117603
1.54572423301222
1.20691014181219
1.21033813344394
1.2439817806953
0.980250656753767
1.47915742437853
1.26779578004754
1.15738126300184
1.55631294987826
1.64296322430387
1.26014073968324
1.18062198391583
1.10316870700677
1.21990472783324
1.18164305782903
1.06349337764015
1.25550642199648
1.76205109181305
1.82111112615909
1.43204688910225
1.29369735035828
1.28508218857958
1.06020151631102
1.1720866587355
1.38978436796774
5
5
1.8520102696223
1.17221450504828
1.13538928047324
0.99120830342944
1.03872981580146
1.95275758087275
5
2.19980798821792
1.10643977101262
0.937231710981939
1.13023920349849
1.01485469982706
0.990047460709215
1.65727720057156
2.0908460922908
1.50678708648197
1.16183525136796
5
1.41975849788976
0.772438650607672
0.92225522533013
1.50417786567179
5
5
5
1.5265347947814
1.25409148909065
1.0254640867757
1.05022969813062
0.769366958174708
0.765157185212519
0.84354821777264
1.12542011725767
5
5
5
5
