3596
4000.36533379555
650.420452594757
1
2
2
0.0896033970677547
0.0764132181599864
0.0864130867702581
0.0771007803184315
0.0817726128195695
0.0744117696023955
0.087469624915939
0.0712627711659062
0.0934701588330367
0.0733074063410339
0.0865368106708299
0.0691100496268527
0.0790897382494778
0.0699410473049893
0.0887787441679554
0.0679089883005258
0.0828760192145766
0.0666077004035482
0.0879595516432285
0.0666332292807215
0.0845458686762461
0.0693877218065259
0.0815612210065499
0.0677155296914926
0.0844694402977069
0.0738312073777482
0.0876105050311788
0.0687443580457752
0.0823920025257186
0.0801324888491968
0.0892754819772618
0.067928844325352
0.0848388695672604
0.0736391724846221
0.0886530435861198
0.0710365650347616
0.0836611166182278
0.0751452732350833
0.0814803566114825
0.0753297613763205
0.0921906038499275
0.0683568149298864
0.0866306534581241
0.0749464864442245
0.0827816649275177
0.0737495088384118
0.0853782796199152
0.0712011034317078
0.0808037247211973
0.0769070732280349
0.0879205487555037
0.0696904878182849
0.100349600569687
0.0850856093646211
0.0900445999841142
0.0889980457087344
0.0895904875638937
0.074478628240279
0.0831519766076237
0.0657164990529858
0.109964023608707
0.0849965222900553
0.0858246209966419
0.0700029945677304
0.083221983500551
0.0754379070050712
0.0732894751593764
0.0713636821235513
0.0776272401082969
0.0731709230472196
0.0767778302949551
0.0888022028398801
0.0889992693076491
0.0745542524678638
0.0864720107027026
0.0730804166612183
0.0820164724036973
0.0736707882644466
0.0724718084247686
0.0831295177145612
0.102441113061099
0.0767247156746643
0.0837991500486599
0.0631209764472121
0.0929246519947212
0.0872132616057431
0.0707368307411905
0.0846306598088817
0.0976741504292525
0.0835789105088032
0.0790869405194158
0.0663920503795778
0.0750667558307133
0.0691014201226645
0.0793169067292229
0.0668843151926965
0.0684869878751454
0.0724402837010772
0.0737729671915304
0.0821657533942214
0.0879328453705646
0.0750580608798034
0.125649688919037
0.0589070342843597
0.147736968437967
0.0811445400850159
0.0837851121446904
0.104203357022293
0.0869405497658826
0.0767361591617899
0.0763418467724561
0.0775314941767792
0.0784141795630078
0.08565832510368
0.0643890105424463
0.0987570019779564
0.105062388590019
0.0803304955796791
0.0753518843840955
0.0876726240076139
0.0594895363694679
0.108938047561098
0.110767083865986
0.073939027029348
0.103184200034541
0.0662719504124672
0.0771955801045663
0.110910185780174
0.103784086866645
0.0725317511807901
0.0757727591705843
0.078987245615458
0.0680436484460737
0.067984797717078
0.125875099432554
0.0673619131793565
0.0862805373982612
0.0505460745296714
0.11563928553834
0.122645369824158
0.0989331277564082
0.0713610868210858
0.0754856363229038
0.0737457313505533
0.121058724643347
0.0784623366566443
0.0775844957848024
0.0817784343013895
0.0835150904605299
0.0683801461634001
0.0734443660542722
0.0534900751502696
0.0878811594944751
0.0870143294469819
0.0432538585976652
0.128452556142987
0.130401320806838
0.0762907789009117
0.148411143196537
0.071842770103629
0.1023362041334
0.057380066760277
0.0836250670789852
0.0652333595888843
0.0960574099278851
0.0587905617320798
0.0925427197259312
0.0904214366208783
0.0863062382682406
0.0761910851915556
0.116832421743205
0.0802406145627773
0.0726463738291081
0.137509268572205
0.0828226094760744
0.0639103935898575
0.11043613888757
0.0837126571741025
0.0662602376921897
0.0784220549209184
0.109742104436864
0.0677690673127591
0.0860531507957735
0.0598393899247948
0.0794248573350464
0.0875372625868786
0.0807452504089173
0.0687022691231023
0.0846901939018914
0.0553423393059038
0.0996470731086259
0.114701239964249
0.12114799091347
0.0727334337084659
0.085635508924658
0.0347692609314244
0.149453833137941
0.0968967900782495
0.0854301308012442
0.0675476580608886
0.0749568776892802
0.0658289958760641
0.0749379218103346
0.0726406403059522
0.0756999211767528
0.0468676386606435
0.134903988724891
0.0682397333206892
0.088012948376555
0.0624578102077487
0.0899660268080544
0.0525370402252154
0.15323094676159
0.0965216170392055
0.0806207053000274
0.0687085963532699
0.0720088911770148
0.0831930176303298
0.100656936641394
0.0698139599921346
0.0853697448757392
0.0649158502644605
0.0784888590616201
0.0614388236366713
0.0792583897606749
0.0649625947699446
0.0810643281844793
0.0660920286081462
0.0806224085836407
0.0694330207251058
0.0891677206971583
0.0689630227963498
0.0771706091467658
0.0763936729745631
0.0641851252199524
0.0806144969161053
0.10430740103093
0.0695196807246486
0.0808679424159842
0.0611262445233311
0.0823251134548165
0.0664824799884027
0.084624818013926
0.0668026873579513
0.0797336125554963
0.0478429894467317
0.126094847564535
0.0639289028511962
0.0929748601292462
0.0483550565495048
0.121036862243282
0.0791971379556121
0.0898941404126352
0.0662450605444399
0.0872762713215419
0.0551855421881764
0.0871190328266375
0.104517987483519
0.0895385995823046
0.0604237976510451
0.103568920078969
0.0710988549053441
0.085006276082891
0.0640582077812247
0.0656315845369186
0.166995769485423
0.0867900786640794
0.0714178938955826
0.151786279114599
0.0785821584541621
0.102770790541601
0.0663618595204272
0.0665431240250583
0.191828547399301
0.140701758135356
0.0741519695514217
0.0895354393390243
0.0963519494601316
0.0768210608733488
0.0857566306215949
0.0884072128326836
0.0956841292308777
0.116220132707743
0.109127082232695
0.158855346311096
0.0499540016557395
0.141859012146133
0.0979736255961072
0.0932242452757201
0.0725732060393102
0.096113826834532
0.0695534262173906
0.110762859510483
0.089129363827926
0.114963429002235
0.0816381198176685
0.0844027159160451
0.113342070269631
0.10192618585576
0.0806060168663214
0.105211450388055
0.090697400539565
0.0844947248568128
0.0866493426464686
0.0844942894684315
0.0930632125689295
0.0847337228884803
0.0806457431497568
0.161374583622086
0.0934607220365975
0.0984887979819
0.121164646405808
0.101991625135919
0.0892809883700594
0.0910214701712576
0.0846437078893452
0.0966875100574502
0.0845238147963226
0.0857542174730718
0.119240317616161
0.0981363516452998
0.090105820544338
0.0923361870877716
0.0798791871181956
0.0975378244827193
0.0881834589883369
0.0979191295955857
0.0929559489751476
0.103855383501916
0.0827342930320219
0.120805074145508
0.123623078847306
0.084269328795011
0.153870535628528
0.138558239101981
0.0936283527659177
0.102889698560514
0.0900212768240514
0.10895042722731
0.0978462127488651
0.116640667417511
0.102196982430309
0.11204856687124
0.116333020977966
0.13545240809587
0.109048279265724
0.121314006735666
0.165099179750554
0.187732833626214
0.120886730626901
0.129587303097165
0.084592380276392
0.181525976545157
0.13299312219022
0.167582861223858
0.15600097325759
0.123823686976098
0.136698556317341
0.124286046518333
0.130217235567115
0.128232591936865
0.137563797925203
0.137707099940901
0.138017201442607
0.139683541188206
0.149064175274859
0.135625808819509
0.146432285205037
0.194082229535459
0.149184093460861
0.149868721362218
0.15938102514887
0.141221077529321
0.194284233888031
0.182468684137255
0.201648419033901
0.192850628931874
0.196603159446515
0.227806129051953
0.15302869961005
0.181106054926393
0.158534582881245
0.186587832353451
0.173752397764224
0.180809291620036
0.172882048400436
0.182680535771743
0.177871280925169
0.198234285671428
0.185649268591462
0.197139173989759
0.181393668513698
0.229362261956726
0.183509500914206
0.222662050104895
0.187822626917617
0.250816487711203
0.245849930316667
0.284306132529996
0.212449166449027
0.235628463567909
0.206970401515379
0.231849493299073
0.2242802233583
0.232555564301255
0.228372878180081
0.236353928461052
0.280276390975228
0.26876324049434
0.262666133631274
0.275206017345685
0.222635532937413
0.279996201818491
0.256045744891863
0.27562222403083
0.28517275102205
0.280656726491487
0.235035261372418
0.306239791104363
0.290992689805874
0.301699205304095
0.29649283449852
0.295474573124008
0.273270132603403
0.287873803410089
0.292006047195424
0.288819866123491
0.30091632886108
0.31929107614521
0.300741287868987
0.320585752869825
0.314651910894753
0.330780635710861
0.329627323993158
0.328048279468019
0.323292144770419
0.336268317785922
0.3102836911038
0.358758395432
0.309585143152244
0.386392650646812
0.352704952783816
0.379115144820346
0.374802221011726
0.354240018406003
0.356129416485915
0.367983597141298
0.359635565077513
0.373095129334879
0.371703436006786
0.411867514906274
0.376296378425061
0.392042570986986
0.400892014620896
0.398278475936334
0.395746203850169
0.406859026920845
0.38610099762561
0.419715647658594
0.401188280124941
0.433788261357814
0.409331341191116
0.477238851551829
0.434848364132414
0.484990891224442
0.449643353068102
0.4590816559411
0.448202595081446
0.45835701405871
0.451310519879503
0.491790922864772
0.454997595738733
0.488710002033326
0.467947559348129
0.497179224949454
0.466928252013689
0.492350340753463
0.464473948275888
0.522187592989568
0.468716158968642
0.525582772594488
0.482358950259496
0.5289919124864
0.524773214408146
0.542431953396088
0.543942333288998
0.535851685338586
0.550105208205467
0.556365653989877
0.521718912187468
0.56229078475282
0.516862083025798
0.567847415530073
0.552511715751105
0.574248521678776
0.554175559110075
0.587361132532357
0.58190096603559
0.635449876767755
0.553504254942982
0.604147941233408
0.569050586552999
0.649166531185959
0.589163563680405
0.64611243984562
0.616005668195237
0.608850047494528
0.61807496713171
0.655380676919524
0.607090085321143
0.649319960503511
0.646123430942029
0.674777198510559
0.636603521960469
0.634130331115103
0.625694597649102
0.663782283140707
0.705194311330563
0.683008097846941
0.63456282273773
0.743626470490056
0.655962177083847
0.725531955896559
0.714078784742554
0.743807634464721
0.699336214413172
0.717640211824538
0.662140197064234
0.710440812727499
0.696447916222352
0.778833887027366
0.701400891525073
0.820706602838909
0.718459111683704
0.779219541725502
0.73805975451112
0.801850310824276
0.707642358670492
0.75260829038658
0.792449134837333
0.808286356657153
0.740941065225682
0.791167006175951
0.788075370167015
0.86675610768072
0.758022874935154
0.820518361406849
0.820968983395638
0.885848611907547
0.769426688761564
0.889165281882563
0.839603868923436
0.851159818635136
0.807520954088582
0.864770807029597
0.815622983122433
0.870849665567585
0.826102466639079
0.903808548307866
0.839402960492165
0.963172108860049
0.847006738819742
0.927245238703211
0.87657216597357
0.913010115973715
0.83064475721839
0.919667965934651
0.875792257702382
0.889632438457905
0.856736851887865
0.928802936207427
0.897905663745539
0.948852623335905
0.925166474421435
0.993673226729709
0.920640739771676
0.969196116358507
0.895496885591544
0.97338370588923
0.930683108733891
1.05781831074078
0.9829868799833
1.0050556959498
0.917814604727012
1.00066102679268
0.933218431301142
1.02712813281867
0.97704391866448
1.05554514776164
0.96572217678399
1.10377119398056
1.00121817679549
1.10336098756058
0.995219449421901
1.04983859271757
0.994694923901535
1.10854237484929
1.02893639416345
1.04600891962982
0.995714036390439
1.03629363459836
1.00736203290434
1.05593951710292
0.969085046058151
1.04550422777458
1.00458871478391
1.08541253288801
1.05785818776598
1.15298443250004
1.07267977094312
1.16459928958805
1.02044409939791
1.06026797575893
1.06389494425033
1.17936735447383
1.08181970654707
1.14994489611745
1.10044906746014
1.19209204793196
1.09351659272271
1.13732748229696
1.06780252703372
1.26450341031566
1.15301896011001
1.19724424002157
1.07090084839789
1.23835800203887
1.11879759831482
1.21757803031343
1.06805501967682
1.23928310053947
1.14051556825126
1.21426091281354
1.23764672757927
1.24057215978604
1.13058555383578
1.27368821830774
1.15978905390997
1.23034842108051
1.09603418862015
1.23355516369938
1.11693690461999
1.19625430925699
1.16460290001952
1.31891110138438
1.16360100131651
1.25405755854833
1.19625112185508
1.34822166363514
1.25441636695211
1.23348437561367
1.1602363491575
1.27800560577018
1.26696957979077
1.41097903286298
1.25385816271441
1.3833055271002
1.32270757138526
1.32100343839111
1.31008798254403
1.3504657951945
1.19279375771762
1.33670906193559
1.30091919138912
1.34962533135998
1.21743053738478
1.34575983665564
1.25788578312913
1.38364082201648
1.2576327579675
1.3910551038185
1.3640190189285
1.44681551686685
1.23286525846987
1.37419403274343
1.26356438681994
1.38115093270113
1.31136896029571
1.4395697426518
1.28324393052087
1.3471214158076
1.25920978457691
1.362834168847
1.24200359693591
1.45457792721495
1.34271249909006
1.39242862166308
1.43497378272571
1.42604646012446
1.37161437922946
1.46993334977029
1.27593025654153
1.45453557549346
1.37189386483724
1.41624143793385
1.29692492401163
1.30800492661853
1.32495760871027
1.47551063636146
1.35426581044199
1.41845247094672
1.39745468480882
1.46351101853526
1.33818561662111
1.41968895596355
1.31438172556624
1.41317539074077
1.35214406761118
1.34895193191828
1.28714028410987
1.55024747379519
1.3553037033311
1.48693925479002
1.39073214793257
1.40867608372734
1.28182381037103
1.44843731426921
1.36258375083976
1.47567537582109
1.3883846426506
1.50508002266692
1.29749949260884
1.41160427700111
1.31487653992928
1.48315129353018
1.33441824810427
1.43013882904699
1.38280035692869
1.39801820662178
1.29761730288207
1.36684024335135
1.34209474347993
1.38744908101834
1.31134711858994
1.50294877472857
1.36639084624138
1.42565574477129
1.41187535919487
1.40729770219324
1.27866341640549
1.37884284161126
1.42423980780661
1.36715983968683
1.34525102068574
1.42887023944515
1.34403237742068
1.40044239697835
1.35043053733118
1.38506073616536
1.34409045424431
1.46714427116656
1.30387308826862
1.38869531168098
1.44863486023513
1.32570046097214
1.33700798072118
1.49515073847631
1.39910949844469
1.5804886889193
1.3427375292134
1.3841448633879
1.40326579194332
1.4065113604076
1.3514112549448
1.4138328282833
1.35050830329329
1.42517248610909
1.45068180046849
1.50698641295806
1.29935085540193
1.38156935947364
1.41717141706599
1.38219549348212
1.33060734814037
1.44312997813557
1.41684928626156
1.52484549608858
1.39328284564916
1.40400538434165
1.34757771219252
1.49271785262312
1.40664856794718
1.36843617392283
1.34049407357502
1.54592155509542
1.36404241549331
1.38438986415496
1.40177699447454
1.38582584725421
1.33230804896436
1.46164542444035
1.33488931604305
1.33125700465397
1.31102510312442
1.44938628299104
1.41975550415823
1.42528314897011
1.30033652299488
1.34915713275064
1.33230665726535
1.44784292308188
1.34028393283392
1.36197564503018
1.32767710851002
1.37471498900542
1.32434465285884
1.27697774190586
1.27112049288619
1.38385763198467
1.39858917136227
1.38021902308371
1.38284229917346
1.36836494006223
1.30557596047829
1.46172891899715
1.38356879328415
1.43419223831516
1.30945736574389
1.32622486337369
1.337769710688
1.3250241988198
1.27517771053746
1.28621963529391
1.28198936160392
1.30080907635693
1.29674658548491
1.31160089847883
1.2980934660334
1.34445594831666
1.36270442351726
1.34333689947152
1.25481592570689
1.3579173529814
1.26046702724896
1.32455686382899
1.27232137435625
1.30819814158222
1.36176455532087
1.36063479706622
1.33110731268228
1.34879257875277
1.34736991482686
1.29156524457585
1.2499829564282
1.33937805132272
1.24942656845194
1.29503405357428
1.2555658963125
1.30837614481349
1.22790274229281
1.21858299380504
1.23454172559926
1.28473170319823
1.2496284597246
1.2450451762959
1.22978497371395
1.25564008568239
1.19381942683975
1.25171142303941
1.22707985720186
1.28725322289951
1.23260352014566
1.25867611281676
1.15570214902713
1.21917770453751
1.17565624134513
1.23410920226049
1.18695996203968
1.1760932850124
1.18035345417366
1.21187934516567
1.13741335628406
1.1996402116631
1.1564827378331
1.15995408891253
1.14884451434716
1.20734385406933
1.15495163207642
1.16700667928337
1.15210197028341
1.17077313222382
1.12219291540456
1.11626547436994
1.08969948553118
1.14560244523573
1.06570007681073
1.09661349052744
1.12385364703997
1.09665561239008
1.1064448834234
1.10816288980785
1.08251151126682
1.10897420993945
1.08465236659125
1.101362188654
1.06064854422418
1.05489116907727
1.05596270948463
1.07500263028139
1.03922879886952
1.05845359335886
1.03914539738184
1.03567875517212
1.00780425324133
1.04551536203406
1.01580792491689
1.03004972049781
0.989962236527844
1.00305206832208
1.0098958223781
1.0242275255547
0.987124177273001
1.0057552384826
0.994028728389683
0.975799027770515
0.96630920018396
0.969065147838341
0.947116533578887
0.994486837850062
0.973615097524193
0.965675718731387
0.975790584417152
0.952367466342907
0.936602131919412
0.950571143206272
0.928246625100383
0.938393417768853
0.91490844307954
0.936104101724713
0.93017650695213
0.919543803370915
0.902154256900908
0.913956631582056
0.886208247710834
0.902185565870676
0.900629090670409
0.899784358842803
0.888372097137232
0.887062663484668
0.859962688819095
0.871531627787674
0.865355093491284
0.85339890878252
0.846257061658787
0.850412009110586
0.846605579592446
0.853763236406457
0.833516010546138
0.851009955478461
0.83623368970684
0.845508430391238
0.83196225556986
0.831549227135252
0.818555910515718
0.814093407189794
0.788334363630639
0.800946445493674
0.805831590753951
0.808958136639797
0.797389250864531
0.796891443432457
0.783871255032341
0.79361360905249
0.779611360011659
0.788997799860226
0.769143167134591
0.767876020008543
0.77240788424578
0.760134486969061
0.752903586368568
0.75905411289089
0.747356190808918
0.754393522776344
0.732471092988876
0.723446235531209
0.724955768754282
0.743071359638366
0.721067404065086
0.721580986353405
0.703761261731806
0.70883796855244
0.715355198798499
0.712519455724989
0.706160403331421
0.69889276825137
0.693596465598982
0.700977676502962
0.695119509016075
0.677815902005712
0.683530934513063
0.694799941339142
0.667942165762801
0.67451561198989
0.675080610973763
0.671303821489243
0.662398272529791
0.672225215923712
0.656256111364942
0.660044228925708
0.65029971757135
0.658564604095607
0.656439370178021
0.647172068010741
0.644088757526993
0.641399144221319
0.622539207828244
0.620615364064235
0.616550728385632
0.626380185519914
0.611159966136151
0.605541990631902
0.609741199509438
0.622097617970033
0.595309251375105
0.60224151362993
0.605023031568312
0.602048976120275
0.595015456238296
0.597901213590628
0.591383705824935
0.592029944966103
0.579734682022551
0.579289572051016
0.578687646499368
0.574402853903151
0.567358497947317
0.574455190765838
0.56515512910421
0.572169122129482
0.565713846080396
0.554859921136345
0.560862800032966
0.555806382949726
0.54701630313047
0.548594996226241
0.545152763925145
0.548094218292684
0.538033820114812
0.539702914471586
0.538278257468814
0.535498941236301
0.529116858120901
0.539406420431988
0.525680926481168
0.525987698065157
0.524300100176559
0.522606462770851
0.512181014610749
0.51262312984125
0.508906424495996
0.515111976877272
0.504501171534578
0.507777614266185
0.504779211519179
0.503017211865177
0.501672381161321
0.495534615253963
0.489925711068118
0.500240803930635
0.493878783727566
0.497544251609073
0.492289382742519
0.490828803304576
0.484733829691605
0.483625752329103
0.486616724807132
0.487810296294203
0.478133190625811
0.473882648348449
0.480419061951207
0.479585554552207
0.476006315597065
0.474461014928067
0.458016119971381
0.468089771588785
0.4654432519241
0.472255451179779
0.474580634005407
0.47261608951051
0.470799563913622
0.469354375130387
0.46375782566927
0.467193260708066
0.46619582732052
0.466464461849628
0.474114455803117
0.475632450342672
0.469199637790204
0.47279888131147
0.469649877331935
0.476256327444984
0.471798617395601
0.478721743799727
0.473063340056215
0.479057728524099
0.477069776591947
0.473754236479358
0.474852618882644
0.472304459524882
0.47202853498582
0.484629681458403
0.486869489175821
0.488475652523334
0.48984169535664
0.486074622749752
0.485388390161016
0.496036417449834
0.486860429157722
0.498175931646357
0.500954581988794
0.49710118669039
0.497539329587118
0.501579909106757
0.497326621116568
0.504474738585404
0.504099166596496
0.505627654862446
0.505065097676999
0.510070822968434
0.503428404067307
0.516687862046302
0.522540979826139
0.518378091397991
0.518748656262092
0.533829036575826
0.530933153902993
0.529421331689003
0.535146127850163
0.540090733748857
0.534038938140162
0.53702731133609
0.540262048533312
0.539115490201845
0.552201600872063
0.56323821268605
0.558212814251866
0.561705714747705
0.561855860081103
0.567510996202596
0.579425806285664
0.575114903303114
0.565082197724172
0.577556507152379
0.576184733031298
0.5777900866602
0.576418162408092
0.586129637188042
0.587023374391333
0.593536377412901
0.580955191389813
0.576491658820451
0.58937278785136
0.58341296322493
0.584266415963358
0.593470801677677
0.597992839344179
0.598361813369389
0.583920242609671
0.585805006197737
0.587451807712903
0.583937149866535
0.577587865683368
0.569271446188217
0.581027056147088
0.588131183508013
0.576445594227543
0.575414691071677
0.567010211748878
0.575396041312959
0.580379495597333
0.579083700094319
0.570090863665681
0.574764122544407
0.57695400447074
0.571686234461466
0.58280901350567
0.584120729127202
0.573199442100612
0.569503692719818
0.573220652689434
0.57088058399908
0.568026297803823
0.573325245069769
0.57747635950017
0.578727502557175
0.572058663120537
0.573913391069968
0.567700884901504
0.573116899495073
0.578124669019008
0.572948643194225
0.57865278451185
0.580571414930543
0.5668098156077
0.572148612264458
0.570238179415049
0.56833578399002
0.577940090519183
0.573206562893041
0.568920479570083
0.568974849125611
0.572467087774153
0.567631159014718
0.562397890500069
0.57065619324532
0.563872637069262
0.567714082842818
0.561043955144815
0.553970874562375
0.552677667796127
0.550427622454355
0.556089852267986
0.552588321470907
0.543549837267589
0.539285761518961
0.538420899889379
0.534218629441147
0.534617254864325
0.53796134949286
0.532338895439465
0.526075430622468
0.521226370324355
0.514791545732502
0.514918475210968
0.516600404131623
0.504386025949041
0.507420495444896
0.50738608580127
0.498791828719335
0.490127930172518
0.48462209088587
0.485227651358634
0.480765015661449
0.475906829625867
0.469676767971251
0.469638130657958
0.46538198335164
0.469342701891309
0.471117030234077
0.466661998601255
0.464031657061687
0.452481797869604
0.453169996940896
0.445616486574545
0.443246474260509
0.441927484722072
0.437900683457292
0.436534472972066
0.429592236510792
0.429385113692652
0.430178321252657
0.430516206334133
0.424702295072026
0.421470361105436
0.426383420633492
0.422317624394504
0.416765613395191
0.420105540140833
0.418239340631824
0.411771014849715
0.411726511122388
0.410032761859842
0.399633159236373
0.408685251256132
0.407883747645002
0.397467445639696
0.402263433303056
0.397559852539647
0.397560489218804
0.395140012748593
0.391365294870316
0.395197763061276
0.389747396147937
0.38576043223598
0.389573721347938
0.389321360310071
0.382533665292101
0.379659766997031
0.378219747245002
0.380141266409308
0.376156437708654
0.371356624878425
0.375763947628778
0.370021691125248
0.36733799020593
0.369929985601068
0.362534118518288
0.361665107620984
0.360059996029939
0.360342684000385
0.358445649502742
0.360455291436024
0.358706538811299
0.35631994993708
0.353274797227215
0.352789086663821
0.354580195562755
0.354632346262619
0.353428747280993
0.347018482005073
0.347772276688677
0.349239814765353
0.345373367020823
0.344075793574269
0.338707898838397
0.347793066680866
0.340642199636318
0.338071751449928
0.336975924666752
0.33180785084914
0.335554432187365
0.338711540485328
0.336135577427064
0.340107929452357
0.334183040463397
0.33078703768905
0.330230100894737
0.332461427082536
0.329977789011903
0.328453859833411
0.326288070303959
0.327921351044566
0.327606811580658
0.326640139505011
0.323549315693273
0.323075538757622
0.322261438767068
0.317112544960893
0.318278600211536
0.321527881863947
0.318600231193518
0.32155266766385
0.318470987752493
0.319281939617084
0.316906060699298
0.31696474393902
0.316331542856063
0.313009348083675
0.315827660472544
0.31242922863449
0.306919910409917
0.309047262111042
0.304423683110676
0.305228514703586
0.303345376245711
0.305508189778976
0.304871547253031
0.306811781116337
0.308624734634707
0.307833418455228
0.303920832541057
0.301232982398114
0.301974578707971
0.303659175748269
0.301747818160519
0.302196527842637
0.302048176723777
0.300946041697764
0.299083994131643
0.298557404526982
0.299404445760831
0.30418080446958
0.296626098472791
0.296219872805335
0.296638703161654
0.297877014478288
0.296767495278831
0.296642303870789
0.292610420613073
0.294526148635815
0.294452970844964
0.293930892435652
0.291874216735411
0.295669168695159
0.291552655333698
0.291931801345218
0.290363718634975
0.289914740740152
0.291507988885385
0.290409428548246
0.28769934371621
0.287904545130555
0.283860596174883
0.285441756199526
0.287112973059795
0.285764663100546
0.281814998753421
0.284274015159233
0.282690676684947
0.281664793136742
0.28406339685467
0.284035322943352
0.284665969157756
0.282707874017137
0.278045290558106
0.280325414887014
0.275567316894333
0.278727961230749
0.276013163780426
0.273921476993756
0.274339865694157
0.272370235796503
0.272541174185604
0.276007555226356
0.270491433429399
0.27126357624748
0.270744616596668
0.269260855129028
0.262693564846858
0.264486159012851
0.263900504477624
0.267288384131971
0.26455886926538
0.264140463856337
0.262763944044431
0.260349400242326
0.26029834870288
0.265365482196073
0.261916446904568
0.262025441272173
0.260181662708223
0.260571345969462
0.256972546380446
0.255254586444369
0.253888841221567
0.255855780210899
0.255018541173209
0.254529138122929
0.248370923052607
0.251472972451718
0.250483104295674
0.252682077552116
0.250150773733968
0.248481131502827
0.247022817073861
0.249978074306057
0.245952663103114
0.242412803393798
0.241636157059865
0.243654739413351
0.244669107941482
0.243190219154923
0.237383979207702
0.240713953209144
0.239056869244858
0.23731537990186
0.23496563417603
0.234590275589094
0.233458015191631
0.234101798988152
0.230609385643085
0.234354094956343
0.229525359587221
0.226251548569387
0.22725992657051
0.227644885692169
0.22639933455253
0.227239238027991
0.224289679246581
0.223425821082556
0.222065617746493
0.222902429136587
0.222842931751254
0.22229074941726
0.21690664455738
0.217188089472795
0.214935536606398
0.216640354504703
0.212724935976053
0.212142829415973
0.211228749621881
0.212771850272055
0.211606107548044
0.211451719749533
0.207607333933567
0.20917099420982
0.207287186472379
0.205986489959563
0.20136353713056
0.202256640236197
0.202976577086627
0.208728806217585
0.204184343400044
0.205110546767134
0.201509498910084
0.200957261450804
0.20388042824386
0.203497075497292
0.19950393177178
0.202213568959484
0.199106012599648
0.199245283307381
0.195723062056358
0.196672943422987
0.19461586055651
0.198894794377392
0.196373900837985
0.192841943090182
0.193097959756669
0.194984662028176
0.19411896552707
0.192543171854524
0.190032194553516
0.1922883202593
0.188000251263716
0.188887749158819
0.185985949962988
0.188462427956001
0.18931932605569
0.190724127616366
0.185347946484433
0.186773316009767
0.187403453746512
0.186980654215171
0.18423985969397
0.185119117733718
0.184728309273458
0.183149023712809
0.176636359395371
0.180701204721293
0.175354409077264
0.180113964865285
0.182278717871139
0.177169140069671
0.17745446045742
0.178275062485045
0.175140711589243
0.177936265581162
0.177193712182322
0.178926391123762
0.174226527613837
0.174690302419177
0.174165006764614
0.176252491445366
0.172360929455481
0.173207234020962
0.171547442957052
0.172526495073198
0.173518692744991
0.174556743273961
0.170580131392492
0.169497907768996
0.168527245249972
0.171532882565032
0.167179298379743
0.171327629753936
0.172582881679231
0.166825378786928
0.167756352304495
0.172977925553531
0.165604674540774
0.17080984846099
0.167101629676539
0.16879907876025
0.168227188486041
0.164905201191485
0.16498440947341
0.166971188458133
0.165775353558473
0.168434650278451
0.168300437163002
0.164907768907105
0.163125004865409
0.169146996944308
0.16532476148473
0.163709716298185
0.162005430268595
0.164922163564404
0.164642010732785
0.164763511864825
0.160184049722422
0.163092138817067
0.16096430622
0.161603968217085
0.160180588525567
0.160672265214535
0.161584147257217
0.161568465984257
0.157093673550212
0.161557631320584
0.157085957563169
0.156077109448523
0.154265064769519
0.154227738515795
0.156375657930301
0.157511424224133
0.155132916352216
0.156201824416594
0.152506260782618
0.156599073967582
0.154004820861217
0.155396370879632
0.151997977297147
0.154976382584963
0.151638582824978
0.15258681523896
0.152053547613193
0.154214276715664
0.151975704136373
0.152700462814444
0.152380641248763
0.153495677168475
0.15102752589765
0.148917623645405
0.149933072337273
0.149800983323668
0.147893747037053
0.148928404354755
0.148353247052233
0.149595971460071
0.148441154877387
0.150488240860285
0.146963133418961
0.149739704932807
0.145977599454218
0.149328289638015
0.149322311443948
0.14781147277922
0.14476230438852
0.146620726100447
0.144906502035716
0.145827214261412
0.143902486561666
0.143726331778622
0.142437346719524
0.145922555903095
0.14389296265606
0.145762992680166
0.141327189713345
0.142043894070433
0.141170388079964
0.140157952030529
0.138418806306848
0.139549737028735
0.138396431438807
0.141232244640635
0.138794882757222
0.139475002173972
0.136196259277935
0.13573443286913
0.135098297644527
0.133887420460094
0.134210874153658
0.134859232895936
0.134272723690357
0.133696463504969
0.13086682355366
0.131098975362114
0.129834702925874
0.134416173981674
0.132346942910559
0.131328296864807
0.127268604419079
0.129606261488437
0.125686982648102
0.131304629088677
0.127353841033381
0.127678983747689
0.125979037841313
0.128853592891318
0.12608201702315
0.127105884937994
0.125756382285998
0.124713401805411
0.126373279692026
0.127863386450824
0.122342289515382
0.122912714776895
0.121156593672396
0.1232875474492
0.12267103448963
0.122757789071175
0.119418989843827
0.124089336764314
0.120284421593829
0.119712378831369
0.120376944111935
0.120845591505692
0.119767964997898
0.122296738801055
0.117730676309072
0.118696018745048
0.117631471037565
0.117890264641866
0.11602432154275
0.117229730302895
0.117253942402356
0.118450367606901
0.116285020910817
0.115042652092211
0.113692680535893
0.11572824609295
0.113334838352784
0.116601761581062
0.114296523888105
0.114376838339581
0.113812757577827
0.111041560275444
0.110510236453737
0.11312607077742
0.108952782051425
0.112530609029156
0.109451842429355
0.110590672341443
0.11027656439063
0.111905751855367
0.108091752129833
0.110431522861266
0.108811579429292
0.110496368159226
0.108017569354646
0.110588555925925
0.106647739796971
0.107734077877047
0.106383580241202
0.107149065578979
0.104532528274062
0.105349007657406
0.102678035266507
0.104892599751103
0.105639997382259
0.105470043671446
0.102844071715236
0.105202759564504
0.105341308849294
0.107815614461965
0.104346974634353
0.105834855373415
0.104711710668878
0.105625775415544
0.103810930615624
0.105140235152646
0.105227652955095
0.104198099543635
0.103947195936219
0.105262882952975
0.103789845790983
0.105898355475291
0.105780154455378
0.105854392328844
0.106663962042342
0.104598810329915
0.101373560324311
0.103252354735771
0.106476542616733
0.103342611187768
0.104234708753202
0.101989436307699
0.0987662578925065
0.101854334390285
0.101279075465878
0.104732675459864
0.0990868591555053
0.0966051851258249
0.0943701944505786
0.0994984831288378
0.098852285386533
0.0976476739364919
0.0959622442475839
0.0945115374831225
0.0942304467654845
0.0930878713150132
0.0912422945202503
0.0944900385263942
0.0910425932653234
0.0948973447987695
0.0930706683150238
0.0979726463284541
0.0958141702739243
0.0954996668679566
0.102237156801303
0.0995732477235145
0.0960218762834761
0.0930426230944073
0.0966334780902076
0.0928707598710607
0.0935387589363635
0.0953802727974053
0.0902945526243326
0.0931593622758287
0.0911437948327149
0.0944634906892894
0.0880888813817503
0.092486264261609
0.0887148583933787
0.0948710250430929
0.0871839711097722
0.0996092547049499
0.0857994778427312
0.104139056989255
0.0840403271326726
0.103773705738985
0.0825991489389113
0.110690142787169
0.0751267469779204
0.114951951178822
0.0734272808081629
0.115687528940078
0.0754471276841984
0.126695200476247
0.0697297666460151
0.125527685711428
0.0714895407562284
0.127567819807571
0.0724154229459582
0.120914322629101
0.076822729151624
0.116064858217703
0.0854397656711118
0.10738346621198
0.0951513429515589
0.0997396633269386
0.0958769198686675
0.0954797659396922
0.100654462895912
0.093773031757112
0.101649904844849
0.0961000175973286
0.0944717400922406
0.0998455771555709
0.0920118217072119
0.1014536860547
0.0917414442648589
0.102212392769306
0.091516905620747
0.0990321597844566
0.0916760458092741
0.0951309003921096
0.0936306479602818
0.0952970458476315
0.0933567225896384
0.0956730557492893
0.0930083962364649
0.0986841182404525
0.0914880038448018
0.0971325159329006
0.0919646245525836
0.0940798128002812
0.0903961189021321
0.0954466939741014
0.0922321439959392
0.0950678735953944
0.0923449228374245
0.0946393904058233
0.0921910072850621
0.0958233820271654
0.0932297210570069
0.096398038955334
0.0930249109672853
0.0969013795097295
0.0915024336877127
0.0970812021914973
0.0916598538541411
0.0954652567968714
0.093192054275509
0.0992330726242626
0.0924641747754544
0.0970630509185136
0.0939094339529918
0.0981378101476191
0.0927512958228008
0.0963323498758989
0.0928814949319565
0.0974302562412876
0.0948663091282278
0.0998186981230373
0.0921232744989443
0.0976818859736568
0.0937323274281012
0.0979747218399065
0.0940880986181604
0.0983331040468163
0.093994351445837
0.0954456974675731
0.0942236469286315
0.0986760823599526
0.0962660020885283
0.0988786217945851
0.0954963183728827
0.0981737997676349
0.0922639254875839
0.0972546004132867
0.0954287608622292
0.0987383280998763
0.097565890936533
0.0981802358072829
0.0959314299224113
0.0989588945020783
0.0959369186465373
0.0993128263829539
0.097195133808329
0.0997440689091344
0.0955414871755442
0.0998468133118448
0.0959033335677987
0.0993958499675018
0.0963205507545722
0.0996779381491981
0.0950390776101224
0.0980305226190608
0.0967678952699357
0.0986978472989102
0.0967968693419829
0.0992677296176919
0.0961623073691622
0.0994326760022969
0.0967102385583084
0.100187192261603
0.0979146196352449
0.101679652224953
0.0978520592869814
0.102121486990413
0.0970123160895597
0.103433780781163
0.100216551480146
0.101852080961063
0.0984593062936009
0.102497823162752
0.0991676854358807
0.103126420996358
0.100358833619116
0.102489937436203
0.0997887722741524
0.104468681235209
0.100752965812407
0.102581405850209
0.100630471471166
0.104949087203565
0.101719601531202
0.104132957450537
0.102387732727051
0.10555316991904
0.101481687685449
0.103840801500652
0.100044876521498
0.104826439070095
0.100304738080229
0.105241304772682
0.103900973435557
0.105945671185489
0.101883236480795
0.103686226320794
0.103490019300636
0.106327375047981
0.102836097372859
0.103702479335722
0.100466847455537
0.105736792194335
0.103089458684563
0.105153594606464
0.101909364842399
0.105163544343844
0.103238870672537
0.105014874320661
0.100955584548303
0.105257505092222
0.105745727529618
0.105080764809259
0.103963731911445
0.107323297656423
0.103159673821458
0.108691056100966
0.104574342725653
0.10813785966835
0.104253456190058
0.109058070532288
0.10594336282199
0.108439166435684
0.106158931936223
0.106482573733238
0.10756827829288
0.110192814751403
0.105383818488625
0.112097523790671
0.10736993572156
0.10841348334772
0.104593549433788
0.109033044414754
0.107694013526825
0.110644626938631
0.107779516591691
0.110470324396355
0.108496086541242
0.108353920500995
0.105069465030586
0.113104304365762
0.108937639954165
0.110693084478587
0.106897731649372
0.111969773841164
0.106189678947454
0.111429803984713
0.106162691547745
0.108215203523117
0.107362642574096
0.107816301630227
0.108465364527397
0.109130573469424
0.105816786995259
0.108606202136297
0.103821308079917
0.105971326217576
0.105291959796924
0.109072948847871
0.104433428397267
0.107350049901195
0.105112644504959
0.105504904077988
0.102920387635097
0.104488628837894
0.102474258411154
0.107353494106935
0.104768666191999
0.106401741165693
0.103758182505953
0.105413418702498
0.104429597814373
0.104021341566155
0.101343552526528
0.104608061705553
0.101328510711861
0.10700168451047
0.107412930717756
0.106658588163135
0.104520704100725
0.108497790655089
0.101824906634739
0.104870061909779
0.104238121885513
0.104187638465609
0.0996427967879743
0.103916403283514
0.101041100998423
0.106509675887106
0.0997176761243854
0.103769874713784
0.100613087622493
0.102274049329358
0.101260481121955
0.104888971945813
0.101557495325266
0.102881073848005
0.0987026470470526
0.10364642948061
0.100352452433987
0.105226447782034
0.100947613551722
0.103124347533625
0.0991306514026694
0.105502136242984
0.101250267320577
0.10134851761284
0.100571118980987
0.102931312809556
0.0996321804393202
0.10040578732477
0.0989965155702437
0.100318234525279
0.101429598124507
0.101386914569098
0.0988060614282545
0.100102473749915
0.100470223599625
0.103330426547637
0.101994865982135
0.100889532076183
0.096208460140164
0.0991105588930971
0.0991606182629133
0.0999881309579998
0.0969223876395983
0.0989604255814392
0.0993819264254305
0.0997917491270461
0.0994302796373554
0.100070033072039
0.10035511350411
0.100554936895459
0.0969464917834606
0.099907661854365
0.0974817000538581
0.0985859383688144
0.0966289145287383
0.0993207070643716
0.0949227817761672
0.0993966705109815
0.0949329207847322
0.0999276823543095
0.0958592615818516
0.0965564962175136
0.0955841911804326
0.0979774089270163
0.0948649657690407
0.0962443411118784
0.0945350024662492
0.0977839916252707
0.0951555157760316
0.0968525513043417
0.09632007181993
0.0971716459479358
0.092616957626753
0.0957022786989222
0.0954846833648405
0.0958360217280929
0.0937105613744413
0.0944884451003911
0.0941927374177315
0.0936445685967325
0.093024933900254
0.0933280511631275
0.0917224453742858
0.0943376976054467
0.0902578531436826
0.0933483398923636
0.0923232725277399
0.0923184727012577
0.0900196299830681
0.0931984910836675
0.0892537067209756
0.0905110144233494
0.0876016729985084
0.091684003328525
0.0858976067111742
0.089268351889523
0.0876089817595468
0.0889220895165802
0.0882786146354548
0.0904970057538035
0.0923319027773076
0.0890090301123615
0.0866925454122595
0.0866589629166657
0.0835312812663122
0.0868669161590682
0.082876123504014
0.0860804327209608
0.0824110339818205
0.0852952054362858
0.0868277298480925
0.0840086329697475
0.0806980548241588
0.0807245082370217
0.0839486999638474
0.0845157973103782
0.0813130548339839
0.0832279351825257
0.0828379834843834
0.0837032668890381
0.0799887388853904
0.0808384866742029
0.0817273947411582
0.0814747097564251
0.0817687368891478
0.0797405249856722
0.0875406575463673
0.0913462590893182
0.0814081537116488
0.0817912960742727
0.0809892343790618
0.0838234945650836
0.0783553466269935
0.0816336111502909
0.0766764667340429
0.0819316585975104
0.0769070664973528
0.0825348625621786
0.077615972110712
0.0799151210355072
0.0771596148794496
0.0793041498475359
0.078235549889376
0.0802150853553629
0.0798791442947725
0.0820189932388375
0.0746167912228109
0.0798730723534455
0.0777318092031626
0.0788836470217837
0.07590047043565
0.0786719367937627
0.0767057874517055
0.0866668472691094
0.0783808979368463
0.0814595783838625
0.0743420361020575
0.0804639386562589
0.0738391683556806
0.0788579705989627
0.0738102774266919
0.0765291048316686
0.0724689425348188
0.0755256746144243
0.0706246598456338
0.0765873451762081
0.0745040386448774
0.0756581429881589
0.0706878029508892
0.0767465934715911
0.0707390656817718
0.0780942474445092
0.0696750165500635
0.0755478141911033
0.0711336599927841
0.0764656905094095
0.0705890842907981
0.0796793295104958
0.0674556287053847
0.0823002568306097
0.0883524494087179
0.0746074708877391
0.0746440493358732
0.071651747008206
0.0711056213129908
0.0716206279369496
0.0723329304087733
0.0728683604985849
0.0720326560433262
0.0733146669563847
0.071800693514138
0.0716644373913528
0.0732915410488272
0.0725287066690356
0.0705815507734835
0.0722448734763784
0.0721317615414352
0.0716349598583336
0.0735520390809203
0.0705583891078079
0.0735608772954786
0.085333868503239
0.0740176290520782
0.0755495281139476
0.0714764793652126
0.0659597164827015
0.0967232632678486
0.0749956086021117
0.0763410671212829
0.0719471615220106
0.0721831973820521
0.0684666363538873
0.0745681350319165
0.0683134214568141
0.0728886989619671
0.0766877217509873
0.0696773101921661
0.0769270963065862
0.0691557161814122
0.0714980785365035
0.071352536528198
0.0721513309510336
0.0688805929850567
0.0720833192894916
0.0710311390028886
0.0698476197275966
0.0696804117597309
0.0671576194603995
0.0714454202425425
0.0673802099326262
0.0743115332226478
0.0744943043856757
0.070777748343027
0.0691598803800066
0.072735670560784
0.0681067126421461
0.076236065278299
0.0881097584498905
0.0674857469409162
0.0751322271440834
0.0670674924839167
0.0758965399558703
0.068809819802053
0.0723569434947066
0.0655026125902459
0.0736362292350535
0.067196345015593
0.0725211122947639
0.0690372255357803
0.0730760323521407
0.0652721485695292
0.0715071437451545
0.0701470645043744
0.0719081231291466
0.0676815318622344
0.0698814723948121
0.0721930708799359
0.0687411673487163
0.0884693249389335
0.0887168523863309
0.0841192187993409
0.0807569540402377
0.0755091480658729
0.0728050867810407
0.0700983149802402
0.0723322559013812
0.0690486314894483
0.073025905987527
0.0688907281955244
0.0737553806073182
0.0705043054246002
0.0745019857644507
0.0694268280823892
0.0736686447088618
0.0670032872907151
0.0729020749140576
0.0678233161085338
0.0750200050595059
0.0659412679334816
0.0751852204467751
0.0644330615986084
0.082774930546619
0.071470437806244
0.0803217143995306
0.0569323233059421
0.116822441719733
0.084714955367465
0.0803324791296191
0.0743762768213218
0.0709014126993468
0.0704359356144043
0.0704923357317948
0.070980299816012
0.082203553963005
0.0729000867244669
0.0755299377702119
0.0746453311764981
0.0779205448515648
0.0728612269240285
0.0681149211425426
0.0808638174261517
0.104257730703703
0.076244140468507
0.0819417467391105
0.0676103708616341
0.0840350524180604
0.0986000732491073
0.0775521853694105
0.0805335663882186
0.0763826407934661
0.0748272117020662
0.076623198324906
0.0757756853893144
0.0775855161763148
0.0831772947772928
0.0800449390065634
0.0753510008441438
0.0769736616765628
0.0744468411874833
0.0834872189544657
0.0772813144663836
0.0901162829048899
0.0855692254952545
0.0788674122362508
0.0836066414637859
0.0824143184696226
0.0767660354531921
0.0784232092703271
0.0797189968939337
0.0791038222621068
0.0910403114240161
0.0924377088208465
0.081254741178565
0.10030645785516
0.0880040578054224
0.0787531970035577
0.0877369141841422
0.0865142862799909
0.0953991469120077
0.0729475334117094
0.0988102380695297
0.110596492829024
0.0961372369362216
0.106891245796025
0.0800082902954865
0.0916586960498091
0.0778002071430505
0.0891121352728304
0.074464640997977
0.109715220253537
0.081986959872083
0.0955909164777829
0.0754681136249455
0.106632534365835
0.09508889901199
0.0968327989491067
0.0878873082525506
0.0907426452116075
0.0826466425978424
0.109936275165557
0.0861837065776007
0.0867860942085914
0.120986835958708
0.11888680955389
0.11632835162338
0.0965526255786513
0.090491669775084
0.134842734965968
0.090366533555963
0.101022081134174
0.0886382236197474
0.10111753595736
0.0859566991347209
0.101692217316054
0.12996909280182
0.101808890241649
0.0956756872341648
0.105798461163914
0.0920820692569952
0.131933208025082
0.105968440002207
0.108208468245555
0.0985201413304029
0.112008229839375
0.0915751672643146
0.164541562788852
0.112256513004872
0.129917615500865
0.12723322495408
0.125862729882605
0.121773703441567
0.124636786849356
0.110871595812323
0.129583091977713
0.132881651915462
0.119791590026568
0.103583301725147
0.142362795468118
0.142560405446856
0.118583836008967
0.131959454044847
0.119415545213275
0.120560620560083
0.163699729974254
0.184972878281089
0.159204611398443
0.130053133454536
0.132206458585083
0.162606586497367
0.137104161560837
0.13504516703165
0.135585336360118
0.134473911729042
0.137931573604831
0.13914664128571
0.155697779714676
0.138017347145678
0.151689801141392
0.139936584142742
0.149935850520959
0.168233348641832
0.220829807528537
0.1891194672566
0.16367101445174
0.203055719617322
0.177507732622958
0.169776093197813
0.164564015016546
0.165773688354842
0.178796025270642
0.171320382002623
0.176588701787428
0.167435884983587
0.2099452698669
0.186976378424629
0.199291123553659
0.205961360511057
0.189566526551604
0.194816496164817
0.196820259485336
0.407731642284771
0.224277374462776
0.231916382220943
0.213491447132394
0.2457116815139
0.297086011086179
0.241050927355596
0.236018787740753
0.241006228584718
0.245544489208259
0.253847543693266
0.269838498287175
0.278232357507633
0.286193295974794
0.28523975098224
0.279529091794455
0.322859283668452
0.37927278905824
0.369040679630256
0.337677928162128
0.322622001647977
0.348980492200547
0.354064988828429
0.345454458605176
0.362282566619481
0.352678026049389
0.384864150724927
0.439487588614926
0.391477991330248
0.396361839952467
0.398392284793832
0.448086279252995
0.400088267844184
0.486534050782558
0.463080179203485
0.455800629218735
0.448470662794737
0.456435372112856
0.467696528040943
0.469704040638843
0.51889672297756
0.509907844424429
0.489576816665231
0.498907039763416
0.500153492325166
0.511849989883397
0.513021190213324
0.53571831148315
0.533440593346019
0.58872436017688
0.567508197798956
0.769159768610803
0.575730509182173
0.556148934635109
0.548592674132934
0.551081992936281
0.603301804702224
0.581739121186133
0.600232680737158
0.59972707209464
0.561911308898867
0.571176852079922
0.555862026867561
0.578179974105648
0.567450829786955
0.576514656220724
0.547652657881928
0.604314206494507
0.574367775165637
0.619169212200344
0.650193517125627
0.57908602554607
0.566434299077397
0.579325798235976
0.55730939045253
0.572999812676461
0.548659618872574
0.563110845116787
0.586469381566161
0.546549898813307
0.545814448508955
0.532390698186304
0.577127990464332
0.565311984977474
0.530452595902236
0.529399878543001
0.515009068308022
0.525109531381036
0.500443717125558
0.524600692387652
0.55708506749033
0.504091810573309
0.497625025195221
0.488100637110991
0.483431724501094
0.484802404456428
0.47172596383461
0.476780558753945
0.475622222030775
0.469363923309865
0.475263547206107
0.460315131063582
0.456122235146792
0.455099488671996
0.460361180427543
0.45204249675299
0.452857973911836
0.448479300547802
0.440468554961202
0.445564475609647
0.439649358464015
0.450289444772134
0.442239402528178
0.440172668254308
0.445353622525169
0.441852373354218
0.437604008797423
0.438086976126833
0.435501717663178
0.437452450858604
0.425271644465981
0.427467006978916
0.42212617390986
0.427616661723016
0.423647028462256
0.425867292395629
0.424253327625807
0.422638641174212
0.423270821734822
0.427521107846244
0.412178048203915
0.423366679927853
0.409898851406088
0.490311167131223
0.438177401989193
0.414819246288591
0.407902224148542
0.404500944362132
0.404625788525502
0.396629787801156
0.451506898682203
0.429531074307076
0.398717916674051
0.397679437826919
0.385533051756391
0.403172930029155
0.39572325479388
0.382147095293683
0.385314550995899
0.366552566636659
0.430526740432992
0.462676139567877
0.44019616909068
0.464869716384977
0.399739451323713
0.363194159107076
0.380280643237745
0.408284859181821
0.359933982883945
0.368832926605786
0.354864043823189
0.404103372673047
0.370167965945962
0.349644350593461
0.351396301491326
0.343090436013312
0.364121306782356
0.378819227002042
0.350924984409276
0.373846268727959
0.394384562839979
0.357529466190107
0.396725980182433
0.428365859025582
0.365929537925469
0.326474723253549
0.330256489973587
0.319992610473947
0.330269818392412
0.387075309066836
0.326802490908801
0.334210316399414
0.308420030911315
0.303887647628771
0.30999244626411
0.331764199717001
0.31653010538463
0.317202421743521
0.337179768542162
0.297333421521539
0.309279970402026
0.318983049689072
0.348369604701954
0.346868019452786
0.303304908578216
0.279671556640197
0.325528182016993
0.329108257849266
0.297384845993921
0.304352694967227
0.276058870622454
0.285879966490651
0.303139819352802
0.276149418385934
0.291604310347085
0.293119079421754
0.293890351927654
0.347144667843423
0.337210215315372
0.329418901715744
0.273953949457618
0.26100973658885
0.266228141472718
0.267681174631802
0.267711784526561
0.259333099915315
0.292122072375749
0.275884057664461
0.266818486254832
0.313160045427345
0.279693980754315
0.270970819804503
0.26925432588959
0.267009123845733
0.280492364126238
0.314109075990909
0.325207272212709
0.303547995610534
0.295092501229647
0.313255818982673
0.294477726967591
0.299138665066785
0.297893279724968
0.302999520554433
0.305705907632263
0.325769218133222
0.32286230212278
0.320705374339172
0.333688680788747
0.33855631306486
0.359457270545183
0.38024855032666
0.352013324933306
0.388543681758925
0.389952810912626
0.429094866745097
0.393005031555861
0.387677244344417
0.393691487415516
0.398708039239975
0.403394334412572
0.404512196211939
0.427221095587804
0.452874829858079
0.423719413943362
0.43405571778625
0.431497473099599
0.440278190613576
0.445776746873121
0.482449957775612
0.469138660562942
0.516248937840777
0.513024837118021
0.484151140769341
0.477338693871754
0.465195510306114
0.47642270408232
0.477104477280391
0.467499842755394
0.470881850561263
0.470821614832093
0.505461253832431
0.487081785013914
0.475165756081123
0.486330194935295
0.485925895536665
0.484644774072953
0.492373196413559
0.49441378795962
0.496619691441342
0.504459990646654
0.508911887924017
0.502623382489259
0.58543246478489
0.542357936381286
0.516327133847268
0.523710676476909
0.522738953413226
0.533473162380007
0.535313914442682
0.546788758936681
0.547440776135604
0.543819288868794
0.547208778024507
0.551745337502751
0.556964202308487
0.572135684134503
0.584978910742836
0.558402993243404
0.567900144417401
0.559777155330589
0.58526921631579
0.619932068128601
0.587996557799126
0.592817669185413
0.591523143599865
0.582835379915323
0.589152814971764
0.58344447554916
0.588242587993609
0.591482553841572
0.594462099389402
0.589002328067384
0.594045425442104
0.591188704592147
0.585698407843595
0.58752228484916
0.614189665736246
0.5902219681308
0.581610014792623
0.58025153733594
0.584326110405713
0.586406838851054
0.608329591906732
0.605605428365739
0.597596945564381
0.586862971543966
0.591272885122085
0.605542134240673
0.59873894448086
0.578526130254633
0.58181806449301
0.586589680680878
0.588298194121665
0.589077608706413
0.591662451033758
0.616286732446884
0.602767514328478
0.595012521720792
0.596825627583712
0.602960994020335
0.607450443086709
0.603800837402016
0.61215327597319
0.620389358028134
0.622132072924626
0.620581896829129
0.626592841949913
0.62234776324543
0.634712957678402
0.641914351624843
0.631573550551457
0.624212466810708
0.623335132618154
0.619953328456655
0.609678687473514
0.624564548267337
0.616810947019365
0.602962813391796
0.607619190896626
0.602178982887906
0.602629496540903
0.618851787720767
0.601262547980623
0.602413649041363
0.591733008808305
0.570340299597333
0.57885951729908
0.568307618051306
0.566314634436023
0.568843548055529
0.56923495063061
0.553462026639534
0.557991014668988
0.554494285802463
0.553894954982459
0.551370327778185
0.549997933082996
0.542339883963446
0.548590032907722
0.542698761188951
0.545258676432114
0.538479676461448
0.541514517142457
0.541013006369037
0.541450248089049
0.550177703906935
0.556498177052861
0.553854476442983
0.547006287430481
0.542378853120597
0.543305438410209
0.535273041574729
0.542091409925082
0.529950759842958
0.538659454258063
0.536762261856427
0.53836459633326
0.534561640560195
0.537428227007701
0.528662728764568
0.537579864455765
0.53048787153403
0.533280471999614
0.534302563440033
0.532491889242484
0.529041713062529
0.531776260998005
0.531521565831958
0.538665911761086
0.532588624857032
0.53067664597401
0.532276734588583
0.527877211127242
0.531786113776227
0.528866446090342
0.529366867120125
0.532581776592969
0.525301491979338
0.530587085309639
0.524615998595286
0.526145141434957
0.524629082632473
0.526668015784922
0.523960936658554
0.52045026276602
0.519444894170127
0.515250705090265
0.511356989071921
0.508771508665816
0.502271495940874
0.503675498520306
0.494445814260365
0.497088014106908
0.492108431733822
0.488668624192122
0.483071883973629
0.481342737256549
0.479096008190779
0.472396896622671
0.473309832299479
0.469631146274357
0.471024556378452
0.467032887057908
0.46412102585528
0.465044562515
0.459466700447327
0.460694288223022
0.457673486108787
0.458197937596286
0.458192582994386
0.459256560552346
0.455499201547313
0.460556967230364
0.459321996627071
0.464721944709768
0.463919796376205
0.463282563439382
0.464575842650927
0.46736879359977
0.469501642454057
0.473950391356172
0.472940209395643
0.47398033930514
0.475715243460523
0.47822375954726
0.479392355445001
0.4842023934791
0.483151705733849
0.485806757791781
0.481752640427797
0.484065593838421
0.485611976306708
0.48748871973053
0.486648964685702
0.491401281347794
0.48426460350998
0.485793866490315
0.487239960647706
0.485505842849031
0.484429531528393
0.48457993203354
0.481459323986643
0.481817281944599
0.476519577863448
0.480016397541281
0.48120724567707
0.477137571570108
0.474944254823244
0.47587392019122
0.471945887554772
0.47013248399936
0.467085117216872
0.468502124935533
0.463050259066784
0.464493372046713
0.460088744232397
0.455424172837799
0.456949369078586
0.458044588040385
0.45598144209455
0.453511446911183
0.454944957391588
0.455250106630261
0.449374161656634
0.444725291658953
0.446621482070399
0.448300272809121
0.44591205168979
0.44715669896345
0.445698623697872
0.442303928173927
0.438777828748126
0.439845637038726
0.435958458599535
0.42944241416782
0.431668486090867
0.430076656901266
0.427205185524163
0.427509075585898
0.419056984216559
0.417971154039599
0.415233931225859
0.414664393169249
0.410424586710828
0.403679565137858
0.400932115302315
0.401996042580237
0.399955740918468
0.396389793534026
0.394733209107241
0.394372822373825
0.395727654676091
0.392048229655872
0.391790083842724
0.392926151920276
0.390179403731134
0.390495868993373
0.3882903309503
0.383639868218275
0.380960493691681
0.377735993057551
0.375453430423327
0.373554052103889
0.36823545880257
0.364949808822509
0.356711166451397
0.353867046724354
0.350899618665817
0.343969030916551
0.343644164483035
0.343966078481838
0.341109546258338
0.341912022275081
0.346268264823058
0.349429562425352
0.353703068311785
0.359038264092321
0.367450262967085
0.377056636850347
0.387434835808221
0.398120654584396
0.411315164215264
0.426445358214831
0.441197635438932
0.455750367188412
0.473418697090601
0.487292224782102
0.507401132452354
0.52483020802977
0.536967790203611
0.556050097673001
0.575908358234555
0.59214780131534
0.604708470443983
0.622424279357024
0.639589966830363
0.65637835072093
0.666596156442442
0.68466207864861
0.697538719170303
0.706237804851518
0.713083273336605
0.730105302454044
0.74435309230449
0.756444067373074
0.761352075607768
0.761553226207265
0.774684689285993
0.777158840401618
0.777688454350738
0.779400903683602
0.77520281494652
0.786136779970031
0.789456550336264
0.788280718874701
0.787175383905274
0.78208410964726
0.782013890378463
0.785767180190895
0.784102736566341
0.785535884996169
0.791011949964993
0.787720835124643
0.79320633280117
0.795792626012554
0.802624641580949
0.810285099381087
0.807761618646112
0.813151438822036
0.826895466924225
0.829344422261067
0.837388248705889
0.850040674644856
0.855145526157657
0.863259209432975
0.880356724908648
0.887407642801489
0.904510090083746
0.916437199653218
0.921571369296597
0.945018352598305
0.95314726019127
0.950176431819674
0.973310852891819
0.982551118898
0.988413348997672
0.983666339584481
0.988060632431142
0.990282373460355
0.994961322827355
0.990432593232194
0.986959968058784
0.981255750812442
0.975286973320513
0.970770092204677
0.969579910466524
0.967345153773016
0.969791923162881
0.981121121414672
0.990072177727117
0.992311737228297
1.01083436627369
1.01781132047471
1.03698533816601
1.0528639386756
1.05832508562635
1.06650666743059
1.08993534934874
1.10029948586277
1.11519358535977
1.13320160680627
1.14711441620853
1.17652922412552
1.18757407131919
1.19600489344733
1.20864499353488
1.21226535869041
1.24637107679786
1.27233228794495
1.29467743265299
1.32656261463602
1.33117722522941
1.34429615498521
1.37443559903224
1.41866089498787
1.45382837924545
1.46433216223644
1.49434728577215
1.50011470562294
1.50527306266767
1.50534134885544
1.58189270773371
1.57422323256609
1.58071694049825
1.66080740349831
1.65081888538827
1.62412472243036
1.65491113044715
1.626377050649
1.65716731157934
1.66187228882043
1.66024280958372
1.6768931486967
1.66239163464448
1.64902155256186
1.6521584642338
1.72233527379351
1.66461912613368
1.57706501338823
1.64093867596211
1.65560308173734
1.67419174506792
1.70531246818749
1.67495823469876
1.6598351287896
1.7179064770856
1.74574013716968
1.78529352711647
1.75171884877812
1.74428417173038
1.7980259764858
1.80679199767173
1.79763524125539
1.79756780017141
1.89143443723723
1.86471121452247
1.86079591981034
1.99964362649766
1.91959510946314
1.84346600014202
1.90478982555385
2.02041996921529
1.93008421243089
1.89347324965619
1.91364544006863
2.02589231178429
1.98489655281363
2.02023375152458
2.03449051315646
1.92965879609898
2.15314235712428
2.12961820943169
1.94410921101656
1.93813321492846
1.95993184670995
2.09883459875054
1.96820389002208
1.97444063756074
2.22095332392963
2.07339540900787
1.89022055022289
2.07233159898594
2.16804401529455
2.03837710866715
2.00964921080661
2.07917741350634
2.03165697459078
1.96254094927194
1.85460520694758
1.84201562212159
1.7591501004785
1.70793665354835
1.69847109030916
1.65154216803273
1.57890168595502
1.54804663188473
1.49454575635893
1.43935202773279
1.40797674124172
1.36121241989419
1.35868535699627
1.38847732572285
1.37711857203642
1.33695726450111
1.34299668198338
1.30653433242712
1.30046480553742
1.3324825531594
1.29765401979421
1.29961243057852
1.26336240458682
1.23529899327832
1.23486644390938
1.2198476850687
1.19876876089446
1.16671450023855
1.13752644998159
1.10821320378328
1.06734888246378
1.03908425846927
1.01272048073335
0.983132208817371
0.942463225374959
0.901671212048306
0.870156126177543
0.844344500223601
0.811693010580211
0.774686746817021
0.742308242329593
0.708579891068923
0.676953605488244
0.648904504115024
0.626163223062203
0.608274193464961
0.584240963215327
0.56635672760832
0.552907938830061
0.530567758173172
0.516408565454284
0.509585206465473
0.495143147076699
0.483259499227532
0.479085466374071
0.473220002069262
0.463949150432018
0.462433739351734
0.465246849049608
0.463379559035159
0.453581881824806
0.451905721343846
0.45565077766015
0.459404837894308
0.459190746240883
0.46080812328099
0.46861094357219
0.465415294231432
0.462470627891702
0.471000047192469
0.472468226216175
0.466337670172202
0.461586536781734
0.465526684784606
0.470035691215129
0.462488745142437
0.452592243580677
0.45150786670517
0.450874218218916
0.446684521108795
0.447584321926575
0.446335521005761
0.444195611824031
0.443497977812129
0.437304485902847
0.440536710681729
0.437991128633126
0.437285063229113
0.445014692552688
0.449531052399102
0.449683926896245
0.454848063914263
0.459670576340196
0.45977790511264
0.458195511764823
0.468177988439301
0.473161342611969
0.465811247651014
0.46758645875013
0.480075949302261
0.475563424365918
0.471881663775025
0.472995385244115
0.475921290110408
0.478986279571255
0.477194490688209
0.480889179529569
0.482761835511122
0.482295018181761
0.487465664642736
0.493557238167765
0.48684026078263
0.492179881617643
0.495396034239481
0.499431580149333
0.514071306218328
0.518022266155941
0.523392047328899
0.532445170910741
0.548593315720722
0.564761315382477
0.579966428486069
0.588163997230303
0.598333705806135
0.614654922445611
0.622892013418553
0.646378311321061
0.645800737896716
0.643032078701593
0.635752204506051
0.620071629233875
0.632921928559484
0.615261696987385
0.596387735073121
0.606652547056081
0.598882259590513
0.589290064173487
0.586380741404769
0.584299785120068
0.575044659599142
0.579280111343254
0.5778906723009
0.577565334070373
0.585982836471996
0.577496372689573
0.581644525477199
0.590632941387302
0.580905997461044
0.580170924068752
0.575919436948293
0.579362939689373
0.573438082409993
0.561065808615443
0.56867198855609
0.550848588763998
0.55544059912602
0.563703469590653
0.555024984218212
0.553828125553239
0.544002134753346
0.5448991442217
0.530006799656813
0.529292697090754
0.539057657908742
0.532976340872417
0.537316996981107
0.540388991329826
0.529494380830874
0.525761565698097
0.528389749797205
0.534810897382233
0.519904115244962
0.520891960637552
0.528269463902695
0.529690063534743
0.52441262624702
0.526657061370891
0.52684971691118
0.525328659984232
0.517286288088125
0.509005834882913
0.506660974699565
0.510571231156733
0.509265412694246
0.517172855606196
0.515923332002455
0.508548118054619
0.510660038974807
0.507118611659034
0.516092086597498
0.500278421775184
0.510902587232029
0.509433855037579
0.502878714041179
0.503900913473071
0.498157747896589
0.50156524239948
0.497105716514075
0.494069163094756
0.486499683137743
0.502016324080587
0.529694384408183
0.521132421544579
0.515287480076411
0.523731179664748
0.514599574640066
0.519461896586725
0.522979782142814
0.535742795824782
0.537945764466418
0.530317460415956
0.54742589038268
0.565344104355861
0.546975564952307
0.53992752947215
0.546844528099804
0.550267505263977
0.557411407610044
0.578076527772754
0.544911443599128
0.55254230470962
0.566057251926369
0.580498247057274
0.579313765114553
0.58727414032533
0.60671464330604
0.603946065542405
0.592539403504112
0.601501240839313
0.638999877615743
0.650179613513445
0.658117522713155
0.675900660017813
0.670409155404856
0.727431853293806
0.71435888571852
0.711682417243975
0.758713150112259
0.791054744228535
0.776621683072434
0.767316627587108
0.800444702162221
0.81425784565978
0.800168800806874
0.8338269429598
0.808036804447488
0.833441919713698
0.822902300775888
0.813863272861644
0.839796829697954
0.850043381867633
0.800707743218845
0.825942002173212
0.81899931331027
0.840129514197423
0.798365823620367
0.773002399517434
0.808918940018046
0.843612479401742
0.790054604707678
0.83211250694272
0.824404865917026
0.790681033885579
0.804906276550616
0.827934753755871
0.821003201832536
0.826614847268231
0.754685602598532
0.798167288244682
0.790649312073497
0.826718227955091
0.761579905820839
0.759192993798992
0.788975402321792
0.82994735125849
0.792105003494123
0.844383274997626
0.806509322868859
0.788751230362537
0.740281506262458
0.789081331672613
0.764001745698148
0.79773912206471
0.781770618564438
0.781065249305187
0.826490922033317
0.83033656788933
0.742706175823133
0.775578516993778
0.817594387431963
0.779020255848079
0.750246587958982
0.753658893847482
0.708295366120402
0.784593329013782
0.813275020647745
0.836751527998367
0.795713722811239
0.793338640615349
0.789098082962205
0.782455675249402
0.798244796713516
0.771457349016255
0.818371507485948
0.829490551204591
0.762718700306017
0.898925352798284
0.891753684749936
0.918472151866572
0.815751915499831
0.884219206681878
0.88636008749464
0.88810312027912
0.855441499671545
0.877485295328941
0.899004844082082
0.981020917271495
0.882035726124491
0.89574877527188
0.896292506861519
0.927438590001158
0.941406854280166
0.974755279856632
1.04377232050937
1.23300332787104
1.01397645002148
1.0055924243322
0.864809591727373
0.858026180922136
0.942701633516833
1.25138405720692
1.21244110440411
1.11665162552311
0.898065926679049
1.14820729731114
1.06025711520688
1.32647095386276
0.933335254936768
1.01569740647367
0.978298036315557
1.15831081060551
1.05908176747549
0.964774175112666
1.11726349611682
1.07050230870473
0.945188467639056
1.0659683439699
0.810856324662203
1.08575329254783
1.10020905467154
0.934054491018114
0.834346155017109
1.28136791334193
1.09186321663761
1.06740651942391
0.821828237724456
1.07987870479443
1.35395304134035
1.05791249924786
0.857368500856059
0.820050419425471
1.0008358594681
1.31624322683562
1.09168766314467
1.33202527613704
0.786400920296815
1.23980581337193
0.872830558735665
1.18290233663739
1.14755856154874
1.27970670158268
1.01517878933121
1.25918087616305
1.2379914517534
1.45621982253005
1.03576815127412
1.17720223136462
1.03521771819628
1.61388671804029
5
1.82993993039222
0.985281908944967
5
0.739317961810672
0.980857486349206
0.922592733083281
0.915034792776673
0.84447805864648
1.01358907382454
