3596
4000.36533379555
650.420452594757
1
2
2
0.0981506219089801
0.101527360897462
0.103181077502174
0.107331887748744
0.0996019025249115
0.108857033903694
0.0984709478130775
0.103175243524313
0.101594996568365
0.111713640030769
0.0981397116012844
0.101972018686165
0.0922786022438995
0.0990084220162494
0.107314932394308
0.0931950826785055
0.0931408292860421
0.091424165345584
0.096760790295789
0.0906156277426123
0.0980740484322193
0.1002640939881
0.0939450718198531
0.0976062726157078
0.099851500984084
0.106455784288087
0.100340158112174
0.102647364295905
0.0943739304636071
0.110643873112258
0.095567233809507
0.0999244983770683
0.0954871210174598
0.0989957443846718
0.0941101223044865
0.107661979558838
0.0960772318753605
0.103971989775309
0.0972806437866827
0.112240281877378
0.103305476889685
0.098843088808018
0.106797544701545
0.101330472172502
0.102709872650725
0.105885178703521
0.0977589978793081
0.097385117412577
0.100130910829126
0.101122695254528
0.0979491532527652
0.0940128702732642
0.11970087231533
0.116561233403401
0.0961754450542336
0.116394615799829
0.107245171153305
0.0944881604022403
0.0940635498352903
0.101600759218702
0.124279649778556
0.10971642497608
0.0905842720419063
0.100446811534704
0.0860834300644505
0.104823851547626
0.0880379075305846
0.101325932564743
0.0898988919601201
0.106108400627709
0.0911804768720179
0.128599003691099
0.0995751883691626
0.10910217386237
0.0956242184957705
0.0969504796436584
0.0899877091190991
0.0934155935199176
0.0863834526393298
0.112536029419601
0.101273499803088
0.0994014712965545
0.093746508126934
0.0906803370415276
0.105175915326347
0.121770848694772
0.0856915306478063
0.10387759108215
0.116013913104808
0.114555680924879
0.0932249208954305
0.0921755335010243
0.0847301213262164
0.0969893664559296
0.0887924899323157
0.101771181643612
0.0848537016747425
0.105331660981984
0.082507149554046
0.109471240131829
0.11055428074513
0.105149276340455
0.142445818048134
0.0879648300432602
0.16780262508894
0.107748600234248
0.0937686780064809
0.14780938751969
0.100998182110177
0.0993885152589404
0.0809657884386095
0.102470825891952
0.0888199707468347
0.108235433345559
0.0814713403969252
0.139844983362351
0.118717526926572
0.0986154587801676
0.0917809175825179
0.106331735160485
0.0731426417815045
0.141251733863936
0.121707009860011
0.0975312837386896
0.114583667372466
0.0867648160756664
0.0938090887312724
0.153380031959929
0.124041009759402
0.0918377041865812
0.0884292338314515
0.0857707683042486
0.0841134568503869
0.0911565017572759
0.142327741300425
0.0905975784597469
0.0936274505608167
0.0938758210600259
0.127613061084681
0.161863872684152
0.101302055375757
0.092453393798423
0.079625783137433
0.106616038024499
0.138526986284999
0.106151855084998
0.0848728807501343
0.11085649080133
0.0999110121476647
0.0837002635471656
0.0871644845180798
0.0824671212237166
0.117554827466768
0.107723674353739
0.0586883995528819
0.180895543715927
0.155252836821911
0.129963228320352
0.162681724915724
0.0891704611795991
0.113200883382464
0.0845012000155575
0.0904394436833954
0.0800474353940019
0.0997944234644948
0.0827787269455868
0.103421130733696
0.120080264301396
0.0893903950390677
0.103112200503631
0.132576566018518
0.11694219766265
0.0922985061611477
0.175789195479173
0.100121986080384
0.092682490985999
0.135212439795882
0.10427789887707
0.0802924069564251
0.106604948917609
0.123563179525642
0.0788743885442523
0.096377998597553
0.0816642618535196
0.0955719891482086
0.115267483105466
0.0892442613829248
0.09491827804637
0.101255479772821
0.0870922514124145
0.117012748380375
0.152202519600463
0.128523676251139
0.0922380993073453
0.103688779898905
0.057801143474932
0.151890902325414
0.12426135337385
0.0921931375533568
0.0932159215452738
0.0844973856058656
0.0830825292367702
0.0828743291703086
0.0850335358223458
0.0847432271403645
0.0652991420423738
0.140136786401273
0.0877690008891218
0.0948200477807542
0.0912410268755918
0.0997713791762612
0.0843568943578155
0.159025277414771
0.126469571961589
0.0946442318867366
0.0969289461886843
0.0803941554293333
0.11659895860008
0.111974938947167
0.091892445973827
0.0922361573979117
0.0824622292351573
0.0899839826995813
0.0777404057682888
0.0830501857292267
0.0874389004143095
0.0850940981443007
0.0829616139770452
0.0883877189150189
0.092797703719746
0.101446083839684
0.0895942084169049
0.0888727504275559
0.0910219519510945
0.0767774922285941
0.0999562115796041
0.122733210787917
0.0909061811449259
0.095175306519894
0.0827278031769832
0.0914483260629834
0.0830105076247015
0.0914380061846095
0.0896633433498306
0.0886696632959084
0.07447057718095
0.137480240384543
0.0856364314349569
0.0955879809505477
0.0763078069774526
0.125346509106331
0.0996438933456092
0.0977964686183627
0.09189937105739
0.0925226260461287
0.0777626029494896
0.0941679297905107
0.131619948120253
0.0995058364248642
0.0850821385226559
0.113587219443877
0.0972706820636794
0.090761396387761
0.105740100394634
0.0835211076285992
0.191751210051184
0.099433931820863
0.102838763423922
0.185200407341375
0.104783377503857
0.107252215036517
0.101302191717588
0.0844284090127951
0.238137177114459
0.136005473855434
0.0878495395423487
0.107540704992085
0.124301134134474
0.0895017392853611
0.105226554924646
0.103438131223981
0.113930326741428
0.14311197631993
0.162013692712179
0.183823689232539
0.0783374259253739
0.144593460000454
0.122798537919276
0.098415987103945
0.0909053405797622
0.0984761876067428
0.100035734972373
0.123417949341045
0.128687892966324
0.120518617015811
0.10254959329974
0.0912551698739771
0.141619438859
0.10199193254235
0.100806022750009
0.10846385036989
0.117902359924835
0.0891100758689759
0.105197935845441
0.0946087235630775
0.114946141198982
0.0925907542975935
0.106992471854734
0.169380946185174
0.118786328857613
0.107071209309445
0.147562103197037
0.103032102593476
0.104256443557095
0.0946199307793519
0.106898002483598
0.094422382885033
0.0995579470789676
0.0978396682891717
0.153798439756822
0.104677495601179
0.104049294106386
0.103522516307833
0.0975477564093324
0.0994400336411973
0.107481917827601
0.105182121080987
0.105256269060447
0.109639246447421
0.104678455790925
0.139718043619342
0.14848140924188
0.0961916836180345
0.160539733848869
0.138362903154618
0.10266198359558
0.109598616956115
0.102870884387988
0.11638600705472
0.109291500468804
0.115896679040053
0.113997289525239
0.117362772262677
0.132390606381871
0.140326471727179
0.123034391120533
0.141893783666762
0.203922914770869
0.207985935088269
0.132009627997346
0.132441969568208
0.116627728044449
0.165553445510432
0.170854481568152
0.155647465366844
0.165448245263049
0.120355639124828
0.145105007527346
0.122696853856709
0.141210335971767
0.127857701645938
0.146879088415987
0.135882388047288
0.145063062477095
0.133881865195009
0.152489415360239
0.136828647166389
0.153676666541069
0.192052676856066
0.159562168230278
0.147303551847894
0.158450951941533
0.1398875128233
0.202380076698099
0.209557573104372
0.217885281130367
0.212630006789766
0.199877609843096
0.222796839273344
0.164298912182014
0.169807497167578
0.164312917933071
0.177862933398218
0.176761998323375
0.175160756421227
0.171439793814676
0.179785596857765
0.183202597600598
0.187234228610072
0.186368827158898
0.191076521520258
0.18246076370405
0.220879465072903
0.201111056201323
0.202255338761895
0.192313731682997
0.243768968667789
0.282593583390334
0.270174151817866
0.2298145369725
0.225182987039582
0.224216878875723
0.209600666946615
0.227436510266052
0.218705194694104
0.236655341725057
0.244672771908099
0.284362515230079
0.252906778936124
0.261954728156303
0.264838884518235
0.234987841842459
0.276205740524988
0.264222613732138
0.266767854688075
0.290656867252809
0.272679124171441
0.251024391215298
0.287465794263094
0.289920012000486
0.279704664747801
0.304063897981098
0.263123666116234
0.274168507323193
0.268674792652727
0.287008944595901
0.274393286577849
0.303823239052152
0.310338769931413
0.301306988783603
0.296188294051919
0.303942507485497
0.31497835379588
0.335286025696039
0.305082598399944
0.317744831208442
0.33011995837029
0.307547786201309
0.325416455491782
0.328906952005748
0.381453468935513
0.371209930853028
0.367306196234332
0.386990000724234
0.344746996186885
0.352941602626552
0.347857296369195
0.35246162354029
0.351839834230447
0.374811702173328
0.382372487371415
0.375963614317801
0.375380484962192
0.37599773404245
0.377363541033558
0.408116741981264
0.396640220918475
0.394623137640212
0.400595872056486
0.41279020116745
0.403013149855533
0.409171995290836
0.452940562614697
0.469670588664825
0.457216035739812
0.481649982011416
0.435202122947426
0.450786204341292
0.445330078859558
0.455835696068738
0.455903143973531
0.474093478979346
0.461267543781057
0.4825195489569
0.462862465858404
0.474307286956227
0.481328661969022
0.478038597376488
0.494068000563089
0.502363841183222
0.516217539385622
0.505400723184242
0.506223382800272
0.518654995220331
0.511335836247856
0.520662493325881
0.522269724391909
0.543698541457986
0.555742310264573
0.562369052569724
0.544078258152452
0.548123586483791
0.554999602398129
0.556537638079189
0.562764095619908
0.559969854410612
0.563027474960341
0.582637600096885
0.579967864891594
0.612118750560486
0.600268811273485
0.586154920031146
0.583996838674698
0.582898428570865
0.599171287507744
0.609843706799709
0.636805301972046
0.651475432681418
0.636087076246531
0.659713033309661
0.664069758147188
0.660516792411469
0.639291313312106
0.687099199161909
0.672428596468631
0.677396949626104
0.680717873376575
0.685140696849438
0.654918591364947
0.676916333051502
0.673446053024492
0.708129661678049
0.731976144874852
0.772843257709131
0.704026989838448
0.722212454407535
0.714456775058571
0.734297320593581
0.751479213340657
0.729141600252089
0.718190922807409
0.779081553746239
0.763734988927916
0.747596730120842
0.771356477744485
0.776449998535593
0.770926263512808
0.788514079835656
0.77517644910392
0.806545301029941
0.806490109288194
0.807618365522638
0.785855850625684
0.830572758230918
0.82696088204909
0.828236158461617
0.829934868331326
0.89737597523877
0.90767078391268
0.862393289243672
0.852708363278327
0.907014233226391
0.893531371770964
0.888953641714579
0.914717548576711
0.910125627524924
0.865692762202208
0.881422322249754
0.935116875532193
0.945795397082295
0.911888077893288
0.911893110247333
0.90565802628956
0.946729713843269
0.910068030260072
0.933810649199824
0.913401781321364
0.899604714265303
0.928535554807884
0.937755532402934
0.961732690008224
0.97797204562083
0.975795877578648
0.991544550496639
1.00107084553922
1.0232877042344
0.989089059139165
1.02442743891487
0.993328182379926
1.00700930769451
1.01844802810026
1.05728684045703
1.03470859942162
1.05813668686155
1.00330915380694
0.981243242042396
1.0548857257564
1.10248955439214
1.03375104374316
1.09144257939657
1.15283993075672
1.1072528122881
1.05444903265396
1.09278527577086
1.09059861030704
1.08104749311692
1.09465824673814
1.13269589697323
1.0435027055845
1.05980181075417
1.08797379129474
1.10876139580431
1.08674934909221
1.1175733460763
1.14358621358313
1.09184576560921
1.15033986512385
1.17848768716028
1.17349044425259
1.1448125171857
1.1566662231536
1.21166985851588
1.17360240693194
1.17637083208749
1.17646149335309
1.18576910704839
1.17620564482374
1.23884972338851
1.21505903854979
1.18377028621429
1.17108906654483
1.25515583541941
1.22606697826414
1.23520165211776
1.32020207700913
1.23005226006413
1.22979809889495
1.18375895554356
1.14951301475624
1.25528363626057
1.29727994260335
1.25111605438651
1.22158043280712
1.22249615080947
1.25013186936476
1.26789732565081
1.28574429278366
1.26915943605642
1.26625644362466
1.19902912199771
1.23884916416093
1.34456432658005
1.28334770553788
1.37317113299771
1.3046500869615
1.37744325938455
1.36216152785834
1.21720273209337
1.31739448879223
1.37364498540914
1.3099915260255
1.37637224920281
1.32750513082511
1.32827744634716
1.43717128557019
1.44890588715086
1.37330995425221
1.34444436283426
1.40817969439663
1.35510256083751
1.42764767615807
1.33161670742759
1.29287294448431
1.36951727420294
1.37974680764248
1.34244506069088
1.37870055700426
1.3985731807183
1.3432693585268
1.37745054054826
1.39283833545497
1.39385604007237
1.39865092882692
1.36036877066057
1.3053847171881
1.33514998878335
1.3758992924916
1.4667264110435
1.51321165813188
1.37917187226738
1.43496606808181
1.49278353669342
1.5053781631797
1.49877222842451
1.49469270673265
1.41183181291364
1.35359217763543
1.50037691818319
1.52034185688025
1.48480991076467
1.43349399414697
1.3876503563131
1.38276922670932
1.40007089540595
1.41843887491565
1.37426296071814
1.42963471494445
1.41418130879381
1.48560610316683
1.43406729688519
1.43020004385602
1.40884293105789
1.58022879230999
1.49339792694581
1.48989096416333
1.54676160529979
1.45435621698014
1.48604341503156
1.47380073403741
1.50458915885452
1.39914456587505
1.41010329475494
1.50293520594221
1.45669124580257
1.46756911995912
1.4020159011413
1.49509668841945
1.5286367227143
1.53602358294143
1.48585492581289
1.45036136431702
1.4720752669679
1.42941753302675
1.41151585993026
1.68589870364193
1.60794697631091
1.48286816638313
1.52214565815286
1.45580374082639
1.36108761376682
1.47661489964358
1.57853769091612
1.57284327070211
1.43371201772052
1.58064133968312
1.73421929051217
1.62770961503597
1.48465660132567
1.54261255671496
1.55844342342232
1.46546800299126
1.40929455246558
1.46026546361343
1.5018260608689
1.45332819024785
1.41483270541315
1.55696031341218
1.43669111145199
1.44174061559374
1.43976755134468
1.46789950769215
1.49855420787004
1.49285425988788
1.35896998762355
1.45200283945288
1.57378559312817
1.46323544029996
1.52851479161632
1.59063591170182
1.41306327521789
1.43830982038748
1.4356829338903
1.47557842984496
1.53444549333945
1.51564290931457
1.50029828673868
1.46165821868412
1.421210882482
1.46657715542865
1.50804069866462
1.55358814611263
1.53577439320693
1.50611688236869
1.43597148189512
1.46216296759496
1.44037829600445
1.50499836796615
1.42595134306873
1.4856300878816
1.50084435634257
1.49612238327622
1.44922469946639
1.47052774595677
1.49383805656274
1.57736689257468
1.55225366911297
1.41150727502743
1.41608820177684
1.46049930481407
1.41929069391005
1.48545142622936
1.5198701433918
1.52353287364973
1.48772946678927
1.50112297248887
1.43327073960995
1.42476545221629
1.41602824232847
1.53510839378835
1.48735137680618
1.48975295281598
1.46730701830375
1.38541181810761
1.43478800100521
1.44779036034341
1.46985973224547
1.47784396685286
1.421063758443
1.41334145687164
1.37188896991
1.47498579505337
1.44527087924336
1.42387682055917
1.44370836872922
1.47200928686461
1.41728138957109
1.3964493017343
1.41866809613126
1.41319915310261
1.33890989952682
1.35442481021161
1.29105140450522
1.34412251956665
1.37281303090388
1.51754722026071
1.4328914431013
1.44813007519567
1.40884770491462
1.36877936389619
1.35451518852573
1.36735420794569
1.35372785745699
1.52276611705051
1.39595567168022
1.35293080964477
1.35545286807291
1.40067492144401
1.36697076394241
1.34982916987893
1.36799459194406
1.39275953040346
1.41454385797576
1.44841483618259
1.36858210254949
1.42093229753261
1.35675552485362
1.37730388959137
1.32643264713576
1.33854442016747
1.30327825767115
1.33331514160536
1.32136730417555
1.30522424184504
1.36125791476798
1.31241005249485
1.22191067720506
1.29824532925076
1.30074108492748
1.30000715287958
1.23930930905488
1.34206311985597
1.28218112259854
1.27420813331465
1.29858713420461
1.261659553182
1.24410906625108
1.28414698370661
1.18506889914808
1.21592215380338
1.22225672112225
1.25892503611256
1.22692863431013
1.17792231943041
1.14764740608515
1.2093512190994
1.16643530353839
1.20861142129808
1.21298721390882
1.21192605111488
1.1968857014254
1.1902083020444
1.17481027150684
1.18846231741039
1.17264583602647
1.21232798851442
1.16387423332421
1.18910703939398
1.1836471187472
1.15380320949611
1.14730887006288
1.17770764109793
1.1357422415849
1.15649046426598
1.0906812090828
1.09269312481196
1.08389295565194
1.14604204178078
1.11445223572357
1.113420874917
1.08127213778916
1.07800052502582
1.08988785817975
1.15229867380596
1.06768676601849
1.08140638534198
1.05492823597028
1.0698758053504
1.0361144287713
1.06656986886175
1.04677477642975
1.031369537025
1.02916604580145
1.08193127433776
1.04197690828728
1.05439919757367
0.986236156238749
1.03331060591805
1.00983770504493
1.00721849568452
1.01473423083042
1.01874465150283
1.01398422586643
0.980418158841041
0.970732504444786
1.00386062576063
0.967119512730726
0.988743953122475
0.973535518881385
0.952540562122014
0.951422371303845
0.976448212704321
0.936536157283797
0.974565823694433
0.921525483166027
0.918899941190627
0.914503220227533
0.934112690585946
0.895931655138151
0.91598795974494
0.896765628686198
0.901532950906995
0.890888817921814
0.892995828425488
0.893556871529153
0.890156020999862
0.875661068683083
0.894729504440801
0.852367240813794
0.871931949944123
0.858920064581974
0.876433609423776
0.873233278235089
0.865208544200424
0.847391295847882
0.843948905482104
0.838713762415158
0.870202621658046
0.82051059163558
0.82886381800568
0.815491520168953
0.837662956487244
0.825628047853538
0.805144144655043
0.797056878102313
0.809087189203436
0.807490329272817
0.798026345758022
0.785995697208656
0.802294966544731
0.796641162302523
0.78005454765474
0.767121667585066
0.787313103041812
0.766668033216491
0.774001041626922
0.761091531503141
0.764579302894756
0.744642732597094
0.746019878304703
0.737233684200894
0.750629393680809
0.738666363162919
0.705004391983559
0.730126576189513
0.743689719777197
0.727620567259568
0.726048667857657
0.718135337167463
0.716333699345955
0.703546470736158
0.714916649716371
0.698720997578146
0.703496490917081
0.698894510629524
0.704097256109505
0.67769265660212
0.695505466353763
0.679916639432006
0.680183675178895
0.656883881298386
0.67963177636003
0.683637600968736
0.679631968629629
0.66628073281821
0.667644835980968
0.660724898741055
0.671078443715146
0.658898076480627
0.648873914166584
0.646805620360835
0.655977570009991
0.630449718524902
0.640776290050406
0.627790540490843
0.616794785614025
0.621415273053692
0.626140044398741
0.609029571590386
0.617249474732619
0.611594985244886
0.604405297895174
0.597937735136007
0.614065605069654
0.601657204049432
0.600524946650597
0.595825586108373
0.593813697299302
0.592318210337956
0.596064067847248
0.581580366671136
0.58341018934475
0.568389467332301
0.572839228542372
0.575147849856522
0.581850941702769
0.572482179210981
0.574145707895956
0.561635485640706
0.567333756205476
0.549823163697286
0.560410049338744
0.553316404764711
0.550804933568327
0.54701100576197
0.551290623639056
0.538337857976345
0.541343357840171
0.533247724396096
0.539550276931324
0.524511261936771
0.534730191981961
0.531219071756926
0.528198506111708
0.51434853571934
0.534591121309788
0.527647026325208
0.527448268692586
0.525978285996336
0.520566654124726
0.509399610168593
0.523951280644239
0.507446106494833
0.514353291671021
0.514546648570606
0.507335910789336
0.499369729782684
0.508943898332943
0.492035685193321
0.502265405954923
0.495522827613005
0.506198899419678
0.489001788245896
0.501517988925478
0.489072875066482
0.48929673145808
0.488488723394173
0.503254371501073
0.495441979809678
0.501442872038832
0.47956831712751
0.492822729818307
0.493156838600223
0.497076370534142
0.498041903585357
0.506267916434099
0.49283157220143
0.500579917778177
0.492983118517712
0.503936153923205
0.502345712360334
0.511886626501159
0.503279743478356
0.505778604733803
0.491442604110765
0.510868964399157
0.50882772096888
0.515674976135821
0.508615552224392
0.512082723316667
0.51572017691703
0.523489192999606
0.518149911900492
0.521623495302318
0.515287253841176
0.529471286224508
0.524233537132818
0.528666566174699
0.52267873243722
0.528218484036258
0.528185948039946
0.530087689904744
0.532620232948815
0.540513338834124
0.531400205843071
0.544432877714641
0.549398438860348
0.553661508289236
0.554374713304439
0.559931629964236
0.543296804406084
0.563037520475977
0.558009249431673
0.566617506173276
0.561027631684091
0.567455789127243
0.575914623166133
0.587158690983252
0.57898150907337
0.595523401396536
0.588488909363615
0.590888265660896
0.593363404815654
0.619240184307533
0.607150187892894
0.611266033328322
0.61269421039805
0.63055122582188
0.622320002647462
0.638504794981224
0.628565630429839
0.631606768385397
0.627461435730815
0.645640547591794
0.640996441631006
0.663200298792599
0.655910821080798
0.654986362342958
0.64220085824875
0.67374355547763
0.647102779082631
0.677529423055415
0.657370305735971
0.662569808036079
0.658682383703153
0.659636300561869
0.642612495577504
0.664876016746457
0.653827167545713
0.665460339096359
0.653717539119362
0.668541803746089
0.658621191049155
0.648380680012058
0.653940930459822
0.665514038536202
0.647227331719449
0.643863830141745
0.646359236604337
0.660271158970975
0.652039604230272
0.645177236990212
0.640779613561589
0.650264849729942
0.649938081344114
0.656633124548673
0.64423156697854
0.644161650964107
0.649344679752252
0.655389338923792
0.642996337538144
0.642437623044873
0.646913651087946
0.649685131067101
0.654418075673974
0.65826845683119
0.653249955410969
0.6629147734009
0.648018256045425
0.66275119140285
0.642512432657961
0.655563961183853
0.652657658258785
0.655585046162173
0.647818125148314
0.663202782344421
0.65703884289418
0.652778018978671
0.644519626054264
0.651496525752993
0.646943242012058
0.656835511268407
0.652908945632097
0.654385635177442
0.644942821567284
0.647738723411092
0.622896017707613
0.641670268411956
0.633951528511802
0.640474814148163
0.623846979016564
0.634409260971842
0.625142056601227
0.633491274100449
0.621044411220092
0.617980288378387
0.610484511323895
0.611655567155689
0.604130587407686
0.604226831494566
0.593613906619654
0.602190893816377
0.588031681114007
0.592056492939967
0.576429109249667
0.581003615465174
0.574297482081895
0.578343242449361
0.563934552722633
0.552430159126139
0.556245963596835
0.554147183921101
0.54651966574807
0.555374848539621
0.535378615632954
0.541394805822809
0.5340904689317
0.531475810504941
0.51892311321396
0.538476873320282
0.519417212333847
0.527944909237204
0.504352966584317
0.515427186589369
0.505176655191861
0.513385870183463
0.501582721969202
0.496462116635155
0.488427444498401
0.491997127110563
0.493080320085074
0.487705089013003
0.486091972529904
0.498485822009736
0.481321747094374
0.479520722167115
0.471890620771199
0.472890337367613
0.471814872202245
0.471892245808144
0.466105682214291
0.465215437519558
0.463323788774502
0.465280205198264
0.459335675769283
0.462286225940488
0.452936121561778
0.450741580780785
0.445065682353543
0.451561994717718
0.440395046153975
0.44713490055835
0.440704103725272
0.447043698710346
0.439990658262334
0.441670860640646
0.438714840385631
0.432625446319707
0.437805468285844
0.43686213044391
0.428986493985438
0.427809556309143
0.42162460525532
0.428283970071793
0.416459097266809
0.416745547682962
0.413804826219083
0.421908493704577
0.412451568540665
0.409917946913992
0.406080206642912
0.414666542609441
0.404258831215429
0.40725815886547
0.405662430370508
0.409895731941789
0.400332447300328
0.405035220724992
0.40064196897831
0.404091200261248
0.393884289100184
0.404296119384912
0.392244915744957
0.396840642720837
0.387489343147324
0.39502534316905
0.390456971431134
0.397895544496821
0.387127185405946
0.393116009251067
0.388543211954544
0.38935453928853
0.383936562041392
0.387553859929603
0.384260638519966
0.384991362333456
0.382399333936218
0.382334447557945
0.376401765373688
0.383886471814338
0.374002239885081
0.382203926618494
0.36957791874012
0.380250771074185
0.376096228525412
0.372956527091943
0.373061008757417
0.369648768638914
0.369627519109622
0.367528316403915
0.362529367458488
0.36737639689148
0.367782389249882
0.369019721438617
0.364838944916891
0.368354226836757
0.362604148785118
0.370688565577346
0.357573492284079
0.366449684371869
0.359540492737632
0.357115049262624
0.35289902624661
0.356597228464129
0.352191392359255
0.361075393119986
0.354534135371132
0.357145814945189
0.351374520635062
0.356804446391949
0.352539480613521
0.355261846733245
0.350568303224464
0.345941465251936
0.353086515592585
0.356183600379057
0.349001794023287
0.352011376820721
0.346569170783423
0.347741620948411
0.348642137174426
0.355994929328701
0.345887414847004
0.345531134760783
0.351836007138609
0.347157445057026
0.344042337615058
0.350870175735699
0.337110186762973
0.347059262601517
0.349076663279284
0.349196681220102
0.343208815066665
0.340269546591614
0.342768653089148
0.34473563546835
0.346440235053241
0.346946104847244
0.336906911864107
0.342599838516916
0.336562182997583
0.34093756170136
0.336123896839568
0.337673786364353
0.336518145325066
0.337608881345277
0.337013671044971
0.338146022912434
0.332604263869787
0.337900005955287
0.333365389485249
0.332296033727136
0.32938738216368
0.334011476699479
0.333565387095458
0.331136072079911
0.332968633625868
0.328350044148849
0.330222730198896
0.323826406848322
0.319508314803595
0.328480362661796
0.321327364712865
0.322375050177564
0.321668359067221
0.322654084017556
0.319445466733799
0.324731147228365
0.310801478883481
0.31791124268574
0.316298635881935
0.316599948036084
0.31536482607793
0.318530305478657
0.314441698662473
0.311840368399188
0.310570523916718
0.311518763696103
0.315535842501208
0.31432270947234
0.310774195345659
0.313820530497675
0.308398230079278
0.309965447397898
0.30892568471508
0.307359002305094
0.307600701810103
0.308781398229688
0.305543300113935
0.304987763661383
0.301232926304374
0.308400242233659
0.301109941865202
0.301411705037512
0.299443489893834
0.2973331984351
0.297630552346679
0.296930418886106
0.294237700090129
0.295133996769754
0.293167577802325
0.300128065487462
0.289632780841656
0.287535864211661
0.290063460678485
0.2891034981656
0.289481693340289
0.291280847754339
0.287813644454412
0.285278518117786
0.28407226513704
0.28699085073033
0.281830103858918
0.285533115803744
0.279893547357566
0.280374361890684
0.278735327118531
0.282782990590889
0.274560220356667
0.278248502345278
0.274623763168324
0.273186840040874
0.270177610323077
0.274768077821669
0.272726036346975
0.272962474316271
0.268457403806593
0.269313435931739
0.266701070557637
0.269170802090445
0.264734958052518
0.267663235448389
0.260034505059378
0.261614530192213
0.253771378089219
0.264954021492705
0.262388467163701
0.260872227214632
0.254433155429103
0.259784368038852
0.256338134825039
0.259453683899171
0.256509263187914
0.252331538959382
0.254842080485075
0.258639968015139
0.252396408222052
0.250600740436772
0.254554105191405
0.248491614366079
0.247807561881632
0.251623554576063
0.248816086828716
0.250718107166939
0.247282516087949
0.247903826809443
0.243804394282266
0.24998564987261
0.244209569360463
0.244630539280019
0.243325732173212
0.245682004958711
0.241406813108261
0.242003895521028
0.240227996026659
0.239727301932056
0.23810569361857
0.242411769685974
0.239599288342555
0.239531221011975
0.233723676257388
0.236453776399706
0.237610697612509
0.235863616404839
0.231801932470351
0.233825169034108
0.235217309942532
0.236583566631683
0.230772848445925
0.229778372674958
0.226672283275506
0.226927408842445
0.229416270531418
0.230500840308747
0.229533777230027
0.225518383025385
0.222007077367872
0.224194311458454
0.224392560978199
0.225932908399729
0.22641852959006
0.229724551235343
0.22427288475653
0.228187181357327
0.222500871349619
0.226029153262286
0.222133227013414
0.222516863085687
0.220623460536632
0.223836552200101
0.220966338620145
0.223286671734987
0.218140215958964
0.217845250814999
0.218787922799073
0.217723499276108
0.219086393426519
0.220074617257583
0.215202585731183
0.219101396859804
0.216931003784841
0.213364525016004
0.21570155785971
0.21975118690127
0.213120194572115
0.218424978580203
0.214121085936333
0.215807291948918
0.214206335779603
0.216097978148706
0.214230154365544
0.211758352957457
0.211012435199706
0.213479879678786
0.208730200704913
0.213074171412595
0.211268715912926
0.214058674419403
0.209731101504521
0.212981907901038
0.208668482627986
0.211628698750611
0.210055323874967
0.213190485493493
0.206155110993418
0.207476664339395
0.204910405938834
0.209399792337284
0.20493419021333
0.205208375834856
0.205306421437508
0.205737945373161
0.200359792764055
0.20449621258463
0.199734265211192
0.201395754577402
0.201398897677882
0.203333842980055
0.201283589425661
0.20074140051912
0.197856479957265
0.201271839485484
0.199010907522034
0.198715517059229
0.200542628298471
0.199936611537236
0.199241450005164
0.197910328811569
0.195856981413738
0.199201500060313
0.198120204740903
0.196947039272988
0.198631258201349
0.196870979893945
0.194715505130462
0.196622429097658
0.192447115850239
0.194839269281555
0.194963119528035
0.19534503282491
0.192953070612863
0.195469692546029
0.191283319890618
0.191061579271973
0.191899869587943
0.190409114506008
0.19197724278845
0.191885876434924
0.190677341588559
0.186358502708909
0.188157973893265
0.190176843253165
0.187291129457824
0.188390210752018
0.187438130959611
0.188493407755756
0.183300427300352
0.189722939838688
0.187630877608647
0.185226546704173
0.182703793591506
0.186887695121887
0.185340243003766
0.187135471407542
0.184824076763863
0.181353263781574
0.1805662855253
0.181284909221023
0.181994401845186
0.17831825459839
0.177599481408016
0.176012802934909
0.177421666919058
0.17669140691906
0.175927576047513
0.175184027749154
0.174606266082432
0.176345201999366
0.173947487227897
0.174501288884779
0.170838122670801
0.171289846854
0.170245372174234
0.171679469127944
0.171378331180111
0.169116482129068
0.167567130003565
0.168012679891197
0.166875340507072
0.168546963561917
0.168292796314816
0.169137050347011
0.165163233703258
0.164296144693221
0.164702332875126
0.166335293526697
0.164242737603024
0.165164239521667
0.160851190853148
0.16182070513947
0.159347893115684
0.162331606456311
0.161444455766022
0.158318354904281
0.159946035111079
0.158874516411241
0.159440493996496
0.160120814626717
0.156126160787839
0.155456891546901
0.158298195307857
0.158586897321558
0.15523720661214
0.155226464578519
0.156847113622034
0.154848280867756
0.153230785295856
0.153603309019824
0.154394661631194
0.152901465229259
0.150786573014989
0.151072738009176
0.150827894241998
0.15305110818956
0.149526904252522
0.150722045775649
0.150628910336678
0.150448819229403
0.148019877978206
0.146554385637327
0.148147915372379
0.145145048941397
0.144799388765355
0.144979519253486
0.145344925544929
0.143141866846014
0.143450379094062
0.144887787843792
0.144496550326636
0.142194727147754
0.142160732105253
0.140200804787888
0.143899453894102
0.142283653921539
0.139460646926288
0.14488211657033
0.142139341156083
0.13934361303652
0.13619101927824
0.136041236608963
0.138676774136454
0.138902482268839
0.138198045760346
0.136490207093038
0.138107261521778
0.138729119192865
0.138595346713705
0.136105360103186
0.135332364296059
0.137054374121113
0.137764019349345
0.135372800825408
0.137040909365367
0.138777733890064
0.135296867254468
0.134468087725795
0.135548835477322
0.134759344106525
0.139138474591925
0.136147215565702
0.135006302324569
0.134005737994571
0.136186360626691
0.134352872190696
0.136110772686716
0.135851909764203
0.132553045624134
0.131166255692632
0.128061356241274
0.123881086472461
0.122620656211657
0.122127101247665
0.131373343593929
0.12841250531304
0.128033479713473
0.119149112409999
0.120045759128274
0.123420716523003
0.128028090604305
0.116286433768025
0.125161968221192
0.116289963124528
0.119924897959342
0.114868923491836
0.1141946997808
0.12024056167627
0.115676437586353
0.118329675159779
0.121869650593183
0.120525465876638
0.13121266926921
0.125718623815987
0.127743817645586
0.119147353628667
0.131360574127368
0.120722014799585
0.130302135801115
0.115888133437936
0.126197823705206
0.115648130969916
0.124298196823751
0.11297804439038
0.127006122060195
0.114962726253345
0.128072068234979
0.109379847544062
0.121516064251077
0.100878691749009
0.11825228859547
0.107147360031603
0.126359160451702
0.112791524231058
0.131663692791382
0.108617328684423
0.124147002010356
0.109447142639959
0.131695605616311
0.115028310409804
0.12366004732768
0.112204002015422
0.128366275118373
0.123044979006591
0.120427920330716
0.120784142472703
0.11914078037299
0.133910577166935
0.110197486532911
0.129392393251815
0.113953467187563
0.135547377281539
0.107935678461541
0.137952095324495
0.112028611376295
0.130578380625773
0.116421093824439
0.127934133281906
0.118705043639812
0.123112971149622
0.121658094718955
0.116921623291875
0.121204371427843
0.118704257713024
0.118814063638382
0.122093861328469
0.116641197249201
0.121156665834028
0.115949398101737
0.121145268283831
0.11148424270654
0.118687133392458
0.116366044339164
0.117690652809907
0.117566971468403
0.116424429073763
0.115527267019817
0.120901711194247
0.115879357099406
0.119256738257439
0.115185380823919
0.115956047174119
0.115582450301985
0.119721339819558
0.114290158143962
0.116365015817163
0.115084971448453
0.115676015726427
0.115505140463796
0.118742436131362
0.113921159512248
0.118731511294883
0.114709878329046
0.11586379693522
0.116303099713517
0.119216441216953
0.114932431678139
0.118145620387208
0.116251931620566
0.116894287723774
0.112956421556035
0.115800574511476
0.116575242730918
0.117997593288482
0.113760683427149
0.117783342373767
0.116525354539732
0.117181374596057
0.116361431671711
0.117350689977833
0.117563168465086
0.11681849100438
0.115122847469502
0.118420474273654
0.116604870135393
0.11663708603445
0.116197124458241
0.120215120817704
0.11634166327586
0.119197618671426
0.115536254805143
0.117426563664998
0.117372961537083
0.116860974294722
0.116060934891531
0.117308515554629
0.115010164039031
0.117484892507169
0.115425280265589
0.117652545433436
0.11612000457896
0.116903060448973
0.116541781200449
0.116813801613186
0.116082318731851
0.115901008027569
0.114077352526453
0.116572193534848
0.116489160654209
0.116489629778057
0.116434935399553
0.115832859269796
0.11374581020246
0.116683461349871
0.116394274549787
0.120047576371212
0.115705581194258
0.116332660007324
0.11848506139605
0.118069389373656
0.117244834774577
0.11638904982052
0.1185652846848
0.118888083667675
0.117811839572787
0.119134763715186
0.120153551706903
0.120666332597842
0.118110767036465
0.116593732444351
0.117410261621679
0.117752455105531
0.118561844069236
0.119872812903939
0.118654999370015
0.119930253685858
0.118978723338931
0.120448028831789
0.118810487645229
0.118925291332053
0.121408247256341
0.121546050755603
0.119547985267297
0.121496668779619
0.122165151514407
0.120547562814552
0.120154013258326
0.121554986562605
0.121085381417892
0.120597681417106
0.120044060697432
0.120233363763647
0.121429246965836
0.122383826598079
0.122110500079749
0.123192331935326
0.121111262734961
0.119932595159448
0.119824563833799
0.120363195944321
0.121992234275792
0.122857319772968
0.122409022907738
0.122035659364019
0.12199839323694
0.121824631283354
0.118719661489996
0.120731234887554
0.122207776266145
0.120522849244574
0.121747697769263
0.124435236119859
0.125025045991628
0.124693070890911
0.122229153699261
0.121396985953811
0.12382981417612
0.123300742980937
0.122362107563513
0.124137229255404
0.122533443098811
0.123218165799313
0.125639300082585
0.124380715473564
0.125014660410182
0.125334600357469
0.124033657012759
0.126404338591063
0.125982425032857
0.124371914268377
0.124194045381119
0.1268283241841
0.126796442657721
0.126103447489317
0.126923976647313
0.126403991786861
0.124494529152067
0.126365432857216
0.124493359707483
0.125326176306626
0.12688556044349
0.126006738821738
0.125186595008686
0.125663940024318
0.126536188097249
0.123519834700549
0.122040246430431
0.124884794207838
0.123949597985602
0.124162634542604
0.125114287288067
0.12439001428504
0.123187299800634
0.122674822562081
0.121692407623664
0.121616870471214
0.122844151885918
0.124902411815822
0.123894527309837
0.120776277162537
0.12119853971448
0.119854845512181
0.121666507728316
0.121102983314783
0.120400467124344
0.121098565490266
0.118454105401199
0.118979767263654
0.11961559499614
0.120057754247723
0.119247222565405
0.1180642262637
0.120159539405678
0.12018499125367
0.119790619958337
0.120924720537108
0.119459782280017
0.119937782618003
0.120767276609521
0.118952967070716
0.119792373578446
0.121655833668859
0.119649178204467
0.11684165483905
0.117883771176776
0.118515910044752
0.118961295948218
0.11903520534076
0.118556421330009
0.116479155243973
0.11807217066176
0.118556562839561
0.117260730517921
0.116968965377208
0.118353352445978
0.116536456728954
0.116579784286494
0.116504416668211
0.118327261975098
0.116465991298607
0.115699141207319
0.118742306586799
0.121406617808922
0.117225494518975
0.115528220807109
0.116521009077166
0.115419274425776
0.113710429828574
0.115022542344646
0.114550696895101
0.115813248620954
0.114342914452116
0.116077717874233
0.115749218334381
0.113636875504127
0.113933879374584
0.11527056670536
0.116602634620182
0.118201158586929
0.114141310965083
0.114531310786524
0.115531659348711
0.115519940629154
0.113596002925726
0.113767614216014
0.113635880943457
0.113456559005905
0.113727934463696
0.11709303147312
0.118304133812287
0.11713752805898
0.113661835399385
0.113489224631752
0.113195382456111
0.112860481757479
0.112717814998165
0.113567985339447
0.110939924157754
0.111046218758519
0.113830407542572
0.114656800458296
0.112268534495679
0.111704249813783
0.112105059039528
0.111778846090093
0.111447494414728
0.112354671096792
0.112203370789489
0.113171052515799
0.112161280260542
0.111136075461281
0.111850299253641
0.112189394838231
0.110366161009927
0.111766624769646
0.111249849999585
0.109838638237317
0.107597332127786
0.109593873075949
0.109616317850537
0.107165542042867
0.107731524127765
0.109964081751389
0.108417309143377
0.106768094475633
0.107219079483813
0.106828674651857
0.105889843369122
0.107049561271355
0.105378744578397
0.10735539726376
0.105106732080076
0.106963715099135
0.104814278650656
0.105579034592484
0.104021382786885
0.102881100772224
0.101847835867214
0.103252832775576
0.104762288525386
0.107290774925337
0.108979862464755
0.105836173814352
0.101026538033257
0.101750446669637
0.0984661874296328
0.0996204932674929
0.0997427956477927
0.102068445345808
0.100267347790539
0.100556051137562
0.0996318788661224
0.0986989471640507
0.0971696745873838
0.096880881901636
0.0978838231425422
0.0983919043196055
0.0953473205984713
0.0958896649674889
0.0960348265739534
0.0963541381426141
0.0943519379243585
0.0953644430259174
0.0956286009956367
0.0942200254899232
0.0957872373995668
0.0968767927031595
0.107310177637637
0.108164535800966
0.0971969070460026
0.0943288987560288
0.0988834075098532
0.098256771411289
0.0950138909647049
0.0921142086890682
0.0921842414961221
0.0928553104536907
0.092707971641031
0.0922028914434363
0.0916595371697601
0.0941678829275651
0.090437753876136
0.0920941815592679
0.092870639829477
0.0926919788091138
0.0934475042955537
0.0937264283954385
0.0920552576849798
0.0920087081087502
0.0924847782387823
0.0906623418877058
0.0902773743939571
0.0917526334903277
0.0960613274790164
0.100847814097364
0.0958709147483736
0.0928767927896779
0.0904586899712958
0.0922526672719789
0.0901128801996692
0.0903413279770518
0.0902582311843619
0.0888297983118053
0.0870388972399473
0.0879903844256612
0.0858326900708744
0.0892211491107006
0.0892610835470665
0.0882235207519138
0.0861438109460696
0.0867765892466087
0.0870501216391148
0.0890880062815663
0.0855061156043421
0.085644853585373
0.0861312476863337
0.0878849401727583
0.0874966097891989
0.0898513410937477
0.080617402432536
0.0964619547075954
0.101958914871763
0.0948084728172569
0.0858559661236955
0.0892019883988078
0.083279887297876
0.085736190284814
0.086579973111462
0.0851715590553949
0.0819232854417975
0.0861935453654347
0.0837361432061523
0.0857015741634028
0.0858295524883709
0.0867337775533697
0.0812099028278439
0.0858225038751298
0.083852707556467
0.0839347522767582
0.0844832400749658
0.0844997111056833
0.0899483749211255
0.103247926917275
0.0881144417899333
0.0875045628491913
0.0811574585787763
0.0917888995254852
0.107795977488871
0.0933792115379926
0.0827423502022376
0.0849292649169431
0.0842793435141835
0.0826423033289944
0.0853159945087034
0.0804134104911179
0.0879455769106302
0.087361245130923
0.0875327977425377
0.0869053153524921
0.0842851567039609
0.0830166902168515
0.0850203471983254
0.0824512759063649
0.0818214533012747
0.0824009109817083
0.0812510471723962
0.0820157426446885
0.0812842371675727
0.0807367062337917
0.0816659499361393
0.079919386542597
0.088108590234296
0.0889075761116592
0.0842665346512843
0.0807227142309734
0.0837289783290964
0.0783522894387838
0.0961344971969373
0.0952594188820404
0.0882529541553231
0.0802078535501796
0.0828770047682894
0.0825005524299463
0.0845579697518796
0.0817674718660434
0.0814356627310245
0.0821627730436091
0.079923082208167
0.0833352322158882
0.0827826907590273
0.0826049039833779
0.080270775302117
0.0819972582759029
0.0816290825327823
0.0835368016974755
0.0787078583526118
0.0828940728566378
0.0806018182801308
0.0865715503638604
0.102885406232637
0.105712184078921
0.102756917439188
0.0905358457438233
0.0897933819791368
0.0812544037628763
0.0839546557757428
0.080478440446302
0.082821268307075
0.0813790040111405
0.0842034225877046
0.0807611147642788
0.0848974115165037
0.0819298182006599
0.0837067954239813
0.0802365383506259
0.0824360445144632
0.077829055005522
0.083754379234675
0.078556551045545
0.0813371479049648
0.0778669485060267
0.0841885850085827
0.0899613409166986
0.0940310908702417
0.08138875382139
0.0864001941113838
0.123306693713136
0.102074571612189
0.097582777639604
0.0789886208647554
0.0846962894077999
0.0773568377125915
0.0824607653864849
0.0830975376451704
0.0901002539529431
0.082946752031806
0.0852583850304448
0.0822821584816559
0.0901085837810383
0.0826029533759774
0.0821757788506853
0.105607720053885
0.121600907829025
0.0984459699583499
0.0892454865910057
0.0783671753016
0.110576392161167
0.107635947121917
0.094010423789358
0.0879383721652442
0.0879660081990888
0.0855602459920872
0.0855285117023497
0.0814463295141438
0.0867396935838559
0.0956885369944499
0.0902767937543839
0.0886626971893415
0.0851970911669978
0.0866691702212939
0.0894504977006923
0.0887764644979804
0.100342251163639
0.0965197743762368
0.0902088466346054
0.0935339216377689
0.0918990464742241
0.0892634230828257
0.0886613399758423
0.0897973615183343
0.0892210653152787
0.104068062237551
0.100029264709896
0.0997677691622236
0.109658225756937
0.0979265302126955
0.0919761354908235
0.0943356492047238
0.104914986817084
0.103888167019135
0.08602550911344
0.125931732302324
0.107902498207607
0.134329054433127
0.102928963122384
0.10263545196016
0.0913857667891224
0.0992079960808376
0.0836063764553346
0.101865789616735
0.11267284928766
0.0988084207843353
0.0958294708295268
0.0893600871329543
0.1142503625394
0.105780610512942
0.106570686564338
0.0966164106669597
0.0966277660272607
0.0988112248547595
0.122774359143065
0.0925512707840073
0.114093757128617
0.126949055762861
0.139936301574255
0.133475745399736
0.0976022647571781
0.113599468634771
0.128809495123495
0.11009738916693
0.106657594989674
0.0998265711573476
0.106551358506487
0.0926419270716964
0.126691120074439
0.136779573060002
0.113306368050307
0.111500489098617
0.103378453441044
0.113508890500493
0.134579480614615
0.117195989952706
0.109695524001443
0.111615816798649
0.106830162256969
0.117912138336787
0.173341279974873
0.12188837775692
0.152115479470865
0.132392139892776
0.15060182768589
0.125014190480348
0.136963400045366
0.118248967107399
0.151969556343222
0.141093698801756
0.131547831934844
0.111521117493666
0.167637953012257
0.136219945992683
0.140953512609517
0.129718083054387
0.130207317029575
0.134160753701669
0.197257634112946
0.190722542481981
0.176671921267335
0.135283163362796
0.153342889409765
0.166129237660292
0.152147033638535
0.141184658002911
0.142023341489802
0.143874895745763
0.143837656200907
0.150238070385137
0.159642728630875
0.149910043340663
0.161839760797092
0.141814076146941
0.170268838770727
0.182330743818736
0.262065057338743
0.18565768971755
0.19443002754518
0.199179259231694
0.194045746228004
0.178544820530147
0.170233571293325
0.172073368379453
0.18378313282382
0.18119295322057
0.175241221321044
0.178742181660825
0.218729627802791
0.19274873732541
0.235212360951203
0.194932164704768
0.21046689589094
0.183858532222162
0.261812422753163
0.342601207293764
0.246717584189098
0.231090328275619
0.216980328084604
0.279686633593529
0.276732017255599
0.249286377499951
0.232697259300606
0.238987513128075
0.237081776079562
0.252485854516243
0.262982188655376
0.276311130417229
0.289540838922845
0.273834362684376
0.285902181177355
0.332437672159146
0.390639696401315
0.391930163349505
0.323990644535391
0.32302674814149
0.345340965117016
0.345357207304196
0.332137374716666
0.352904888694835
0.336887783547594
0.411007508836378
0.395246068617384
0.394917671307013
0.374369756006575
0.412240650410893
0.409920704473232
0.405957836097659
0.478763958923377
0.450839494214456
0.447412541413728
0.419893293747042
0.457027599839188
0.431923863034475
0.471358347656823
0.489833435140301
0.492364715529136
0.478180528045805
0.486348701958399
0.486388058779755
0.491607567075777
0.506930968661927
0.504932950908799
0.517382188760316
0.563303025392654
0.594412193422102
0.768571804078441
0.551006703533688
0.556135298892897
0.51188734095732
0.549897552706698
0.571104665281339
0.577357303051769
0.611036153624444
0.570584861523794
0.548995664210154
0.540027037244417
0.544220104362138
0.542212651028999
0.543944515309283
0.543693782438778
0.53590751186645
0.580763255934015
0.539971916986815
0.662858915517659
0.579459539165159
0.574796884282795
0.530265827199245
0.554672182339955
0.521973194298378
0.552553714158387
0.520555810833379
0.571060407004853
0.545197127693311
0.545773655111792
0.531086595261927
0.527644866394251
0.573642171851513
0.552658382601788
0.515701986879167
0.51871576961027
0.509941672456625
0.528558142811744
0.495023827350225
0.557261778458536
0.541547562388769
0.528478593305704
0.488457593408856
0.498503695100428
0.478299379542565
0.490114715885957
0.478474224846817
0.498624716191993
0.472881394019911
0.485207458495044
0.481167594807729
0.486720569262603
0.469540245929832
0.468835044424736
0.469769464764785
0.460717082678277
0.469482451719519
0.45932512416865
0.457273078736623
0.4665274165042
0.462887236274242
0.465282142777519
0.457920597067064
0.464484380470843
0.456730124214327
0.460617212244739
0.452615779410079
0.452453587445514
0.452148860106221
0.4544716739227
0.451525492110173
0.451951048101208
0.4471103270863
0.458549825013384
0.44772605777914
0.444111379864993
0.438613912420574
0.446694807492378
0.444510065504742
0.434447037194961
0.43702492927556
0.441063448360354
0.439469239564882
0.527645325032917
0.450560049825018
0.451258296351108
0.412309605227669
0.436886554214525
0.410241594367392
0.427970624285399
0.471739628895543
0.437954104668795
0.413890141730723
0.405080182848551
0.397921839754005
0.433109921788554
0.394977901601065
0.403640014561993
0.384677420704103
0.388213858182078
0.473062039502373
0.449730034351182
0.533867881187671
0.452929325449801
0.417535805413632
0.359263613419905
0.426240531449805
0.397338534398633
0.379318471421537
0.364629682922052
0.359831402181631
0.419407470876492
0.366817005644442
0.363135464839792
0.348437700135982
0.358185554234059
0.395911725144067
0.393246355769171
0.368898461362373
0.408114141917286
0.39353864739196
0.386947104518221
0.424821742078804
0.44897649785914
0.36714228651894
0.334661415605896
0.339283141010512
0.325457472785982
0.361128039382787
0.392773858132002
0.336009006130684
0.35538802314058
0.305262331603836
0.324581263561629
0.313089462204079
0.361240729151714
0.312349155110383
0.357082475278844
0.343604009385888
0.309776556813463
0.331335728596089
0.331462567184395
0.391702832147976
0.367134033903204
0.320331103772039
0.293471307471716
0.373291051889254
0.340140966066436
0.32434647531235
0.320422761926379
0.281808560189082
0.316008354818826
0.315048891966099
0.286381882276608
0.329537677021832
0.316262716902223
0.338985830763424
0.376732292504994
0.390723497455062
0.355216042142906
0.293171721463266
0.28517214569221
0.280298630805782
0.291096544820404
0.28331319619711
0.280027250712397
0.342459165002244
0.28587980103516
0.315415778595619
0.336971456673404
0.308180063441272
0.294614289780842
0.294702006255124
0.292068732406535
0.311451735752433
0.35073700299882
0.372422269513228
0.325320606521395
0.350858953063873
0.341484841976002
0.33374365807115
0.327289166693647
0.336009795118663
0.331557328262789
0.345874366954991
0.365569042070455
0.358198612183428
0.360862657607235
0.372079859881225
0.366712454143148
0.439898893350894
0.414873680534194
0.410597812861447
0.44045558431035
0.451585736059403
0.51472256165516
0.439594098469156
0.445333920355363
0.437219798471267
0.452455076684496
0.457363395466621
0.454443893101972
0.500004468152047
0.5052396502216
0.483279650163563
0.484386922651772
0.492361260675753
0.503970504907183
0.504654289017024
0.558907351886635
0.530422989976729
0.658293699359994
0.566351897384045
0.570737589217951
0.528009119853865
0.528904109270541
0.540141473931698
0.551037865876149
0.532910620169812
0.53393769901006
0.553766358341555
0.581880773969604
0.550830489488488
0.55497979486527
0.545506871988827
0.569386182381009
0.546898544903399
0.575477207138947
0.560976570293831
0.569894320181897
0.579152875134421
0.582192834002485
0.59115100642782
0.681361228290034
0.612193629672836
0.613498132416292
0.595428477211398
0.619248134441914
0.599663857119603
0.622858137131069
0.643379775726577
0.639941587548264
0.632229006862017
0.637990981040553
0.632518352048786
0.638313361852574
0.664577681474414
0.691512106620516
0.644422643220142
0.673954738458461
0.632987354016032
0.751295776742871
0.697330404090118
0.710531124777991
0.682571958328216
0.694191322989715
0.678549729429973
0.682574908444246
0.67403904087407
0.696713629146007
0.677582098886236
0.691069595199384
0.692796919967966
0.686200019494926
0.691006114831475
0.672899157933093
0.682522543960053
0.734077245878586
0.68861566500774
0.690613580681761
0.68093238651799
0.690940444911266
0.677763171110113
0.719977044792307
0.699672777872828
0.693029913026229
0.687818766903349
0.699990085877971
0.708552332833439
0.699738858428025
0.677267663472437
0.699006491904134
0.680517673385599
0.686563047685709
0.674261309078196
0.723338392262366
0.724033772078336
0.709736191916026
0.691346699859273
0.700582592888055
0.690083001526417
0.710915267762007
0.703330506048538
0.717026840757949
0.716003351866423
0.728658012225723
0.728173319392569
0.725725805682503
0.725185077737305
0.74910936668523
0.756609869811258
0.761705535648088
0.724434129325468
0.747923363008221
0.721706200661417
0.739697114572636
0.735495223409452
0.73001538433748
0.713324437315306
0.718217020542316
0.697465196593388
0.727700088244792
0.746799962527007
0.709434846493311
0.718427660451758
0.69108301889906
0.682873334125827
0.688354592273724
0.669740262377085
0.673499008334706
0.668588157638241
0.668588125683717
0.654819715833057
0.657487521937963
0.657764789637682
0.656533287767141
0.652070744047656
0.652942052433081
0.639487042639754
0.657576407701275
0.645376781604081
0.65009217711832
0.635803742965984
0.64510586779447
0.643473788815347
0.63735008271731
0.661764325639429
0.662384989773739
0.674954289499006
0.649566005146019
0.650453513595109
0.646737028506869
0.644287602155764
0.635534336081401
0.632823769151015
0.642679610191565
0.633727540150359
0.643072772707378
0.626330813834185
0.634717587579285
0.625515529681194
0.640996501228318
0.620610571153614
0.640847304541515
0.627936055118581
0.628517287515614
0.625596108393589
0.636146966586445
0.630581738412501
0.633815909489153
0.624064251253446
0.635653564621066
0.632887816136869
0.630569573558337
0.631251616583687
0.62924666985944
0.635720568851159
0.633534346501094
0.628673278021092
0.625112248840628
0.629110673616678
0.63018046341775
0.622169109220924
0.622332629112606
0.619949471764167
0.618864032657912
0.618009022063837
0.616871400376201
0.613547445643257
0.610154462504986
0.60171664253744
0.599094664956776
0.590208444971025
0.592860086731056
0.583610533161518
0.578722062045721
0.57312788351237
0.572010643571624
0.565729459447349
0.56422276699344
0.555195784635255
0.559271535193844
0.556593187215798
0.556727413894424
0.549374658709728
0.549677119852283
0.54138421155324
0.549520298961702
0.542625173693148
0.542960029647421
0.538241129752263
0.543736943535704
0.537719133071504
0.541742861216332
0.539956534350203
0.547051636720461
0.544107258853658
0.549104284110773
0.544070270660083
0.551431575420194
0.547819372835386
0.551468739208585
0.557037965129532
0.556690100703278
0.557682529656703
0.562518339914641
0.564042379280844
0.563399435124866
0.561513982533028
0.572604550044203
0.57035317648917
0.573149558853056
0.573482988412102
0.578863743183115
0.576427249290013
0.574084432817889
0.572337006622126
0.579710553117759
0.576031681644128
0.577267424973824
0.569885969018155
0.570857648514034
0.568867507869406
0.571772082244765
0.565535802827817
0.567774510531604
0.567916032940711
0.562578096988789
0.559525877228305
0.564794406014621
0.556775938620166
0.553863771214211
0.554753985895135
0.555853343738041
0.549411255322849
0.551694970873282
0.54769655508018
0.544341953110574
0.543533470437566
0.546274754527508
0.5396246205415
0.541164025798666
0.536684690541094
0.537275326273417
0.534286563040139
0.535193608236246
0.528693162159972
0.530982873050541
0.526933468216447
0.536081877974648
0.526991672327973
0.524634996110377
0.520577962270172
0.521451368878528
0.518688764128985
0.514106797824703
0.511995078282429
0.514909489546347
0.507714721395037
0.507264564019593
0.498738056019775
0.500606805109697
0.49475346929865
0.493775456960247
0.48889765767857
0.481713150009219
0.477455498205767
0.481797253245945
0.474326959138381
0.472050351577962
0.471666834033295
0.4724392047454
0.46880005490779
0.468969022027732
0.467471441855448
0.465200786913064
0.464912803976817
0.46326680998784
0.461480873168898
0.459976384036465
0.456778760482394
0.450644189822056
0.449394355782492
0.44665543349514
0.434754524375752
0.4342844449267
0.428345096448126
0.421089333795042
0.415697774893258
0.412767426976648
0.406083028823935
0.406762550125635
0.404817402398828
0.403071179824378
0.405556110470624
0.410632286587647
0.411803728502127
0.422071632853102
0.429508372884808
0.441723130151983
0.451877745017974
0.465737675353533
0.483299657707668
0.497936420192561
0.516481802883284
0.537300093748543
0.551016089697675
0.574926097705156
0.595149961358226
0.604904455441848
0.62843977590208
0.651079307916059
0.671527554319823
0.691901179321371
0.707586906678901
0.726364722645389
0.745711174419796
0.76887550744589
0.783892470017285
0.801093209692775
0.812012447499405
0.843716578248435
0.846461065486503
0.86458789050335
0.87375656904694
0.885301707932372
0.896615224900076
0.906058836911103
0.9155073795049
0.924478650478386
0.926230417041932
0.933312534894129
0.930240429272645
0.943088661582193
0.931799726145896
0.937439761130293
0.931087915887696
0.934116055017591
0.932605430109602
0.951943979904155
0.936747540379463
0.938320933243057
0.941385897862045
0.946039892215491
0.940154369812799
0.949251322810999
0.949855634684455
0.959470193035482
0.966478427707594
0.959684274292433
0.980176386752615
0.971476585773645
0.994631549073973
0.98820596914043
1.00071186148909
1.00524600910109
1.02291006725471
1.0418633626173
1.06575416247693
1.04934695296701
1.08396747187321
1.11147344953407
1.11035102640949
1.11712853831496
1.11428628130885
1.13350451793097
1.14566869173662
1.15385291022455
1.15516745700007
1.16750690692612
1.15700627726097
1.15287697168535
1.16307561707886
1.16784812109526
1.16152209920957
1.14816689033838
1.16231570053033
1.13761052399176
1.13787386371031
1.14815828226648
1.1406969492439
1.14936390199508
1.17170175679184
1.20264788378738
1.20774148350238
1.22778529103165
1.23986144334578
1.22668849667887
1.26868214961811
1.28619436775562
1.2996601970339
1.3045069292464
1.32370512190125
1.36485905245633
1.39259387827888
1.35868560824886
1.38879437544412
1.40411849497962
1.49513439096906
1.45091619814424
1.49966295413249
1.54546196317857
1.6184529869285
1.58887720414908
1.63516969555896
1.59663087411875
1.68219212030619
1.71991182125874
1.75744153067419
1.72171257550794
1.7705531947846
1.74650169448851
1.80508156331433
1.80796422446942
1.86557679724829
1.86890559229704
1.94382374277686
2.01299505094929
1.98619952647981
1.96568141997956
1.84302149405542
1.92156469474776
1.97478306791006
1.95393545253619
1.9315915241148
1.94748557209971
2.01208482884896
1.97143017821671
1.92654720562145
1.99766366208587
1.8140221521846
1.94615819363958
1.93908695656449
1.95442234712874
2.03812453803797
2.02188880106833
2.10594981566942
2.10912996097636
2.11547777899267
2.07795210312775
1.964956052369
1.92905674212314
2.00477437483682
2.09881675908032
2.26670627617441
2.11441738140175
2.23655951480743
2.3702077341382
2.35171668308893
2.14942308467929
2.50269101856638
2.18099740351253
2.16761979459682
2.33181483958065
2.57217665522692
2.45690264281474
2.74575959433102
2.43198409853064
5
2.39431730444087
5
2.15443572617282
2.51270133132553
2.4758338602971
2.36877546352622
2.38914498357489
2.45155384325558
2.47208541856733
2.37771196216434
2.21913925054984
3.71637858865211
2.27542362556245
2.5022332606604
2.24256152960933
2.87681777730462
2.41548367975755
2.63018181951843
2.92043959756423
2.58197679417251
2.1938241942778
2.41197501902192
2.32222309488228
2.13279606087843
2.08535439707723
2.10431124215154
2.15940605393913
2.3470868128981
2.06563989574734
2.01310134325949
2.0361584285038
1.98294016813658
1.91927642628624
1.80044948848598
1.81660764879423
2.01724119152248
1.80343531376833
1.7414516035913
1.84943600875732
1.80421707421935
1.72069237227325
1.76978404486545
1.72147060390037
1.83678715661873
1.61866371669607
1.65420923397356
1.66816297144557
1.61564580052648
1.56527303192398
1.55705571284236
1.45939769371004
1.46651057191471
1.40470882910974
1.43906966758563
1.40037008378586
1.30756136653134
1.25010741404729
1.22163877856583
1.15657682059829
1.12237961068873
1.05677751943018
1.01243955930605
0.960398288951956
0.931878940535468
0.891320497701103
0.856486766241451
0.839334169339009
0.795556490218621
0.768182489655245
0.747761941166704
0.721206989353882
0.705634589542675
0.679865979547831
0.664212241107995
0.653936150119087
0.64820935419681
0.637469088176449
0.627379140438592
0.617605760634401
0.614584572069612
0.60966831926633
0.60722314357343
0.601652556684259
0.597727422441945
0.601088376982242
0.598949935125461
0.603846846862285
0.611445321188838
0.606021534898045
0.623842355792865
0.623925262716568
0.61431536048548
0.607298725274365
0.60942681397741
0.603949718862914
0.606159688977447
0.595927474371455
0.598081310077372
0.586044253023157
0.590696529188408
0.586595133418148
0.578157005708211
0.571619481407428
0.576228418256673
0.576438754934123
0.578029907575789
0.566575391810975
0.564317826133759
0.578514261122498
0.584047842989821
0.581279946057616
0.578667378115587
0.584430677258064
0.585029426955643
0.584740574220507
0.597743002210717
0.596086371117006
0.601953533787736
0.611549567835337
0.600330220385495
0.595533799631725
0.611894286872405
0.607252158902642
0.600256930406455
0.603438420307208
0.604000767818221
0.610103078866263
0.612311336751292
0.605433177648134
0.606211336614829
0.614607311236944
0.60940571479049
0.629174447223548
0.633779439955206
0.62197142239959
0.636950030215558
0.636772640006499
0.656770230981889
0.668393459954997
0.683830688686505
0.699658262636313
0.715568651526618
0.737542901482609
0.759793771466204
0.761447585313372
0.778307689328781
0.788020829757591
0.812561163600987
0.792110268917629
0.79285189750787
0.786924635269615
0.777617841934026
0.765888450035065
0.783702537822192
0.740775742277746
0.736162313227227
0.73231450518467
0.723620711298361
0.692996892036873
0.706994668292629
0.704043808560414
0.710034074573673
0.72520439986268
0.715637938041301
0.708413257455853
0.720385319351801
0.711091866743214
0.707534753090429
0.715903488031313
0.709634307986239
0.696530116735331
0.691151818028789
0.667778428695285
0.676738802758058
0.676550390086075
0.669730588726119
0.671130651431808
0.665897771319224
0.654033307349689
0.663227851448035
0.653252892050557
0.636590944770407
0.639062025983833
0.638616172545386
0.631186913535124
0.631381018656542
0.62536736093637
0.629972061641394
0.626150388693842
0.621323399299587
0.620391835466479
0.616458449054376
0.604383726999041
0.600871019175106
0.607242224128362
0.619408409336572
0.606235629288321
0.599714731437437
0.583405789858879
0.593081908186828
0.58030972915537
0.578763578791605
0.598554309890078
0.58641923850399
0.568845318793812
0.565090419428275
0.569576607803808
0.587101166986878
0.571347577882134
0.562853059199508
0.544203182541844
0.566090404651431
0.54628433568999
0.564180748568119
0.571330042807133
0.542951186789582
0.544265469888097
0.567640410458165
0.562952911133676
0.562646848662292
0.545188818006777
0.547160157635895
0.53964892824124
0.554990326885947
0.570775731749299
0.55408283521034
0.556430128679421
0.572275437043633
0.554958389892321
0.574421550779346
0.577022732670597
0.566712146323514
0.553342535223939
0.58089714214225
0.58082974513874
0.576397132281419
0.591127702481306
0.608274065951181
0.597705286732104
0.596116320030155
0.589982712800431
0.629331990144564
0.62604169008406
0.623356506236117
0.662188474091682
0.667734061321133
0.634289273674228
0.649215251339034
0.659201208174782
0.685022374954073
0.695695101171433
0.70413286730256
0.719626785156078
0.758171902962683
0.771019747352767
0.793322269186773
0.796420953473515
0.834748873011731
0.805576366753181
0.839074958905693
0.880404160618697
0.887029336759004
0.88229348903862
0.94419633069277
0.955770874694368
0.93925583615196
0.934365346292574
0.968666677780424
0.88222129901932
0.902312724504911
0.929908761462899
0.943721707859061
0.895277284072612
0.933312698073143
0.924079416289568
0.911296014272234
0.883798309024871
0.9046426000611
0.945196888513799
0.935389287234692
0.909042603938145
0.956872375074108
0.960619418194738
0.939011868847074
0.943499822502986
0.960658949985101
0.870370272787049
0.882276561276311
0.925349689260225
0.912184593276609
0.873781078711695
0.860193499806838
0.856654079943264
0.902311322093285
0.868681413464411
0.872731966962006
0.878364173002125
0.842716466769181
0.799150440240695
0.819580627585166
0.828550139960072
0.905614533012854
0.874986171614072
0.819173980627891
0.806697879712117
0.853931245910805
0.849934692595378
0.890871561166984
0.849012762360404
0.837021627157869
0.862685396381587
0.890193912371079
0.843317831715967
0.830009160106576
0.846293155142612
0.849437958428237
0.888641637762279
0.846587549617342
0.873305340390813
0.925126178238228
0.836298896305858
0.897110566564835
0.857462028505816
0.905460241736563
0.905579299344125
0.856903110218733
0.785837067489775
0.895232444236937
0.951378709470271
0.953552343591502
0.920245977700742
0.946964010167719
0.906103250380031
0.980768243309315
0.887807966203763
0.927161165359352
1.03357654667479
0.994853550032861
0.994675314569888
1.00685542656195
0.933442076775769
1.03837153921953
1.1460296105359
1.16869000641704
1.14344999438716
1.10116571439447
1.07019719497039
1.22959728426534
1.18961812076507
1.21906165616866
1.32234051828254
1.36295363501091
1.38313649538688
1.29207797770814
1.30068622439994
1.25445334606676
1.03218077422721
1.28947751566855
1.18953310351502
1.07928314272085
1.05753924130389
0.890878622770582
0.8997490010316
0.982380614788464
1.33141343284357
1.17178873556623
1.21127202282803
1.45735638911196
1.29751645706966
1.24691216476826
0.872332065965928
1.23002459044559
1.10422185652151
0.93512319400608
1.13984227964521
1.28306579792075
1.1577302355579
1.10920399574788
1.08414154075817
1.28205531315844
1.29918135470074
0.979870813096608
1.0060203241566
1.28619938387785
1.29947333323135
1.33311666141611
1.24471112044491
0.933345638096887
1.01310690842316
1.46276989555422
1.1153486165258
1.03144486154934
1.27320185371173
1.03323183596191
1.07937135055017
1.98785740606136
0.844021782973569
0.848829485980248
0.972014175214663
1.11899723677064
1.19176691009637
5
5
0.981631047563332
5
1.72522177235841
5
5
1.4813293947327
