3596
4000.36533379555
650.420452594757
1
2
2
0.108277392467445
0.113402908283753
0.103389436431259
0.105135005358526
0.101613933989109
0.113610256168181
0.103654861983992
0.100372669095645
0.105337013048195
0.111679863720751
0.100318924870633
0.105002303095005
0.0923433620505464
0.10474969182569
0.108332875045372
0.105087681752632
0.104178603645939
0.110926911451742
0.102893741335214
0.100127476129082
0.101552280890044
0.103551038056666
0.100914099391525
0.112560900497375
0.109507371363836
0.106500380605224
0.10406081659698
0.105719706991581
0.096487372476816
0.110613599958475
0.106505495715192
0.107799606445183
0.100746152979536
0.110929341122101
0.104289270922361
0.105900568550142
0.102471424123591
0.110557343519602
0.0973310978539331
0.110316766464388
0.103956414425372
0.103458682809999
0.102543473557787
0.113457784956558
0.104216255767486
0.110924852922005
0.106991560149497
0.102745069303209
0.104737740548402
0.105766967393302
0.107552281133368
0.106860788700899
0.12460486203798
0.125528812674268
0.108168814044226
0.128839460437014
0.105614110968762
0.106268888993581
0.0983808774174013
0.104442963623057
0.132770948763629
0.118645831777415
0.101673747091423
0.105119676051013
0.0951211867532852
0.106416651856035
0.0905815882495182
0.108269726378973
0.0888471803282433
0.117349292768461
0.0985194420237379
0.130796421830054
0.117573547292847
0.114643816146727
0.100726926446084
0.105598043712237
0.0950111321887053
0.0982970741688136
0.0938039166178609
0.11828834325886
0.116214054111485
0.109932909520689
0.102857547330691
0.0942115870649911
0.107474394607751
0.122776703372068
0.0895488158921269
0.121001261936236
0.120527276374889
0.123663582604672
0.0946938242796603
0.107917007272979
0.095823989836752
0.104455533940744
0.0956714605034035
0.102120510028673
0.0857542770736077
0.11107780751233
0.086433325346385
0.123490260140685
0.108378716483325
0.122431831892697
0.144164573934536
0.102686644870859
0.173487472543397
0.114444684380706
0.107674284059419
0.155599024442937
0.100524018838438
0.111360924958282
0.0870196774193365
0.107336451866939
0.0911510554898718
0.118663678943327
0.0849840358866365
0.147526911827374
0.117970855019303
0.108535852118317
0.0957789058103036
0.105155730023738
0.0807115726330316
0.160175471395887
0.130306591219186
0.110982556660881
0.116355172346455
0.101936511985367
0.105285126468033
0.157990579823996
0.118565923761279
0.105723416469163
0.0928129360911765
0.0931999622572565
0.0880531558852188
0.106283219418741
0.143232759675155
0.102095876028461
0.102529614857466
0.104523131332744
0.136585033230261
0.164027298381419
0.10391732585635
0.0981588879816659
0.0843837618045406
0.119563758637611
0.136838137179728
0.119648418211144
0.0987963857910693
0.116276499472162
0.10461590977221
0.0965465110510841
0.0947445806540739
0.0972536888043943
0.116110169540798
0.119637808226333
0.0642921782772974
0.194513557886513
0.164486384723047
0.131217720694033
0.16266251626012
0.0919967380618351
0.120124850743929
0.0889160732585893
0.0970869290372967
0.0862396510767812
0.106964255354419
0.0879791070981699
0.111803602093211
0.129315246847012
0.0961854572248253
0.115454214788704
0.138497906417689
0.117432893009447
0.0968537512518537
0.189717826788783
0.0969607382343378
0.100847746519219
0.125761729934754
0.1061311816502
0.0867449449354615
0.11451417118984
0.136160654445888
0.0914647776531383
0.0996751170476547
0.0862141278720883
0.110870766051635
0.117040989822179
0.091958621390495
0.100344683750821
0.102886593571667
0.0928906824918925
0.134565297024865
0.167317747215519
0.122641702385794
0.105615437509169
0.105505501816321
0.0690314328370396
0.160915704443662
0.12768440264072
0.0973039180426938
0.0974025885309528
0.092501115388155
0.0936539831265052
0.0860513131580465
0.0952538375749484
0.0923529270461164
0.0873342485815752
0.154321772482901
0.0958226388193888
0.100205344875923
0.0907043291102146
0.105754170753676
0.103175949402687
0.1778437413938
0.124640004006366
0.0939816259642037
0.10290744250794
0.088279531879561
0.123884256384732
0.114064473368904
0.100699125124393
0.0939870452370177
0.0932567853728125
0.0949577685481514
0.0915042324503613
0.0910157249833976
0.0966350371608491
0.0916835917073654
0.0945378848788276
0.0949249170632245
0.0967438293397355
0.110816117835834
0.0992575953490105
0.0886701916070175
0.0973278699619991
0.0861301000390205
0.121219248992419
0.125502576212391
0.101420835670767
0.102877197737739
0.0887788177771911
0.0993431198481171
0.09330566523344
0.094800726626777
0.0902010030235558
0.0959675145351711
0.0849833930146969
0.148713937319686
0.0931450794837382
0.107243296129081
0.0833288210933459
0.132887364212987
0.106601512942171
0.107488398709251
0.0934115371723824
0.0979962187855225
0.0874534234192117
0.113840076137103
0.145694436732176
0.101476833001031
0.098932927530543
0.118930525639294
0.102088868774546
0.095887662982608
0.110092094294767
0.0975997545576539
0.199153557868837
0.114130041686811
0.116219266729668
0.187059696187186
0.12034480911937
0.118777265371484
0.103445528200424
0.10439949494888
0.269399204260823
0.151303682458984
0.10227318973236
0.117783804508864
0.128249243473671
0.096116859335551
0.117671010466796
0.108556160543603
0.136352674366287
0.148484184281229
0.172425711123946
0.18845985577225
0.0841021450192919
0.170899812865287
0.126691297690005
0.111665982132733
0.0999355470337216
0.102474706401429
0.107635969839144
0.13780129493025
0.138386510136123
0.133310182352293
0.122747141366267
0.109278161410692
0.156964968036716
0.115943250253004
0.113870244797822
0.116246284605017
0.124668588079144
0.0979620962212324
0.120359412378919
0.103038456933771
0.12455377057167
0.106588059231595
0.127455755447604
0.185054873653624
0.134591353536127
0.117476148413311
0.165475925934001
0.115711043567334
0.113768819789457
0.108525880181225
0.118653845836294
0.107787531989113
0.109738773352589
0.106785768738007
0.159177351961317
0.117549137383536
0.118589256174275
0.109920442566093
0.108939209499208
0.112097478181008
0.116748919221207
0.121009033732615
0.12146639400657
0.117065099799183
0.118930531150258
0.151287927230585
0.163619898266617
0.102759349664016
0.185399416276264
0.156441658376902
0.123216646640493
0.124373876216059
0.120915605343559
0.131083383415083
0.127307104219375
0.134322670130312
0.132893203172701
0.133795452131977
0.152812615814813
0.153943564429266
0.138511755203705
0.155361398242747
0.221490921611961
0.213924740526049
0.144592669980043
0.141500213097981
0.124945660100236
0.197728832511559
0.191221263618533
0.180291153738564
0.179786431255132
0.138908586491392
0.167538662365566
0.143829335390613
0.160350652463909
0.146379340179355
0.1640292855852
0.154248248653425
0.168977230266894
0.155072910222468
0.170369863589337
0.157258752114922
0.184698417297657
0.212728309642316
0.183383482842262
0.16139285938278
0.188325200843261
0.169632411894395
0.235515584256446
0.228774379311292
0.262117959301455
0.225629026451427
0.2303372206812
0.247129407467059
0.194196723314159
0.196417927618745
0.18490255449438
0.207663851530841
0.210162137786387
0.206780028065691
0.199738250130899
0.208877620968952
0.216177204949414
0.226037406124634
0.216388244163528
0.22259503345385
0.226692339257664
0.247325844919718
0.23404257558922
0.246678605877186
0.236793977770582
0.307646159946013
0.314278092094712
0.295393010432192
0.253304912838206
0.260426406543773
0.260356494334355
0.249437655624548
0.261624156335654
0.253075778357572
0.280818663717263
0.281273543887689
0.315487777457401
0.30586875508847
0.308156787099841
0.307098621630218
0.280778814151552
0.322118684293663
0.30585446052658
0.307300287443591
0.334987722688698
0.309585627029678
0.302981157113577
0.348435727872593
0.352460255715712
0.329126717804808
0.350031467039706
0.313377905322048
0.325810857842722
0.316716725289062
0.349597413751008
0.331417322896102
0.363005360787153
0.353345381496724
0.360870056146006
0.350193345143598
0.372450195023581
0.363774858391113
0.393744568313457
0.374653069627331
0.382531491023383
0.379232844141078
0.362017257868303
0.379444975197952
0.383435576247645
0.427942951034996
0.446768484497386
0.434741785573028
0.455611998098315
0.401565048826175
0.40725353738862
0.409175705302555
0.428676008148663
0.422384862168866
0.441407120845566
0.445590143965716
0.441700327883934
0.438919013891595
0.443791158609219
0.434890630109008
0.46714948034346
0.456197185219779
0.457153492572051
0.466956195163544
0.47856505964642
0.47288840987465
0.465142927076266
0.512934794162262
0.545408724456718
0.537552022888664
0.546676163292261
0.505721607433022
0.532188088689212
0.501682935295809
0.519752327853991
0.521652772754211
0.559633524081628
0.520331064916909
0.52610872120892
0.534981842553796
0.551682855419616
0.549407817471026
0.575718433570239
0.561792890484515
0.579918297457781
0.557617418651976
0.58119773583501
0.573962420439021
0.595502482303794
0.602467022353404
0.613759367902564
0.594558565477237
0.623776230708842
0.606154920565594
0.61840892137113
0.609784134046187
0.609889965752599
0.629608084466903
0.637647334585557
0.615232863958499
0.634902089748628
0.636593888489697
0.691759844335325
0.675959105395504
0.671604450705942
0.661467001804401
0.692636794140791
0.707132290602682
0.691488369611924
0.701854688167141
0.721353454197057
0.692404777592012
0.726352449406749
0.697523431191055
0.700868464184464
0.713652385236149
0.744218617162912
0.712474244857287
0.751299628910128
0.726214670901196
0.727468805694272
0.738800037182122
0.753557175769965
0.73698407157813
0.774777052271663
0.771077457664742
0.821247881757433
0.759814139730236
0.772256453145999
0.790509473819048
0.827636257795113
0.78816956623961
0.830460294109561
0.800339753616393
0.841148272221166
0.810879197372745
0.831414139782367
0.809571399641588
0.859571426576177
0.874306217270584
0.845236926739635
0.835422290004793
0.860119552804663
0.856501935935217
0.88664740439259
0.863815965776906
0.872458508897049
0.917490986752424
0.928810616799945
0.883774739671055
0.938566642867525
0.860373115778872
0.851472396334413
0.859510837710204
0.917307592502255
0.912483422671743
0.946160009155748
0.9065010246687
0.952538050704684
0.951178936878532
0.954922949039857
0.934524185918965
0.94800116520672
0.94572371938267
1.05082191777971
0.951836340634765
0.958409461941591
0.975956893764526
1.06591287858662
0.994473885940166
0.986454334045596
0.974357458246569
1.00789633077081
0.931199411051847
1.03001320821822
1.00004940819347
0.986368583180082
0.998664641162791
1.05648996387871
1.04223201856238
1.08711149725269
1.02945882817438
1.05463025221105
1.09033895488311
1.16006723403045
1.15669009980236
1.09722504179182
1.05621667079654
1.08038773315942
1.05833817085729
1.12761947436431
1.08621448572953
1.19130152781561
1.15373054120214
1.11669456017165
1.17766721999268
1.25194612307492
1.125082713356
1.21150950944932
1.19773009558696
1.27039014811671
1.18315425628423
1.2023294751633
1.19570502010974
1.20393306050761
1.18074156400711
1.1804101315952
1.11211007857158
1.20447274276699
1.1527807413988
1.14772341744221
1.2320061704555
1.17945413211642
1.21315107753254
1.16009354613185
1.22741653941247
1.29322738799779
1.17495466024267
1.36730538864829
1.29682889601363
1.34807049689856
1.40987573304519
1.26794395300247
1.31176729286516
1.26844508373294
1.20595373747747
1.32085728493056
1.17694639796505
1.20802894517408
1.26231054918602
1.24376787100177
1.27514776592284
1.37594515672802
1.41480817517738
1.36133516200502
1.24485800538903
1.29120380088309
1.28225499322836
1.23454252764427
1.3204400223633
1.43950946582013
1.35596044955083
1.34245479619209
1.3215086161001
1.30323777590838
1.2462617711534
1.3306935692391
1.33787997698025
1.35585207436108
1.30440105244802
1.48086969031502
1.50098364437483
1.40367701502783
1.39818565319958
1.41058342801239
1.43110022470901
1.35206488574542
1.34113899926571
1.54032055589489
1.51043114624054
1.42545817562607
1.34608587331032
1.34246988079906
1.33276782649284
1.46371083667651
1.35662279049172
1.47177593199872
1.42257134230602
1.34018492065091
1.4398461943399
1.60348778833188
1.43332501666721
1.32157682795286
1.34767951299778
1.48180736125359
1.54144279718019
1.65595811911038
1.57632270299075
1.52953753148579
1.3998716179344
1.45270209556661
1.3758155989007
1.43586499620398
1.52159723429062
1.52927229073305
1.6364975900879
1.60168749522218
1.50713452158988
1.52323798341527
1.52307612126403
1.55324239229999
1.5141489935948
1.55267452545202
1.47613966376442
1.43290774359111
1.52134322042045
1.63675110292792
1.47709108069553
1.46577522789778
1.52777354606531
1.46103093033186
1.50374896722465
1.7269130287116
1.54755693632136
1.53135948276904
1.53217979636415
1.55210151317712
1.52570751527305
1.57548686007277
1.65691489195838
1.63753163169455
1.55395118223783
1.55635160235819
1.47460557776938
1.556145497781
1.63830917266318
1.57101879923847
1.55337895608759
1.60628394768372
1.60797813078028
1.56518672704254
1.49988830150325
1.45421160552838
1.55976648249105
1.60522443017544
1.63815635811014
1.65536945857386
1.44385326396643
1.51514540609274
1.53035868454072
1.46815069102707
1.6627160664312
1.6221626155885
1.63717477278741
1.64244000058649
1.49763433380715
1.65058977658326
1.68741380211868
1.51406218116835
1.55340657703154
1.60864149889991
1.55644633402474
1.57611929106117
1.58020012971324
1.61077851598899
1.60439589624818
1.58930878308501
1.48872640701648
1.53518255135704
1.58533274250151
1.50549907486395
1.63909067167124
1.58268309808431
1.51043631931113
1.5524152468382
1.53662059847447
1.59205046525845
1.64345746215427
1.59983520904875
1.63553277174048
1.61900642302886
1.7004625961421
1.6085625640977
1.46836293244646
1.61329520905475
1.68781541400245
1.5482629863326
1.52673731221107
1.53675439481254
1.58111908699733
1.60989942756636
1.73197907493243
1.70116449632428
1.57614679133174
1.8418143432905
1.74883676538803
1.62225378643302
1.6114571765239
1.53543311373242
1.64342212568987
1.53734837469905
1.56932365596061
1.48406175965566
1.56613662487343
1.66976383938743
1.52848341583452
1.54218472348723
1.52579938743351
1.5582266973937
1.53046619836177
1.59967420105842
1.55551262619629
1.4886688176131
1.68776016938518
1.76681297678567
1.62153066856146
1.52556965105617
1.62252611831469
1.61330042989791
1.61132634429897
1.55280550600776
1.4198177352814
1.45340854597166
1.62434765841227
1.54501026297975
1.76532357484825
1.54058591161886
1.48868375263653
1.71354279067401
1.55685269141361
1.45751071332562
1.57575972465445
1.63869940155157
1.53270538618352
1.58886932842415
1.6153614845473
1.49171079104208
1.61683904259065
1.61613886589061
1.5252391133075
1.57187149172974
1.57803650896861
1.48395604361405
1.57269754773225
1.59692295725053
1.52139399143828
1.54623640405087
1.59347080599961
1.54916289321694
1.66290722130738
1.57588179245988
1.44319037806238
1.47673990786462
1.56372748157068
1.55264382371832
1.47972229226187
1.52676869885112
1.60566149456543
1.46705764321571
1.49095942722418
1.40939875709689
1.45555710704831
1.4986300901705
1.55260967173917
1.61192321477414
1.51947159565577
1.42921393060066
1.40857542364879
1.38510709989162
1.48053150017763
1.43783701078261
1.49552238489589
1.47330098094609
1.48930388180738
1.45437694588481
1.51260905449791
1.51680978060985
1.43704422281218
1.42324500623295
1.44586171099386
1.3766820806367
1.44883037458602
1.40287497641029
1.37227317844692
1.41325488730981
1.44429783854551
1.38273456283007
1.3624163392587
1.32738439842966
1.44522909390415
1.39486832771862
1.32695222911986
1.37270520313265
1.35591034420447
1.42174808742333
1.41714487218042
1.31809219449121
1.37296832030597
1.37040411916582
1.39273718289194
1.36749879917023
1.31241221804242
1.30367507525616
1.32877348935111
1.31894444514774
1.30734659630282
1.2526675843443
1.3338820940691
1.2534715998714
1.32858988828671
1.32162075516308
1.26115894072114
1.25164653022631
1.30835711951621
1.29550966648111
1.21669388636395
1.24118296537995
1.30561807665488
1.24022153102174
1.23482417141123
1.26853171844972
1.2943721876316
1.23189859057392
1.2235908936835
1.16038069456146
1.19449398559625
1.20402414872176
1.23463209866653
1.16296729103072
1.17602749206175
1.14243410768767
1.17454104483944
1.17762677741673
1.13106364713924
1.12370502763794
1.18029535668551
1.15520866072802
1.14846620715033
1.15624345830989
1.15104564842232
1.09866264679673
1.14531369238278
1.1310750078658
1.12331216976039
1.10625659393197
1.12112984924266
1.07819328117117
1.08580251278406
1.0914226150615
1.12516347858776
1.07209952629356
1.06834421379595
1.10707665429301
1.09253755994574
1.03860811683124
1.09609409474834
1.08708372254232
1.04695701560639
1.03433293684397
1.05091786703128
0.985740433799939
1.00571387290085
0.993607292265281
1.06014310933923
1.00655872718708
0.9979403906195
1.01899406142269
0.996831531145598
0.961238612751949
1.01140386603468
0.952315991384231
0.949564263350333
0.982422714783433
0.9889453476199
0.944598538668157
0.964358097332992
0.954933672243819
0.976333501990279
0.950642032147901
0.916720707017299
0.932550611338158
0.940752452880104
0.910166848103689
0.925553710088148
0.909138040606461
0.912332814697503
0.909536114144008
0.911355015915473
0.903736278424564
0.896750457062031
0.882958136695491
0.873424989969794
0.876924480235139
0.895427786389396
0.874216789256947
0.871631702805603
0.846800674133814
0.852700853247977
0.848115522952452
0.8749468158741
0.851624029308044
0.840279312468195
0.835147796835499
0.83059905953106
0.815259708660782
0.832452647369213
0.821824252357074
0.813560141986231
0.808227708056136
0.81844867667956
0.803143175634132
0.815824025934163
0.791522002969101
0.785261690707807
0.791187597504267
0.801229461312416
0.790964953693447
0.790641917249089
0.759936220825494
0.769682962050639
0.779021306390806
0.762338575071287
0.751687350581345
0.769753917015207
0.741343253244672
0.766476661707555
0.745421027046615
0.752208836285996
0.734494343551775
0.735004690753721
0.733524985709603
0.744497561856157
0.720237405414879
0.708459261553336
0.706091459196312
0.731746283463254
0.732008838522929
0.731813730687905
0.691959512020594
0.680565261321059
0.691998068480646
0.700439222573874
0.686856734960733
0.682049568756735
0.689382470997011
0.694510494226341
0.671339223344619
0.676587799126458
0.655689729535493
0.676973497129863
0.671951793892959
0.651347082875356
0.656425726757612
0.663189565973108
0.652635903814821
0.654224936646377
0.658296859890567
0.656636881190656
0.625718541472415
0.643070257923671
0.620628240003544
0.62339694342154
0.618520337709337
0.638182831638589
0.628936416020752
0.632308452125506
0.612740359604983
0.607048632630528
0.606231095703353
0.615782249865013
0.600970498119095
0.609688743286261
0.600114096544028
0.595927661394239
0.591090683068417
0.595831260355043
0.588670018185662
0.585242731992094
0.582531151484738
0.587829398254122
0.578484037970903
0.578974386951263
0.57516806241724
0.586597245638556
0.566819062778341
0.572619470283812
0.576360021331159
0.566926080303667
0.575168109777142
0.572903552621408
0.562956485738365
0.563978432591323
0.559222510885487
0.560711247548204
0.558680989193365
0.559731850503632
0.550413963633746
0.553051615272999
0.550195325217986
0.542835714804763
0.548446866539273
0.546742346415685
0.539490829731499
0.554455203705742
0.552677708695371
0.546764193258777
0.541383764152267
0.547546909496157
0.546595292620437
0.548774170206268
0.545769220705766
0.556020963041394
0.545189062254952
0.559667036350383
0.548692914239484
0.546803572796586
0.552980036533042
0.564229806618057
0.557310388882785
0.575346256775084
0.552148708855248
0.566063741921605
0.558430775374819
0.563576783535604
0.557426888089139
0.577177365199714
0.56628648953504
0.572809912337274
0.576609120110994
0.577594719567221
0.578866064409716
0.574612682139582
0.572584916494835
0.598598461081283
0.588100639004125
0.580007772886618
0.586340875264803
0.588109789704379
0.588719236374099
0.596735863470595
0.590468775910352
0.602217674938643
0.589264914201391
0.614733664433368
0.610044328122646
0.625346358733292
0.617502642209802
0.615871865263087
0.625064855935354
0.626669466749589
0.615557037844503
0.636372698323849
0.634693288100509
0.656406401800143
0.640510246996876
0.656868573797523
0.647128392168509
0.662994529836862
0.650249394462463
0.67762243822342
0.67518496071227
0.674720495055921
0.669570505243518
0.682569520235153
0.674132848073227
0.68258350460735
0.680868246018626
0.699293512044205
0.69853715721962
0.696737298335651
0.692447955611335
0.700840506044129
0.691988619410999
0.708604401077532
0.694725779684403
0.723243035414921
0.711589888587692
0.726654805035267
0.707134943797178
0.724204745219763
0.701816324288933
0.7149789892852
0.704010186519221
0.720651081094928
0.718818440602316
0.704824052777235
0.68416351258499
0.712430536288708
0.681974867695578
0.706907962989108
0.701342157265089
0.709528825414269
0.705243590215509
0.690002677620075
0.694628144477708
0.696922212643512
0.698999076189998
0.694324531325448
0.679400585977194
0.700058758365327
0.691813376787808
0.697984001336806
0.681249197718534
0.697319540856455
0.699146497470514
0.692418070856217
0.68657836017464
0.697442411048864
0.701005461991384
0.694846016585941
0.687662418847321
0.710605028393392
0.697282905456191
0.694396483579474
0.687962173554585
0.691520213341607
0.699655089504538
0.706496611044417
0.686443726367924
0.698139684178378
0.690221099432673
0.706901892506286
0.684772276052621
0.699609596512309
0.694741016732508
0.708252054321352
0.694948798279767
0.698210463900458
0.686327504297879
0.701240523265131
0.671599384560536
0.699318324322857
0.691123183618555
0.689302535226492
0.67672250371192
0.677459020386461
0.658357639079268
0.669354448946341
0.658048679522394
0.648623195625703
0.64632538501057
0.662854180861358
0.650397061218788
0.655520475434399
0.646753561982307
0.64021979566287
0.628156594476287
0.6320038114501
0.634908885661078
0.614053832502287
0.609780296074128
0.623857403159388
0.607521624121175
0.60748166512519
0.580531032997681
0.601460175174383
0.582608996236337
0.584381516627115
0.572220921423366
0.593346949890502
0.567534541476501
0.571296901141063
0.572022065923641
0.565159609960265
0.562086993864982
0.564400243870902
0.547672928623877
0.553698218371804
0.538629867918239
0.546901288224902
0.53409403282874
0.536498149823186
0.528530473655792
0.535471396728395
0.526024580570433
0.524096189496676
0.51189251733787
0.524698157353694
0.51290908555055
0.522297232272249
0.510559911839193
0.5090607363717
0.513161464009262
0.507727833707618
0.496687037156035
0.507732706631085
0.499196008178831
0.495483458749142
0.487797890943478
0.500326551146025
0.487379184479039
0.488547731640951
0.471773142848336
0.487648118931347
0.477733903817363
0.480499424252764
0.478704915850276
0.486842758891226
0.470467628224976
0.475696878712507
0.469845200631353
0.46810415076765
0.457019244682332
0.471225547697795
0.460455084371552
0.465256809323274
0.458615345108215
0.459445284483674
0.449581368191579
0.457645318410477
0.447008043405163
0.449878756621251
0.445179915135395
0.445044663058091
0.439764494740322
0.449584130302288
0.442715559884515
0.440468739477332
0.441997651991274
0.43858412373608
0.435572895534674
0.441146819178535
0.430738030031188
0.42917395598096
0.430968279534025
0.438033294476373
0.425515299369692
0.428874799129846
0.424325772524245
0.430568442559985
0.423154165404899
0.422571638840244
0.41827582222655
0.419781027804505
0.417973591595634
0.419240009698788
0.414495542964295
0.416352144380443
0.411727486626061
0.413291022830278
0.406668514392754
0.420565491335499
0.411671897370725
0.417004035320441
0.405734939542391
0.412083860680999
0.402551843109846
0.410485316353176
0.404654983878311
0.409584502908738
0.3958243018623
0.402265452761848
0.402489335490203
0.397599789179953
0.392084567080734
0.403446356167556
0.391507501004412
0.402231257429872
0.396578621289311
0.40202622082922
0.390112208610251
0.401413781640071
0.392194995213915
0.391366084382377
0.391134001250094
0.390417154094827
0.383458485976701
0.386599751998857
0.384764221780868
0.39114361038169
0.384462739088522
0.38299013943123
0.382966572121122
0.383797507557318
0.376337971952981
0.388300607703363
0.379410495608571
0.375115693135447
0.380350339567163
0.379443249412983
0.373193184015858
0.379973702506627
0.375534391089608
0.380315648577325
0.373289217096118
0.373173182066983
0.377740275532416
0.383095363535655
0.375456996938506
0.375709227321889
0.369741708503738
0.382012285229383
0.37162451562792
0.379914457495482
0.371049530477328
0.374740463252332
0.377198396763297
0.371106884706209
0.367006663950077
0.374228316588868
0.373680557102133
0.37348429944763
0.358927137553386
0.369845007507107
0.370284601263442
0.366789418896428
0.36573720072998
0.368113985952434
0.367664286074152
0.361664774424715
0.360642050185091
0.366600404567437
0.36035126728319
0.364287496139888
0.353444057851426
0.360990417283052
0.360267312044541
0.358080464097076
0.353159941578978
0.361351415145457
0.352847542434451
0.354473943705728
0.351430739176424
0.360228339710781
0.34959500115165
0.351297018077881
0.345554294686013
0.346770845663956
0.346224098639865
0.347482954456874
0.341629615996876
0.347208725521069
0.339605635780888
0.344182456561522
0.335030612180504
0.343571524865672
0.337452406602282
0.342252818540847
0.33803092779416
0.339198736871589
0.334503013504407
0.338747451896147
0.337538105148217
0.347721743076838
0.332943001914497
0.340837765480595
0.330173577386449
0.33279410725121
0.332669368923685
0.328347044520719
0.331312358652245
0.335094424440447
0.331669341917954
0.330013007408054
0.326789274889859
0.330477924727568
0.322296960056596
0.319861588771816
0.320012426738519
0.318890578736974
0.320799535999575
0.327984720007095
0.319343440653419
0.317334298795787
0.315056499903872
0.319615728137161
0.314061486832352
0.31293563484582
0.311539488190943
0.31512913945253
0.311566509430667
0.312890301503321
0.308748935151073
0.312393552486237
0.3100406184266
0.30890857043138
0.30425694743063
0.300036713343678
0.301556937424493
0.303217010440309
0.298398135396877
0.297188963093189
0.298523452847192
0.300140759042684
0.294353385856833
0.294842431643816
0.295001626338738
0.295315366251643
0.293859442664544
0.295442930164644
0.289439951011722
0.294298899028232
0.282734642634854
0.291177800686615
0.287409612826143
0.286339532381075
0.283643328568219
0.281643210977256
0.280026017685221
0.281084032040926
0.284145729590635
0.282629138246902
0.27592889920713
0.279546898389509
0.278472036888084
0.280181522304035
0.273102708447738
0.278442979148253
0.272832312621442
0.276494577546751
0.276508299872733
0.275022638270162
0.273600938930571
0.272142136441089
0.273262167929833
0.273583092580211
0.266965026837491
0.267927718225375
0.264357533547616
0.271599814415709
0.267532651817625
0.267735564336845
0.263870830248731
0.264663617622586
0.263829961351886
0.267751391844569
0.263776078890474
0.260725326033571
0.258997780375691
0.258648123198381
0.257104834265131
0.259664994071553
0.258625272016784
0.258390636238823
0.25653996544199
0.258517428560519
0.25500115707099
0.256999615184862
0.256161545060957
0.255503083148904
0.252307880299161
0.257125078019533
0.253722779727126
0.252710696847815
0.247422616114751
0.244068546709406
0.246086195382316
0.251493655652429
0.248764206175774
0.247913635999547
0.244270070984913
0.245116388575533
0.247491764583052
0.247802871385701
0.245016557682861
0.24798073354857
0.246469193766802
0.245329762599678
0.243810005179012
0.241747623104474
0.242253533829847
0.242963655529422
0.2422799270848
0.246556616443521
0.238311796383124
0.242761646511549
0.23791804578058
0.240041771177492
0.234430728707945
0.239024977208522
0.242092662150548
0.239562591051283
0.233682615577195
0.232825163806825
0.235392486169559
0.234004713701185
0.234630866857709
0.236350497215038
0.233292352719553
0.239763086064968
0.234413637622487
0.235977115063109
0.236571767343167
0.236710413965065
0.237653260499084
0.232236935841761
0.231879956798962
0.234387046743564
0.232791138971555
0.232945274008999
0.229327600826497
0.22644872066772
0.226979679246819
0.23396721988558
0.230412560302567
0.229445941505096
0.229718272682904
0.227678398849605
0.22802124203331
0.22800132010195
0.225038014237588
0.225761819780694
0.225092854953341
0.224306115808848
0.225684606124785
0.227026210755275
0.218402108439863
0.223185947444025
0.222518991024117
0.222276419053307
0.219918199126313
0.22206153217635
0.222691495092935
0.221014325194051
0.216813724765928
0.22129452307534
0.217007380309808
0.219548392399701
0.219009120302008
0.217067629016683
0.218042281174546
0.219096828154921
0.216775723256801
0.216414305297705
0.21478832320493
0.216888489727535
0.213853864467213
0.216712663158001
0.213169199728618
0.21724631261116
0.214351602915184
0.215117885435664
0.214716560469699
0.212789778972059
0.212654584451673
0.21480856748258
0.211948508556629
0.210756438268671
0.212797312286012
0.211121776375514
0.212175201244564
0.211450394760933
0.211614147816144
0.209826087932419
0.207754023354009
0.206675509984994
0.206813226693528
0.208726189010872
0.211076972958893
0.207043012130658
0.20560945419077
0.206461680783434
0.203659803043072
0.206441417904504
0.205123531355808
0.206852060002624
0.203775681649062
0.204371672918433
0.198893394349558
0.202458437642935
0.198766833056791
0.197565266935159
0.197416797422494
0.1976622944932
0.19842425227963
0.197631034596487
0.195807589031914
0.197929505340188
0.193648277758883
0.197246483750522
0.193682030561463
0.195514834589651
0.194575271429555
0.188782137786769
0.191198446812106
0.191256176436791
0.188273497153649
0.189808441850145
0.188864794040042
0.19083200036099
0.188460392305859
0.189104166366471
0.187294503803311
0.186078035302354
0.186596535536354
0.18530654597855
0.183107593798415
0.187109806410164
0.183514905759662
0.180947736627102
0.184385218799203
0.183870995837993
0.180195601805538
0.181530933645883
0.18117485369817
0.183619079908652
0.181306035912387
0.181161577578141
0.180292684303581
0.180735373052922
0.177424992891082
0.178648157548481
0.175029800129257
0.175403199290275
0.177695901442097
0.177403627014936
0.175204324665754
0.173045145590586
0.171454869522632
0.17443208096872
0.176015892973312
0.176975842945307
0.169572319608536
0.172163453468422
0.170512640991563
0.168877675949867
0.172259095640271
0.169485429199195
0.172280988796674
0.16936232216365
0.166128422121803
0.171050230557021
0.165140609647909
0.163643163905852
0.166775866592467
0.163187069637919
0.16645494578628
0.163833942376715
0.162809313580003
0.165128205415568
0.16187786804102
0.16388641705254
0.16287451015369
0.160155611162723
0.161731925004583
0.160033687686248
0.161416865581428
0.162354813741886
0.156143909302011
0.159540240913126
0.158242679483303
0.155525783702438
0.158660650512128
0.153466199383566
0.154224235573453
0.157429378208565
0.156119379188919
0.154259589855584
0.156425893774214
0.157111481649971
0.158924938046345
0.155506315033568
0.154979066215211
0.153953841214616
0.156111279378509
0.155043086576204
0.155619461048407
0.156866575692983
0.155648680641042
0.153415271978192
0.154890085186691
0.156468127325208
0.157792649408895
0.155189899900291
0.153729742194226
0.155407479592846
0.155937922287299
0.151309558059763
0.153748601836529
0.155452505833611
0.155138017948271
0.15144086977443
0.14768158897103
0.142900705998467
0.139060925896544
0.139508577259932
0.151586015900014
0.147999819648215
0.146101802817166
0.138392096000207
0.138267927728164
0.142190400035887
0.142820618914024
0.132364766289546
0.142549476673542
0.137198472563793
0.13651653560439
0.13954449631496
0.135112737133575
0.133828652862146
0.135940771201624
0.139495809767558
0.142819063755635
0.13463402771756
0.149671369274358
0.142681200492979
0.143011473576253
0.139412465932073
0.150277647433438
0.137767911772946
0.146357673329369
0.134015255962955
0.141598315018859
0.13026555490616
0.145960793018863
0.131338054478368
0.149343681462364
0.128879258570956
0.146035309991361
0.123859180724553
0.141265653882642
0.118791088973339
0.141952179672176
0.124738585666432
0.152778437968294
0.12773395103888
0.152477753812779
0.129213703654704
0.149131125513795
0.123732217594132
0.153377197499585
0.130865941649622
0.146267560417431
0.124454688272949
0.147216302402093
0.138701875545335
0.144459520706814
0.132748246817744
0.142972997721936
0.15135825711076
0.132539319744352
0.147398446780715
0.134315468759409
0.153646213710119
0.125763075795555
0.158443129639766
0.130671740544887
0.152429767294775
0.131962502922273
0.144952765517231
0.137568917730226
0.146183560216411
0.138678393519009
0.140069148151126
0.14144856474053
0.138601197415118
0.136957683577755
0.141461577019528
0.135180218260369
0.139636281311373
0.136306124151751
0.141261858687472
0.13268692828225
0.139202944042211
0.136002694419769
0.139349534968852
0.134791125736685
0.138858205374322
0.135158125685862
0.137204019296563
0.135375057532692
0.137281911202166
0.133407522360382
0.136954067097472
0.135912458332347
0.139620562070235
0.13286911620322
0.13718357973196
0.134402602737627
0.137635966338123
0.135673058324462
0.13580535974162
0.134424886866726
0.139537123034811
0.13479032376614
0.135922748501413
0.136248399242989
0.139295537213079
0.136516791343508
0.137125021643982
0.136149034393038
0.136438090281363
0.135463738341128
0.137700880143819
0.133605343189303
0.139746862422003
0.135025627412431
0.138862015341649
0.136573681732698
0.137862514915537
0.137415932477781
0.138408089047023
0.135113155134768
0.137506289021698
0.137304923443996
0.140417013086802
0.137613278583563
0.138776172464057
0.135338298743554
0.139493483889142
0.138787168298864
0.138699273920365
0.137479100583084
0.139589641951411
0.137541047294653
0.136964367781874
0.135095733937287
0.138696472753357
0.135723671918267
0.137458727150758
0.13560861496048
0.136858932576058
0.13801210832321
0.138409424808213
0.136254286589493
0.141172950074603
0.137298856823488
0.137970450410274
0.134406905169846
0.138279286394911
0.139805451255383
0.139055478546816
0.137793359631555
0.137174674593311
0.136902544290427
0.140630252814413
0.138701129516017
0.142301628110092
0.138418052046085
0.138005218634356
0.137629098126458
0.138710163722478
0.137952657555335
0.138404716032434
0.139842315305053
0.141353809315356
0.138341038967899
0.14083766835616
0.142985689634266
0.144684224998243
0.140308070437685
0.142517013775653
0.14063395575844
0.141104668617158
0.140900561365934
0.143127633749105
0.144172878618895
0.143924663697662
0.14244382757779
0.144704943976638
0.142897470354482
0.142799652932866
0.142095880588593
0.144918092845262
0.142003684740272
0.144038264948714
0.144439640748339
0.144388816873894
0.1423726427198
0.142231770265657
0.143321567630343
0.145431925642009
0.142143745728326
0.143798903551258
0.144393338031423
0.145013402600557
0.142443877910263
0.147398573120675
0.147817231221751
0.142383826814534
0.141340126716594
0.143592965237146
0.145977840494655
0.147721592060872
0.14330006612777
0.143425140605781
0.1473101444507
0.145999951563371
0.143324924311704
0.146458263565808
0.143714328923431
0.144208054682247
0.146354156050085
0.145932363524543
0.146363998564295
0.148402535338836
0.149220284176427
0.148156248602431
0.146674584670576
0.147831440909785
0.14832402009767
0.148372601666128
0.146093486039953
0.148477670329756
0.147068702797566
0.149162011782786
0.14909283003187
0.149258052698993
0.150093926861051
0.151093842621441
0.149931694790085
0.148426101933767
0.148220886147846
0.152842810149892
0.151172050217865
0.149395252150473
0.151477767007242
0.151310671289109
0.150265921439287
0.152347633604709
0.151436529280228
0.15118806808697
0.151969522647977
0.150945969137096
0.147583241939179
0.14915949970712
0.149645738612336
0.149245755443648
0.147639942488859
0.149648034953541
0.149134842424056
0.150515118091463
0.147827563998993
0.149080610388035
0.147372258078775
0.149142159618005
0.149882759961744
0.146905896689177
0.14639972819299
0.148278280745092
0.148199358799318
0.148108419869186
0.146550197441977
0.144168434299266
0.145230528205628
0.145295635485007
0.146696438933759
0.147037150408603
0.145190734639854
0.144508669965262
0.141622917305052
0.144397993402809
0.14549406470266
0.142367338327903
0.143663310216512
0.145545442463494
0.145192382565258
0.146181437563451
0.145346097246596
0.144071558964227
0.144565119698717
0.144595604636786
0.143993278954791
0.143285039257809
0.14356797505095
0.142246088351546
0.142634028572333
0.143564805838206
0.144940996151758
0.144367384862089
0.14215634417592
0.140852203376667
0.141618362342022
0.143417583908161
0.142325045934813
0.141265697341976
0.143230895741629
0.142268447118889
0.140647600303106
0.140891057139514
0.141895029673585
0.143558836964562
0.141457058138384
0.141009567662341
0.142547691820041
0.13846588225194
0.140842506250396
0.143472690758652
0.14056352230676
0.140054442533317
0.139308007157722
0.138878547397573
0.141244343086302
0.139703133144658
0.138664309244189
0.138765930844802
0.138392060347518
0.140622787472176
0.139808586405753
0.141160325302309
0.141469173138371
0.137089857001487
0.136906618227703
0.13856840122696
0.137458779946579
0.136229911517219
0.138087312021201
0.137922026742909
0.137883675612974
0.13725265932183
0.140090108116828
0.141692314250134
0.141663258648029
0.137629232324799
0.137400735323663
0.137436704483503
0.13810351755213
0.137403693998687
0.135304093346127
0.137830324444865
0.13589649394976
0.133898526214071
0.136725849255962
0.136711543776784
0.135833250607696
0.136022770675233
0.133514868666744
0.133980196619392
0.1360021786239
0.135642097335209
0.13475995931063
0.133474791521447
0.133542573358972
0.135401932634486
0.135428402270645
0.132689557773695
0.134514692943126
0.135813130009651
0.133584582134368
0.131935057175528
0.131440784429874
0.131541304175729
0.13092876211459
0.130262440905162
0.131158137588512
0.130998775271688
0.12940401592995
0.129010271829323
0.129640149309493
0.12804002312914
0.126766959340881
0.126682619513187
0.129419970574772
0.128590245232085
0.127582846637863
0.125414892170334
0.128725798755074
0.126298987531322
0.124304101377244
0.125036023694334
0.125430457792437
0.124549062087339
0.128592513984066
0.131287930853765
0.127751730295749
0.123196232997259
0.123762606106261
0.121953951594705
0.118655058864729
0.119247237177852
0.120923082870096
0.119455681833769
0.121026296564638
0.120667130205158
0.119876180710387
0.1181894635819
0.118327614181802
0.11856396236727
0.117766756876426
0.116333524776657
0.117780028767316
0.116239987684799
0.118223036630844
0.116871331139797
0.116940527491699
0.115561147269564
0.114000714436663
0.114986131976408
0.117395042401868
0.128871756242375
0.127771625470272
0.116116511979318
0.114831646569163
0.119380389291251
0.116594817928904
0.113534971343701
0.114125288233654
0.114168067437248
0.112988688799823
0.110793670814716
0.11322378349634
0.113909622720957
0.112693877542932
0.111698161429571
0.112519162214943
0.112951128686208
0.1133599296671
0.114460079941815
0.114091686617061
0.111665367876701
0.111450567121247
0.110496163830377
0.109535389473968
0.111448350878922
0.111175036344857
0.114261251029909
0.121352894199935
0.117475219835158
0.114508513793911
0.110269239833073
0.109763183311432
0.110689025319717
0.111415019008881
0.109855426863865
0.107863158189366
0.107153600606962
0.108479372648442
0.106943617991235
0.108549619930836
0.108771524308224
0.107229844796926
0.105044662412009
0.107239655463715
0.106020231825341
0.107041126417011
0.105439477763162
0.104924417551272
0.105902245549435
0.105866167517408
0.106981492196056
0.111293713408725
0.101951560013943
0.11753066719876
0.121970756385147
0.111741194562834
0.106632755272456
0.108284341126736
0.100002253655524
0.104436244270053
0.104790061223649
0.103719786361618
0.102498276126809
0.104677750688059
0.102073800692079
0.103942253731054
0.102802891297257
0.105329940642977
0.101462152582234
0.103398349701854
0.101463855069548
0.104846226573114
0.103410728793569
0.10235316329077
0.109807052403006
0.123608429072384
0.109135868619134
0.108783814519262
0.101304238066157
0.110939598743437
0.126169942766728
0.11244466819551
0.102152058328464
0.106002461056081
0.102089018735236
0.101157012133407
0.105618482070775
0.100237232514035
0.107230315734335
0.10652147523292
0.104804776643716
0.10705234162775
0.103776747171311
0.100596060389651
0.102458716350297
0.100472920842712
0.101905015931379
0.101916213283425
0.101851712241764
0.102891862134039
0.099125790089732
0.0988884470074454
0.100974685441854
0.0996842465447602
0.10812246529775
0.107501786800284
0.102640220808812
0.102271803535817
0.10023162930909
0.09832343159704
0.117656685571374
0.114185333770667
0.105628349035287
0.0998570903933174
0.101445088167895
0.102498950323235
0.104736685203078
0.10200382098207
0.100676961141475
0.0986873225089641
0.0994419151943222
0.102067474880264
0.101567705265258
0.101598493122854
0.0984288425242204
0.0999002883950976
0.0996099765446136
0.101812595345797
0.0975346037300112
0.102483327653267
0.0987182155874265
0.107663363415927
0.125217258711021
0.124101084618001
0.12178116030664
0.113919285034252
0.10885570781993
0.0997739808918443
0.103905318670732
0.0986305336091938
0.103721742273666
0.102242137773109
0.102916542166402
0.0993917359784924
0.104117478541168
0.101687500017158
0.102081275775318
0.0995668177189214
0.101836119705875
0.0962865588554818
0.103718127751582
0.0990472395494387
0.101467949392714
0.0970153338399352
0.10260929627622
0.10556776059817
0.112100368319945
0.101482628049216
0.108871986661233
0.146098129617883
0.125865574435046
0.116752518898605
0.102108531116087
0.105151365655783
0.0977700587025168
0.102885556261492
0.101874292221775
0.109922107934784
0.102768732092376
0.102220536277355
0.0988918786972661
0.106577736339255
0.100061206869562
0.102244149182489
0.12589015333874
0.140998870185166
0.116721665896806
0.108266694139712
0.0995628535642469
0.130130659649158
0.12780885541075
0.1143144699445
0.108190514234702
0.109198689447848
0.106538565907311
0.103610114493258
0.102380251456818
0.106453065679896
0.113614237787606
0.107135725627898
0.107202817436751
0.105303734463301
0.105389278900868
0.108651239277724
0.111739685406639
0.122368246776273
0.11756639896934
0.111813862759287
0.113502983121675
0.111753901869306
0.107627061452385
0.108067476073116
0.108946295990017
0.110779567200873
0.126296857750787
0.121939784938658
0.121935301487071
0.130590201335965
0.119887275235683
0.11185082578041
0.116253385014379
0.126550424599306
0.122965605865698
0.108477181805463
0.144490620047311
0.132262137554703
0.155997833493096
0.123308959010923
0.122358208898344
0.110472764670667
0.120546425034088
0.103164348996979
0.123448171884796
0.132209695028387
0.122499156396936
0.115897576029594
0.112914874200851
0.133905281724673
0.128645727528014
0.126657292307361
0.120568959065141
0.118414773319227
0.118940567091064
0.143077843783539
0.113677199261295
0.133304779022825
0.150074264259339
0.16199660068254
0.154655825866174
0.122499986951891
0.139963375524634
0.149545494095379
0.13300341488956
0.126906486095334
0.123942605288936
0.129554149766907
0.116480879053549
0.151260829113007
0.160868381578712
0.135286523709822
0.130720535339674
0.128359983294998
0.14061974446701
0.158655143325912
0.141106176938127
0.133032731474427
0.137193967847277
0.13139599479919
0.146579241372153
0.20179493582602
0.151716452933257
0.179130468130832
0.160995510102854
0.177173936197894
0.156489871953979
0.163548688035782
0.145578616064441
0.177648306791332
0.168438684338462
0.160282207137443
0.141132876903217
0.193858149034077
0.16692255549946
0.17084912387289
0.155162952339958
0.157327644685699
0.1626067035165
0.227754163140191
0.223685576385374
0.206152356394594
0.164316723135632
0.185315433902023
0.195619560716829
0.183613825352809
0.173407086510079
0.172806822803792
0.174530878504655
0.173698171457781
0.182019143058345
0.197246267584178
0.183853952386689
0.193820379396535
0.178140866508909
0.203900370367633
0.219418707239417
0.289444761611695
0.221750884499591
0.232051781607793
0.234926843472705
0.234861155732018
0.214315783092232
0.206018778421656
0.206808153054598
0.219665398675487
0.218725082209383
0.217078462067164
0.221577067384729
0.258270335371727
0.234395014756579
0.27519325833143
0.239842066025036
0.252671962439899
0.228864198099535
0.317254062525275
0.375205421881187
0.297967150683384
0.283441035825012
0.274596244699188
0.332183824170732
0.338282533003352
0.308945871135706
0.292379645766534
0.299842096101523
0.302366894459024
0.318506694850278
0.331147923442274
0.341642854474659
0.357748328185433
0.346817351570108
0.35629564088985
0.399126633514624
0.478996012739109
0.471569831198581
0.399701163950536
0.402988173903978
0.425474850152952
0.43167204131777
0.421893951906553
0.442105374373976
0.425830515382642
0.495499116789035
0.502778407419019
0.486537706268725
0.461250176024151
0.511338408245012
0.513092933923638
0.517758683347803
0.585470386466143
0.554475748782881
0.563330795945744
0.532128201373164
0.567541123453867
0.556915595971249
0.583618431757486
0.606774599195613
0.614971880333347
0.605778214275219
0.609567628972476
0.606339281434544
0.621782945667541
0.632007153668119
0.629002030439183
0.641379155035042
0.695741052191329
0.755514556200434
0.958127086139128
0.695618603412711
0.680323880607941
0.639061145645957
0.69543468234128
0.709136203502738
0.73659639981565
0.733138364651949
0.70045514010147
0.684161211317612
0.675062334011999
0.685163834297347
0.684416351491454
0.685962300445999
0.689446135820825
0.676535098617893
0.732214926668534
0.678606986964444
0.804469216737159
0.765275988682759
0.732840876311283
0.65856183018611
0.695046165176916
0.669800852920687
0.686507460146076
0.667847795143974
0.71270774667713
0.690868302421339
0.684823928698208
0.648324298875075
0.657413956765892
0.696019578459852
0.69484672114628
0.647727684085396
0.647437300385416
0.624470147178897
0.633057547559522
0.603469801274772
0.694977286453081
0.650303000786181
0.627051578911146
0.606612628819264
0.609048139794794
0.592721954858868
0.598160902179119
0.573400521882597
0.599040299047777
0.581869164369099
0.584627897633967
0.574245888419533
0.580769508902466
0.565714700906458
0.563262124946641
0.575904700235488
0.565797481900548
0.557939787633465
0.558645406968639
0.546639597516457
0.552913510747363
0.545139177609134
0.552113278215287
0.540818377254233
0.552084795195265
0.547284652560317
0.54021199207283
0.543676879711508
0.545769289143536
0.546441904123397
0.541316803151773
0.526187741377533
0.53615390999709
0.532489027397575
0.536732860934456
0.530310492679773
0.523637162175428
0.529454944915966
0.531538055245127
0.523750274485864
0.52307665911242
0.526756965453383
0.519417812596271
0.527079763112301
0.608848041865176
0.535302873240796
0.533022390567589
0.505213009255904
0.523998333303708
0.487967233041015
0.522044485270106
0.56920551573364
0.542489007214848
0.502326515450761
0.497022508450436
0.488488481979145
0.522075416981035
0.488411180160639
0.492644729133508
0.469534484658418
0.476606687773806
0.55104261681497
0.548921627897866
0.661319354833717
0.55082379912929
0.504600967221903
0.446214991574106
0.519680849659302
0.503708538593119
0.466963526669085
0.454601631339198
0.446609612872299
0.518933253850744
0.468337613484666
0.461693307632765
0.442749320886788
0.449030835015305
0.47691584872645
0.485779346124711
0.464328814259227
0.500915010687299
0.486883799547759
0.479070657842186
0.496279076063657
0.559546534632436
0.456699041773578
0.424649508728514
0.42440344668649
0.414104301649962
0.453356931463542
0.486045908943798
0.431773872358388
0.436402011142154
0.394192879356916
0.404975648850134
0.397933077097982
0.43923942757584
0.394305187998769
0.439815240482516
0.421700047831578
0.389303140281442
0.407616462985189
0.419720841813035
0.469681479071823
0.450294845703724
0.396332853805071
0.371670449032051
0.450792654537587
0.414152865567942
0.400962234536814
0.38718576041407
0.351821421357721
0.389922320515165
0.38351978604238
0.36137019847817
0.396686952199542
0.382074439568587
0.410294114284746
0.43420369880703
0.459793488222281
0.430623805835448
0.360651109470365
0.346701521378887
0.341509960965669
0.350719064601954
0.341467785169404
0.340706348689102
0.40732837611643
0.343258130938526
0.378617733110909
0.391313624237666
0.364063525215351
0.355138265600889
0.351083916287222
0.352423575199382
0.367093262562869
0.400913166091695
0.430832261348694
0.381577434648897
0.408511394280848
0.39722150612929
0.387269256035348
0.381756079926365
0.389119702803562
0.385310800562428
0.399705786753119
0.418367590179845
0.415433929947108
0.422748880187021
0.432303339784582
0.418606072030074
0.496416865120456
0.469668477627142
0.469227504401298
0.496907604558191
0.500807191518786
0.570295558978461
0.497685934692307
0.506735144651348
0.501543105479781
0.516230953734886
0.516570499760951
0.517387601587112
0.561529934296043
0.577775728470228
0.557345593563037
0.554217336856806
0.552732958628808
0.56279932881986
0.570738563300203
0.62354630463649
0.604706820714307
0.724120505535633
0.635235629237356
0.647991516118033
0.595705835958921
0.60504694963697
0.609559974915994
0.606870994396333
0.606270649561736
0.598519345086484
0.623215537881932
0.648044003641299
0.608936730635202
0.621298367693193
0.615611773725186
0.621909450640411
0.615832270949776
0.638578800606132
0.63737152055009
0.647740113255716
0.647886481415629
0.640393727976485
0.667242387430125
0.762655533934222
0.682187952465948
0.677856060392218
0.659085828167441
0.694152182287555
0.676629244120641
0.702167386486631
0.705487918059745
0.705428003089427
0.687461286510417
0.698793468515314
0.715522415457176
0.701960652295245
0.736116134388755
0.745546150994966
0.711570470027832
0.735261974106007
0.708640945265444
0.829014734366072
0.782575299455656
0.782611327967625
0.755492987882196
0.773216438168047
0.743443109454568
0.760662174534445
0.744323921526592
0.762551848045584
0.757811930045575
0.754951550892745
0.76305649302909
0.764522028401943
0.763142845793205
0.763732224905156
0.76228650829848
0.798793567616719
0.757679989538332
0.754993196701492
0.748073704264817
0.76467756945423
0.753334249382167
0.811954405656027
0.77283413764521
0.783673839384112
0.755480098970102
0.775539394599913
0.781086922452619
0.783287546901505
0.740961955459668
0.761785312770487
0.745284125643553
0.776650776003751
0.751593866127778
0.797602877638771
0.794167518134857
0.785597685259228
0.763434711443325
0.780911107000531
0.771276763463093
0.781035907767709
0.777469284935077
0.793410681240951
0.787034309650353
0.806828307589258
0.798417205744694
0.80029904510965
0.816524686520743
0.81160786590064
0.832706433975659
0.833875130525407
0.80513239961145
0.811004557608466
0.799560130291098
0.816033987302171
0.811378248426081
0.795553834706267
0.785239682621258
0.799343035420412
0.757020668861007
0.798013599935617
0.815049764423791
0.782384359633464
0.780822991868536
0.76745150849779
0.751981193160428
0.757620032987809
0.745156747215091
0.736902787549379
0.740522252009501
0.740531712006469
0.726342224262816
0.731424831641825
0.727813109037313
0.724011944033804
0.723340928614554
0.717297758790819
0.717844679087668
0.710876568566084
0.717205135227895
0.725524348416637
0.711841686854609
0.716542310173736
0.716788776729899
0.711931693326297
0.730692034270006
0.746077370959704
0.739626704846022
0.721117207901755
0.721960177692524
0.717463800763856
0.707215169697322
0.712666592362967
0.701104701023656
0.71861249452006
0.705850030995551
0.709186079172852
0.69979578392096
0.707637835431647
0.706078925240423
0.70347318008082
0.692000823275986
0.707689102275811
0.698355411368585
0.702869275840446
0.700200610287302
0.703095104623476
0.696264148993261
0.714610419415707
0.698900364895757
0.709263077909017
0.699317352023544
0.702341749181484
0.698570725566944
0.704569202811837
0.699914883218154
0.70453936604802
0.695617405569673
0.693721197345193
0.697486077105424
0.701199206731245
0.6886636249458
0.69160730452527
0.687248378626693
0.688127420614578
0.680460038424232
0.694549531479471
0.679621464700263
0.673363296897101
0.67203038731258
0.670279761968361
0.658809708657033
0.660489634165356
0.651358244189157
0.6524791935294
0.644548084450662
0.641153995889307
0.636682915401698
0.63480373669142
0.623214968268506
0.627749581433315
0.621333788709918
0.629729272527136
0.621547944612063
0.617855442215953
0.611817835822711
0.612944418534464
0.60795554943208
0.607644662244879
0.607657331456541
0.609682329115875
0.600046254791961
0.612477062158996
0.610171599553216
0.610736685474143
0.611816981849934
0.617668191166251
0.608595849083146
0.619578785090966
0.615929469258011
0.622007243268958
0.620911802739562
0.623629065198711
0.629838470303383
0.622202527073797
0.634754745093439
0.636220331932746
0.63793015535194
0.646626201344315
0.641100291679955
0.644426915700417
0.641153583704667
0.644407686454863
0.639803365413294
0.646675966126019
0.643003702033913
0.648783814471718
0.645785542037097
0.648861066142003
0.63895604374785
0.645690023681749
0.64265068734082
0.638848936989793
0.636886055072178
0.635083840791907
0.639465455028568
0.62621891510632
0.635941471474758
0.633498452620619
0.625231502500087
0.630953382593567
0.623022618014597
0.624235265441566
0.617065285932797
0.61777612973797
0.618565621026069
0.620274135503687
0.612222894582405
0.612190026723114
0.606176082316865
0.608606820111851
0.605285319849512
0.602344004083242
0.601364426578435
0.601447235610511
0.598908015983273
0.598999353587607
0.595705777532952
0.594716465396038
0.593516427249553
0.592156951100618
0.585464402296271
0.584424672387161
0.579847509077647
0.579746804230942
0.574895783925392
0.571717060933998
0.570392764558898
0.565362993218793
0.565714001928917
0.565503211575497
0.554613101192793
0.560156781920271
0.55164209399391
0.545430776912565
0.540163041788215
0.542304960945774
0.538381869177681
0.533156072538404
0.533041914528052
0.531357923686854
0.530079177903235
0.531852784366644
0.52530932728414
0.525191298815962
0.522311342072251
0.522908748234003
0.52168139642132
0.518476980174474
0.511335745298815
0.508099630403431
0.503386865642935
0.501458593498758
0.494645447473911
0.490046845332427
0.479286620977417
0.477804180996612
0.46537704297302
0.468633658575073
0.456189014186813
0.459312553358212
0.45900898247353
0.454294837325726
0.459402278602497
0.461832115881241
0.465627106476211
0.477796451963206
0.48145555349868
0.493582519954467
0.506910881031235
0.517833142249794
0.53467539344408
0.553320599128996
0.568001798282064
0.587947352600737
0.609016384002875
0.630981808333351
0.65078305620685
0.669530494244238
0.690650452751035
0.710995507405615
0.728632943860433
0.747532128186784
0.770429501470353
0.791758094073069
0.809826663130051
0.830057495987202
0.848872095406569
0.863353393318416
0.888049112732435
0.897366328217114
0.917690905717155
0.92748103149376
0.941338071733071
0.959917674025656
0.968256086253482
0.989491676984036
0.990030103358983
0.995760886292748
0.999185304648616
1.00608823040015
1.00701530390622
1.01376993296482
1.01481106961997
1.01032011513032
1.00559431044572
1.01424875107901
1.0033422648177
1.00659242105864
1.00659516374919
1.00482136687074
1.01176916455161
1.01415212214007
1.00512593220502
1.02516552727778
1.0245879803955
1.02824886165114
1.03031241419891
1.05295474134787
1.05163252433204
1.0507231422793
1.06802451846777
1.06641808749303
1.06992777710972
1.08806094688782
1.08821506800014
1.12068864360013
1.13355126635667
1.13788546406353
1.15494076896118
1.16655262975373
1.18384349894176
1.21162766550876
1.21158077190027
1.21424884499661
1.2245636089499
1.2647973226534
1.22795296538401
1.23707190394666
1.25934695839696
1.23609334941478
1.22456979222976
1.25617523764677
1.24457132221196
1.21473633165516
1.22405466512018
1.22808706768712
1.21148120653752
1.22184400270417
1.22519956303169
1.24734661831254
1.26085183667988
1.28664263938746
1.3088467855284
1.29128421081441
1.31988498917278
1.34970498207723
1.3273575683127
1.34240648459196
1.37077151007704
1.39620194625517
1.3689349366614
1.40577308914447
1.45862762568969
1.46052966592776
1.48737950047656
1.49891160636725
1.50981906973112
1.5604340019273
1.57838693344417
1.57067048586393
1.66862179335255
1.65093366360927
1.65596229774033
1.76456043395548
1.76069266582012
1.72624864004287
1.72125440728782
1.80002992099073
1.84272513448521
1.87088434267712
1.9364257151419
1.8957249368608
1.89576253089112
1.90184921533595
2.04042361948039
1.87521062573355
2.03976699674999
2.01082192712775
2.15132649627445
1.93452484650678
2.2081896885364
2.13787413882411
1.90235481276789
1.97353390115497
2.10021465179891
1.95834194596844
2.05634762152127
2.06571608476612
1.93617710312531
1.91666578214346
2.21496958431604
1.87722106941911
2.0473801027863
1.96897216920697
1.96852491251537
1.96734031781387
2.22428907597217
2.07243132038966
2.19892045802378
2.15063394045933
2.13292806982381
2.13611139048327
2.32317301323487
2.1566191369939
2.32800189533276
2.12390009280587
2.19728341642911
2.2239791227531
2.20378470588191
2.21949730950506
2.44198921085469
2.17494703882512
2.34545243277523
2.20635113277039
2.37459476073739
2.70323836384223
3.07527532086545
3.16877318727882
2.80571999391347
2.41580103645503
2.44925414522813
2.96879660790039
2.72159934110861
2.41352015611753
2.71058227871511
2.69059365869428
2.65123553732055
2.39138864207154
2.51798346342324
2.55064618066208
2.62874929090869
2.15580240022717
2.44078603055202
2.3140885534704
3.49630186118213
2.58190523120294
2.3440825184812
2.11700960768594
2.29681571928906
2.42036918628887
2.51941320989931
2.17912945862377
2.03017939923264
1.88737713819008
2.12053846642867
1.97964116118518
2.06268734400736
1.97857566923604
2.11887823809669
1.98333685127576
1.911861122229
1.93782949158723
2.07666138850923
1.81969247058778
1.9523031122569
1.84579261047672
1.84329609364832
1.79564464262836
1.85180250446645
1.70325500406153
2.00326808502452
1.80706464006035
1.8251716397418
1.69665416298072
1.68277576481262
1.60770020531036
1.60735606932557
1.59350031656578
1.56095239932302
1.51141059814179
1.47719749129396
1.43028981717198
1.39938073245392
1.29993496554043
1.30786677223009
1.26902018153833
1.19607956581979
1.11848196610253
1.13522393650578
1.06022753679369
1.0213856041844
1.00327222069289
0.956280073933461
0.916002828563552
0.904974160468732
0.874396810524553
0.829483844759175
0.814216769230079
0.778835194002727
0.768641728401463
0.764318245659339
0.747181121425712
0.728010771346792
0.714412464997943
0.725923304051461
0.699795731827907
0.706559520287107
0.702817952736458
0.691083359067832
0.69480637024888
0.689365189645475
0.692933321132003
0.694315389263854
0.698331088348406
0.700209128533034
0.710577025038413
0.701794502763212
0.699393075207012
0.712007265737135
0.697944084404384
0.712933146887312
0.694992341858052
0.700994427990168
0.683538765952099
0.68364006084933
0.689215714481387
0.677419948042014
0.66890344660612
0.666733668570015
0.656471747561336
0.662556933287413
0.673027748175948
0.667396081352462
0.661366202102847
0.672918277485564
0.664836229779431
0.669661545236132
0.675285234091708
0.683055872520129
0.679183106668596
0.693606473125682
0.677629704894268
0.673790024568888
0.687501320357401
0.705439034050365
0.699276200092261
0.699134927125354
0.70994615587776
0.704789153271032
0.708277416677931
0.702062977327446
0.714956867566675
0.709720576220805
0.706655124625235
0.711893040252467
0.695355089585545
0.708107036441915
0.704466375475026
0.711829497387917
0.703999780749452
0.728629295993669
0.729855830387336
0.724998436474816
0.735531539331425
0.759884252842844
0.768749536400904
0.798702874538614
0.790389141268547
0.802700158484866
0.829405623311257
0.854276697564219
0.883750216719185
0.902487115654424
0.881878693787533
0.913549303669634
0.897580589351304
0.89741270541212
0.885860752493057
0.884907011800026
0.887882808117283
0.88448305689743
0.857560528661064
0.83711580512471
0.816668952116436
0.829027338188594
0.824484602052483
0.830237574309529
0.8104401603677
0.81420142864774
0.825062064745469
0.827445393062271
0.81653874981382
0.835314731068835
0.83083828649048
0.820438697488998
0.803541481161527
0.826207198661054
0.819191807365483
0.807770526013644
0.803631302200248
0.799139061942066
0.768834678603999
0.782238174228005
0.778204583689012
0.782493526528413
0.771308632474145
0.764728402611483
0.745111506494178
0.748547469681483
0.743915139593138
0.745725915703373
0.735791628346532
0.75192044347349
0.754003424867529
0.753568665723931
0.743643788512644
0.748282913685999
0.743502721317076
0.726460608518166
0.721776837244129
0.736517925134704
0.735594943742036
0.738674050993274
0.7115798533806
0.744863666802
0.727733393643704
0.700705746817939
0.715293445392937
0.741369828920226
0.71260414660766
0.719074964942579
0.699138061945841
0.70678993219683
0.684531115031219
0.703191058522103
0.681988972326842
0.709181165218313
0.69742129650298
0.704045499233914
0.695628837757751
0.691417105747532
0.699943609047883
0.691543525030937
0.665003971312093
0.6898371060743
0.71289786793193
0.698241214722376
0.669987585041348
0.691226971077402
0.707446584311316
0.711909054394565
0.660541478653116
0.69489179385694
0.713501209914627
0.694273086974251
0.6906073343451
0.723573658523305
0.696923163810953
0.69973886511425
0.72183139477518
0.723325822503372
0.70812848553205
0.729123894017285
0.746975686592729
0.755825029300292
0.73222252552666
0.763282029485173
0.766499619260553
0.779897416932922
0.766237503543394
0.751690334035828
0.763617196508572
0.801666591344319
0.791211705436703
0.810528954483591
0.806589966064286
0.842787825434033
0.835268159442371
0.872277576181415
0.85888076080698
0.908263553452036
0.903069073216795
0.969695521586295
0.972257901432326
0.983173549759108
1.01255670420847
1.05132208622815
1.03709932179168
1.04158889252655
1.04419339785178
1.09413284720453
1.11564123279646
1.14379359036455
1.13761048078759
1.11838468535648
1.13571722247732
1.10842016930752
1.09607216687736
1.16631218137704
1.09834872241925
1.12355705105591
1.08837574230632
1.20846664587166
1.12409919108378
1.06416711742599
1.14999090495443
1.12836793086673
1.04943715181509
1.09807952410548
1.04736578181023
1.10628332529858
1.101809261823
1.06907959579504
1.13459185591054
1.12241736458531
1.0313043169069
1.08808419825179
0.986467508454887
1.05017847407825
1.06137041517154
1.04897211529307
1.03393775648062
1.03912057398562
1.0093703196153
1.02562175692553
1.0744647020865
1.01248074255369
0.970386299467172
1.01956556074286
0.984790531384619
0.943444057002646
0.982747839086339
1.07723333756477
1.02375260542374
1.13739071463601
1.10286632427833
0.9763698547678
1.07202454979033
1.17371720486482
1.0406662069368
0.984878029150882
1.06354283208855
1.13272820608473
0.985308175153277
1.12267202384113
1.0964245360277
1.03379792494021
1.0912823467008
1.11859330638955
1.1193456904234
1.26432082101621
0.977795829629442
0.96935264225307
1.07480676873461
0.968848886000553
1.06663851544231
1.23584260609438
1.07545036911075
1.16547596983342
0.925431407948008
0.956212489408203
1.20840822663708
1.11511558565222
1.00733280017824
1.28915905768844
1.21045444277357
1.21717699289859
1.41413964683871
1.47481927165153
1.27797940926944
1.20561781952338
1.23291542231026
1.52738049276375
1.46114866441282
1.53359545535796
1.48969859962488
1.60941903451472
1.29759065735161
1.46114937236423
1.29213597023228
1.58449696942548
1.54913818763585
1.0463220430077
1.12679884052824
1.22972135483077
1.19633099723474
1.63560946876013
1.47807781489317
1.29292072107546
1.78614191356903
1.36405961741703
1.37144230199567
1.66912494321725
1.09489062671183
1.16959820390189
1.45839525281723
1.31776107889088
1.11478550806653
5
1.31090906078118
1.0429480987787
1.56757193023915
1.16163247569892
1.21432080345519
1.55189922652069
1.41011986284603
1.58240981589989
1.17690574014386
1.25139448726363
1.21662300555754
1.99681527493228
5
1.61022906347014
2.65369004639286
1.9284195745172
1.492190731155
5
5
5
1.28253017973867
1.35088995690861
1.42848991459547
0.975892667257701
1.19405451702401
1.40788997656273
0.883902203368124
0.809233943325952
0.778970611964372
1.4204932536969
5
1.53083724702128
5
2.23934064145861
0.760806940691619
5
0.984841676195568
