3596
4000.36533379555
650.420452594757
1
2
2
0.100105778164437
0.116414012418515
0.0995978548945094
0.10817450999662
0.0999809285087798
0.111918324536291
0.108708328946015
0.107605985379616
0.108768975447179
0.117055644393147
0.105183362333178
0.105674450700109
0.101488707907617
0.104789042856142
0.106303513684333
0.106420102157048
0.0999724885175556
0.103601617414932
0.105002244170242
0.103091134811796
0.0994761709518757
0.0992965446160443
0.0965229924345672
0.107267993602137
0.114893849997519
0.109029579679836
0.105977473360937
0.105769206237995
0.101055172110687
0.111141337294589
0.107023516489103
0.106300875856594
0.107506031474266
0.110725496929443
0.100689791756399
0.107213446079321
0.100587108141415
0.111121328405342
0.100879636597518
0.111187712944702
0.109193657792185
0.111438297184314
0.106319935498996
0.109741907938432
0.101112798543497
0.109132222603745
0.100099605607151
0.110781256749146
0.0994711164090594
0.107405198983051
0.10574688877373
0.0961367722781668
0.132552516407341
0.1148608665887
0.108869799751252
0.121786966604096
0.104636450575657
0.102536233801769
0.103972067278054
0.114656935844162
0.132531750832814
0.117043893374188
0.101210664813917
0.102261713963099
0.0971202150671712
0.100656033079146
0.0921052544171699
0.11003173396104
0.0943230353467599
0.111322349974884
0.0963760442980153
0.137202158979578
0.109603455723615
0.106797196562633
0.100092921369343
0.113068301579755
0.0981304316173445
0.101468410627446
0.101047582002791
0.12891392078424
0.116518001129045
0.11173623238963
0.0934305882915202
0.0987158926445719
0.10972319913954
0.129319310081212
0.091924983611031
0.123521779405341
0.114973649255181
0.12020123128421
0.093941971986959
0.10443472631254
0.0963705553191289
0.105951491915512
0.0961211581247654
0.105191609517613
0.0904141175502655
0.111846938554355
0.0876913459157688
0.126357597039023
0.106861866107849
0.125287260640323
0.143203591148368
0.102206411569576
0.180784129272612
0.108293994618781
0.115439838843544
0.152600401382297
0.110401880135396
0.114959416807257
0.0875275730699818
0.108479921199054
0.0949253270191935
0.122128251160836
0.0838347729010789
0.149155649089897
0.120036913447026
0.109635664395826
0.0928613589284762
0.112055479442938
0.079808690337481
0.164530220846953
0.116531146867012
0.113195532622832
0.106607045414996
0.103821926259416
0.0995517407424882
0.167457423648102
0.115921814650744
0.10322943130968
0.0961587097510291
0.102091855688767
0.0867840058103745
0.104906051869654
0.141642838055836
0.106859793130349
0.0998496532830168
0.0984625187853256
0.143961267040563
0.162875198150013
0.108350710167581
0.108360374277716
0.0846615444306583
0.123355319082745
0.143812152916286
0.112538110314397
0.0916336331857747
0.122904481514464
0.10315460238193
0.0927437411718569
0.0903401528950978
0.0919046270429292
0.115456611331276
0.118479368180293
0.076894033673771
0.214353540270514
0.158784841737203
0.142249615191746
0.153143307841325
0.100382968630381
0.115263282322721
0.0896216451245444
0.0962021811066963
0.0905697686143705
0.108958036830462
0.0850936961428146
0.113876534931511
0.123805895274478
0.100656129679746
0.108468076014035
0.135218182575806
0.122246748966878
0.0990494682690564
0.187663427080965
0.0908541705985003
0.106157566970936
0.130802362160352
0.110246028129246
0.0899049481256129
0.123894873334891
0.126344478238182
0.0953693078097601
0.094182739046072
0.0937442712963116
0.108040747760257
0.122896203616212
0.0970022438044215
0.0978584291681822
0.102950150216577
0.0935455634550988
0.119806163287923
0.165860492528381
0.124733415631608
0.104542509618475
0.104068725638134
0.0652989051937042
0.158136055066616
0.129428377367723
0.102559695111672
0.103768167687078
0.0854650657854148
0.0904168732610552
0.0824298535969998
0.0955779875984393
0.0968258551841348
0.0798588444952404
0.153986399456974
0.0998931139777565
0.103558671416092
0.0981978472353704
0.105217044975662
0.090955205635632
0.163676710130935
0.121340042110662
0.0974779377220038
0.104035401842433
0.0931515489630574
0.119784898963903
0.11605495597157
0.0991623866003972
0.0978218427632783
0.0952127921191416
0.0939027552052369
0.0871511354623788
0.0910768541003825
0.0953698588203587
0.0936348291246482
0.0931817690285936
0.0887503451036663
0.0951949843055396
0.107423048926988
0.0967643686368005
0.0945661392945173
0.0991991297663594
0.0823138941342271
0.123526874633633
0.125379105309909
0.097837609668074
0.0967642426063144
0.0936697283209141
0.09530683637278
0.0916198842073188
0.0922095697232381
0.0962381309232177
0.0992823012156226
0.0884881467323741
0.134593853920484
0.0937884681166899
0.108864706043818
0.0766219549794555
0.136353311116354
0.100640387659955
0.103708342444729
0.0887577137935872
0.0960999179723697
0.089861392818342
0.109115761671282
0.138066552936289
0.106177550898641
0.0961806186080042
0.126805123816454
0.105956297765826
0.0985305884697374
0.110805034554972
0.0982894338948218
0.203213430461066
0.111875692026357
0.128839770550027
0.185051391820034
0.108985815470393
0.110277163146511
0.109788935045313
0.0987440951012593
0.259094936607666
0.151118119607004
0.104888827926444
0.109908555952333
0.131088990781913
0.0902773517029247
0.123081673961938
0.10796065925301
0.136207192834755
0.137050416213463
0.169074722603239
0.191958378502338
0.0860224654262307
0.166188479978314
0.135920515602847
0.112272320769355
0.0940632614359446
0.100841669358069
0.103954450941996
0.134165854335643
0.130776176769004
0.13064955853132
0.114605538457847
0.108099092659284
0.149552576061585
0.113117898446003
0.110324454795072
0.121699879908205
0.126776541383452
0.0952059271053028
0.115822290315081
0.09982426174547
0.125153323582388
0.10110178330489
0.117212370754037
0.182832510751322
0.122260895527905
0.114956025419084
0.1583543576256
0.107776763381476
0.115815853012727
0.100155472943997
0.113929671116322
0.103101439767536
0.106252853520064
0.101629101225599
0.159406763274721
0.117093607366178
0.111947410810611
0.109710539308624
0.101261070871306
0.108016652495829
0.118295725786146
0.111720603118176
0.116243782221293
0.116397194527753
0.113865969238995
0.146052893127972
0.162643560239576
0.106872744795427
0.190444795630394
0.149843252366016
0.124540684913258
0.117879863476989
0.107702488121494
0.119371331746998
0.114555768090481
0.127921281610474
0.120004045635765
0.127959353240322
0.148167005558034
0.150954944089785
0.134049966632029
0.147031993524391
0.203408902034955
0.207458367684225
0.136300496727881
0.139884994756197
0.12068566793489
0.196382087988508
0.173871752840514
0.166108763413576
0.17943831231445
0.138171833562095
0.155779345695714
0.131717957761622
0.153652892940565
0.135747554718982
0.158786682107135
0.144490160849113
0.161863564685627
0.14868519124269
0.163941726009267
0.146790344908717
0.175668558779
0.197648572185926
0.170961991008783
0.158957292980846
0.172751203202449
0.152866541954337
0.226076596885276
0.203913766380657
0.250658105105321
0.218114159271047
0.224711702157051
0.233512569069622
0.169257584382711
0.19172039738862
0.175869853668733
0.188529434939226
0.191522164389036
0.191813430309373
0.179623928033569
0.194465719089882
0.197968087460943
0.199219233622638
0.201045192868951
0.207136877533074
0.204473409270808
0.229520899346268
0.212613680451685
0.217921244547575
0.205386082797655
0.268441665591539
0.296506396028401
0.272214136522626
0.231531179877102
0.240905804024869
0.231364655797004
0.225923470303174
0.240554855121596
0.239691773292959
0.252622303968507
0.253442393047685
0.309615180909418
0.267061413858385
0.279332028386387
0.274189928740252
0.242731687049159
0.285597378902006
0.282995632702767
0.284781006255486
0.305249670686758
0.28263455295155
0.261065576573472
0.312301578262161
0.304765410773781
0.286382202687913
0.320039607676458
0.285413669485631
0.295135525409686
0.286935921060308
0.323492931754348
0.292894751003192
0.323532053488726
0.312918796443831
0.316808864427147
0.315703085748531
0.328071025131226
0.316778991217782
0.355223386179851
0.331728547021987
0.340936405884034
0.342034693409596
0.323679839824633
0.346469616281976
0.338469334412634
0.368311466381337
0.398120360197347
0.383077654909284
0.405248660937906
0.354118599751759
0.359949718782952
0.35277479260176
0.382374867413636
0.36925546691691
0.377142286846286
0.389777753694295
0.401377448968114
0.400289669806804
0.402314807368039
0.391336391195215
0.417409957627082
0.402630906679843
0.413357483438401
0.408921123717333
0.419086738592761
0.420245167660448
0.437138904036439
0.480044925796494
0.499112826997132
0.474771620629528
0.492632535055442
0.441047241192181
0.479287003247093
0.444533812030258
0.467172952688775
0.46610826611342
0.498416994973646
0.493225342524981
0.485106888036113
0.477041429752013
0.497513344181621
0.475522666629553
0.515804189154643
0.490254257471338
0.5505998979025
0.527886485863278
0.519108341966305
0.516064274008819
0.55152695826292
0.532411190675509
0.557616101393806
0.526295544573034
0.551501828765757
0.545436383366644
0.566798468928065
0.55598000434411
0.57985325527743
0.561638098209789
0.582552061781786
0.552829971413089
0.569590843878638
0.572632708955318
0.625241029250048
0.578394255712555
0.59599608735566
0.590334499786671
0.614050910501588
0.605556313038481
0.645030167754119
0.640494780099742
0.639946783007677
0.619313978642363
0.628953333127601
0.642538870837048
0.664033986676124
0.631312745166961
0.678203576774939
0.660968957702296
0.665148617636895
0.653741647353986
0.703461833832647
0.653805717712704
0.699155393560495
0.654804855248849
0.683659683246049
0.693004410708999
0.722373706820847
0.720597168899025
0.727525492444442
0.724477120892391
0.751314745375193
0.711081317144233
0.743664655423046
0.700265533859308
0.710240979997763
0.747541534687102
0.738043817406249
0.734249469443324
0.787827940058298
0.742927638752242
0.752364746509351
0.738948695542198
0.787328785878026
0.759154445359933
0.831909408779417
0.81290810281234
0.841440803469351
0.810489770922817
0.823372272614128
0.805359802062088
0.841154693249316
0.773300151066075
0.796933879434887
0.849841463144807
0.868864804893923
0.79615024490293
0.862641500644333
0.838107278427849
0.860705170089667
0.845368636224131
0.884912367652657
0.830454492122192
0.844728261456527
0.842946857358633
0.924938814637527
0.912341149672046
0.915009729271472
0.917131533856475
0.929197274450666
0.880179042990316
0.908098404098487
0.893233207441424
0.926587382935968
0.903344432808191
0.918443566372266
0.933045255984822
1.02397961588221
0.989984847899064
0.948520700146854
0.943647773414773
1.01731615296272
0.935189566995904
0.959618618347122
0.975529181599937
1.02005081083807
0.997200792354747
0.965710810343971
0.98184639260585
1.05010315193573
1.01512876072333
1.03691039293558
1.00471354455772
1.01876480663405
1.01144848653867
1.13931796249774
1.0688745090766
1.02698607529384
0.987312031891792
1.02579776458555
1.1153387103126
1.11138641245319
1.03281981450908
1.08363471883012
1.05281050069369
1.12886370413696
1.05274903649533
1.14783883709403
1.09618724100292
1.1186719806735
1.05835790256312
1.10659579740782
1.14566035453982
1.1906445842787
1.12426306793913
1.18659972862457
1.07401487086161
1.2064898267646
1.15032441923286
1.0868051743761
1.18620066505403
1.23155708819317
1.15864891959021
1.16109054555445
1.11236574720981
1.22013130041843
1.16328714985738
1.24377697752498
1.12140318483715
1.23684766607124
1.2275319590802
1.15323885475884
1.09792850888164
1.18568521263023
1.17762749955622
1.12238438337363
1.21845486201883
1.236413867583
1.22946752182567
1.21398302795162
1.23546135500439
1.28479594120305
1.19593032958474
1.27173544272139
1.24450071183762
1.3010334036283
1.22568317056819
1.28366424658149
1.14770436227103
1.25059430156977
1.26795509393748
1.33281919852194
1.30578822036083
1.27104636405282
1.17268634911964
1.31462395482447
1.28317878838751
1.29521063533136
1.23936956228609
1.3680059619691
1.34932737707186
1.26551526148839
1.31144513865554
1.33740847163814
1.31608876673248
1.32490403336501
1.24510841987727
1.36656177435764
1.39489413609904
1.36727097131379
1.36432273832551
1.3293235834048
1.31830013542918
1.43526881960545
1.43237838935557
1.42861971714262
1.33662466259995
1.43090326125356
1.3378971524949
1.30384834032736
1.29455231831865
1.31641679639837
1.27980247866465
1.32130542655023
1.36775737114631
1.41243805362142
1.41981467464743
1.3521079918004
1.38307537767646
1.56129313404125
1.48395276550927
1.45561272259522
1.47158026424968
1.46802875305391
1.31796134720395
1.47494862552984
1.49197616214141
1.40995916752171
1.41386116386345
1.43424801395322
1.44245199880183
1.4668064731492
1.36409413901196
1.34842868712816
1.48278464719334
1.49045541206442
1.41611650527499
1.38841599530964
1.33483250608113
1.45772366832956
1.44175010861031
1.54256052185969
1.5021522104553
1.45475241202679
1.36825697573004
1.42165149855072
1.43403382942574
1.48131037154105
1.56786613031978
1.52850881163758
1.55049429026119
1.47453189325807
1.51864660347713
1.47602897044496
1.28640374929583
1.40132519058326
1.51843610096266
1.51582218574334
1.40690245052867
1.38898048917627
1.41119437062765
1.38117646054594
1.44569827880787
1.42536220046014
1.3883344619759
1.48233045964173
1.40106546401263
1.39453872512115
1.45655076654965
1.53369258502228
1.47240136459926
1.46621684655864
1.42579884921831
1.33808615178298
1.34264452369218
1.50181560325666
1.44774264607972
1.4484603147258
1.48121074081455
1.4149662433013
1.36772887426102
1.49455499441042
1.42003317207491
1.43990596660813
1.45282200302861
1.59741261195954
1.50716571100185
1.44126487850723
1.58665531617485
1.46677606173771
1.45428916149541
1.5695119397236
1.45751003216386
1.35900228079749
1.40094726936373
1.40247023614252
1.36261932337897
1.47765731194635
1.5441809315618
1.60232890358699
1.48234398929405
1.43727754034783
1.45474363720593
1.54108243837695
1.55820257188961
1.46581410416627
1.41818268586728
1.37550840238611
1.4244385202783
1.39534204656195
1.43226983524595
1.4908330550526
1.4191872148533
1.52027562553409
1.52960240726215
1.44404871677576
1.3775173469695
1.45925455768819
1.48613490035823
1.47135161619159
1.51148412361333
1.41291674012297
1.46569090686154
1.48847845833558
1.40534576235904
1.41630190836436
1.43574413078437
1.43545030434226
1.41014657702826
1.42068729435494
1.35748739002499
1.40307450354376
1.43044635076869
1.35822517739853
1.45217782600032
1.42140703972505
1.43395068795392
1.52471025584599
1.37139814785315
1.3589503674623
1.42303700951988
1.38302664776939
1.40706989759658
1.4089020846467
1.38665494867196
1.43250727627461
1.45568553112089
1.33627308901357
1.3712260427951
1.45185153540929
1.38684055000326
1.45676330392373
1.36301528437594
1.37892571677499
1.44505548250947
1.31640103467891
1.41269554141575
1.37376548504294
1.39964786925225
1.39762009810204
1.36355868943926
1.49085339182663
1.37416651756877
1.35979671918744
1.34746128680619
1.26442488108651
1.38201976601255
1.34467590389288
1.29532906487208
1.39255695619609
1.39043119106759
1.35020997987399
1.33860057650527
1.27896156849204
1.2473373270209
1.29112293298652
1.31694300333224
1.29715046550415
1.30604965144842
1.33336327138306
1.27159089611954
1.28226222200571
1.35325692811499
1.34758705491204
1.35294248167246
1.33582731633036
1.29134389892477
1.25944296119504
1.31216842139918
1.23231824882237
1.21394669613276
1.26863507367705
1.25840498923125
1.24283386031056
1.24147749032793
1.26898157419378
1.22657287605968
1.2658318969336
1.31843276605184
1.2320753653048
1.21721601161885
1.25871134738412
1.26405419046075
1.2208948417105
1.22609051425131
1.20401736028128
1.25240148373741
1.29745730382536
1.17854799107702
1.19492960010188
1.21805951622487
1.19627856014534
1.18819799097955
1.14467818254402
1.15881835376667
1.13110280299332
1.16404455452227
1.17646228103162
1.15560153318791
1.12368606612065
1.1625194318045
1.15822970316983
1.13377293465186
1.13199622106856
1.10848716672402
1.14071686956889
1.16379590653561
1.12277435861658
1.13949758434974
1.10767824695195
1.12953201345878
1.08202739329909
1.08446171548936
1.10671021396663
1.08710103441988
1.07917549755406
1.07613435664229
1.04054433128004
1.09122507840963
1.07432728559187
1.06361565533099
1.05733529666041
1.04228030716506
1.05749410414936
1.02231077012628
1.02730068190456
1.01930027633799
1.01076406582678
1.04593564675873
1.01626054902225
1.03057716278059
1.06241734196536
1.01798989585523
1.00078527002429
1.03974744632071
0.983643547695409
0.990394937166158
0.987916421438858
0.976377280227062
0.975411458211057
0.982587809393522
0.952251519854991
0.98398633463855
0.976196387787387
0.965678328010201
0.933938752930938
0.939526721691632
0.913559192322308
0.920282568862508
0.920383631333112
0.917030295197531
0.917513476437097
0.944745476945421
0.906171662097686
0.897657620092696
0.909234034133953
0.893896781641974
0.89727179672916
0.899903195564003
0.866355070246852
0.875676701473138
0.873213631997552
0.870184225135306
0.879640189401949
0.885316612106988
0.852129943426187
0.859358966153817
0.865578254840872
0.856201514496596
0.834371953349788
0.841229181482567
0.843479636037586
0.835717259918092
0.827963077216374
0.818478454270037
0.795876111847287
0.809357124562098
0.83330778600899
0.807309234715512
0.792352102066721
0.799990855766476
0.801851968064374
0.797652803920176
0.778231257498056
0.784959486487332
0.779944867357142
0.794977097604295
0.774451106871888
0.785311653143542
0.780544052464018
0.764318879879591
0.743849737895434
0.740051909365639
0.741250182905526
0.757347189645823
0.750463170243126
0.769221222426213
0.727009358744065
0.735210242382341
0.736121406667295
0.718576631169319
0.717330482151487
0.723946348644448
0.716479379028965
0.708889471814184
0.697119787452739
0.70931445819965
0.696320855570554
0.71375794395033
0.688516164014215
0.694950255222764
0.693162158981977
0.69932956115859
0.69329808887033
0.667576868126043
0.663121362209633
0.67359134000965
0.660352202762984
0.66462864946524
0.663917312195266
0.661811306570076
0.651117079602456
0.656026009458111
0.649428498391189
0.649304081788586
0.639295043100818
0.644912532254402
0.634870528264421
0.640531744224307
0.629720152161626
0.631401731554699
0.629211890475351
0.642048951482153
0.616811644835892
0.62835252428375
0.612407203951306
0.611504555940405
0.608992592584902
0.603600120107219
0.602868494592211
0.611210999533085
0.602399870551412
0.601443445274224
0.586818280985855
0.591399001232219
0.593924307986006
0.583428307188982
0.568266218208739
0.591822078622745
0.576830341948748
0.570060782201073
0.556128817596442
0.566294142531214
0.564700259800816
0.573852391804216
0.564978048722372
0.549213067604791
0.550504654258281
0.572569613665111
0.54510459379282
0.550013988996021
0.545334875100796
0.545406780113479
0.540448514127702
0.543391360691717
0.541074209264712
0.533565019516759
0.527356859893943
0.523079890552086
0.521353417053951
0.521005249317349
0.515985530415692
0.530507699379002
0.5206562606664
0.528716947580266
0.51695407869818
0.518989058519696
0.519817241832045
0.520743540515917
0.510730346344719
0.515903920317129
0.511198982817829
0.509869830833451
0.504699686692824
0.50775452653146
0.50136292686303
0.511441294439287
0.495346457243807
0.49833403399169
0.49869456812068
0.499410227865302
0.490350000915996
0.501249522758916
0.494695594982491
0.505625278854938
0.492782159607043
0.497716070572771
0.500126998375903
0.502453602729909
0.488439371420509
0.497313280909736
0.497175840827863
0.503368115631162
0.490975455372662
0.492300696174189
0.499368080116862
0.505051967285527
0.494903221928166
0.510062492690638
0.504197940407691
0.512131533428987
0.507350753326219
0.506593414096243
0.498907161158345
0.510887304670392
0.511904702961681
0.525558628806694
0.51429134876511
0.515694558129006
0.518070615207776
0.521579453801791
0.516923077234398
0.522587143283392
0.519715478545001
0.531386791830775
0.529072505697641
0.530972903875522
0.532890943663229
0.539049312277785
0.540013169538115
0.549678173899061
0.531118258111624
0.548680334415909
0.541599440072959
0.549306584163674
0.543625721342017
0.550916976938652
0.54600682709483
0.559491084026637
0.564244634389147
0.574582971220269
0.568575664014071
0.583211991087138
0.568775931165382
0.582893039064734
0.578814386876231
0.585749541642225
0.586963026659254
0.597971410076862
0.593378140628234
0.602235963898237
0.609790947898618
0.614609730272573
0.613097213366501
0.626033573531233
0.627198487134933
0.634729147381167
0.634279172970152
0.635795651203864
0.627269491544146
0.632244403133328
0.63767286164362
0.643722622220297
0.627831115299556
0.645808882202035
0.635279906436768
0.656315523626616
0.644432123910863
0.643088087609346
0.648423479343918
0.649159142900464
0.630665371937139
0.647118702184746
0.640872410390558
0.646556825324543
0.650492340350622
0.649825226308775
0.635046214954615
0.65029840950004
0.632584349786918
0.639769830936921
0.636289942152901
0.641287853140417
0.632686659451227
0.648461576474745
0.6353165807865
0.639062896744275
0.632499867621833
0.642284035302862
0.63363512980702
0.640961847877322
0.630339639041837
0.631643592881085
0.627988727478228
0.642136474153592
0.631524060407252
0.63485491032634
0.628895319501352
0.638647909227369
0.624307053155965
0.635883237638484
0.635233764721199
0.637677285292849
0.640144740242603
0.65044467159959
0.637533224901071
0.640461689383083
0.633753331049761
0.651675712562041
0.627443637720088
0.64426009745011
0.623779072362819
0.64535354888584
0.636404408084226
0.632424618613336
0.631901157561092
0.636299196227792
0.624357591660408
0.639035025833963
0.622403271519571
0.630247144158132
0.623511629679355
0.635678504456756
0.62245575280841
0.626831505471042
0.604258019547844
0.62859697427629
0.611438286207542
0.604513401833006
0.605683522753136
0.59765026572598
0.594593976408002
0.60480033481725
0.58486897037001
0.597912629698936
0.584617748798957
0.588201375687257
0.57262409964711
0.582323041543135
0.575842550731653
0.573514357685017
0.557982648900603
0.564408838223939
0.556593223299138
0.551449070885487
0.546186247931724
0.544418008136051
0.533377595836603
0.529014601244733
0.532023803887608
0.525734787415421
0.522509755646373
0.528766213368667
0.511234002789408
0.520382317427761
0.507322730359743
0.521157604016472
0.507596175454859
0.495316547408294
0.495842951348319
0.504564476617287
0.493167537170878
0.490116919024187
0.485317029081919
0.488032277381139
0.47704414233028
0.485483772767171
0.481620953118935
0.473925019924914
0.471289329693746
0.478677813167471
0.470559922688145
0.467464604323859
0.458027273666976
0.462929731631923
0.469637122169282
0.466783735065003
0.457604410043902
0.459902050778115
0.454243612094158
0.459313274745983
0.442178824125426
0.451274086335525
0.446506870938119
0.448336881510953
0.442430891370756
0.450254502017679
0.444524708820233
0.44362475133278
0.434299536107311
0.4358558785197
0.42924969133422
0.434026256450099
0.427342332288341
0.430634189090167
0.424275719869988
0.424588099505936
0.419745191640559
0.419353040232421
0.41379640135394
0.421152731599618
0.411517201549478
0.417930292806552
0.407775678763638
0.409377619653474
0.410463781384202
0.409937385906737
0.411558299518495
0.407714512681376
0.401216706869811
0.402850721622512
0.402912165047375
0.400710503270802
0.394408956925913
0.401724408550534
0.390130027017402
0.399957166098073
0.395253123427166
0.39386825489296
0.395183858369298
0.394296280235977
0.394536293057881
0.391532872044699
0.385483514525095
0.388548050262418
0.381803685906366
0.385544472894165
0.382562384274226
0.380853127899361
0.387057817054748
0.382015713824684
0.380387982995783
0.385000885205081
0.377926397880138
0.380682183848674
0.369985703945872
0.372568615411919
0.371208565753614
0.380751639046515
0.374098698891366
0.377176936773955
0.366108726526358
0.374225149384182
0.372955535361293
0.371787322970679
0.363682797784809
0.368874599561263
0.366987461886708
0.370319345479637
0.365879292638914
0.366962268396679
0.366205819240079
0.359584943824182
0.359211151004629
0.362709136872289
0.361886832978695
0.358518727690864
0.362324727265497
0.361601787995286
0.356087758735943
0.360191492993173
0.357094261716559
0.35586448960636
0.357447683804909
0.352697199178878
0.349723379806886
0.355305920987022
0.351814266133968
0.352751535447086
0.349100916324983
0.354076602591746
0.34803774883861
0.35006626261095
0.346584457384921
0.35130637634633
0.351650717117133
0.354846497219318
0.34891173194898
0.351416470672246
0.350878038878728
0.346402459154156
0.349441601620489
0.346057286752385
0.343588728061939
0.347667199422356
0.348277675105464
0.346832009955608
0.345187611429577
0.345850730224156
0.339856753179803
0.344090107397967
0.341543849047698
0.342655975287129
0.334751741884758
0.344066653004983
0.341410334353538
0.3378845565366
0.341622398497133
0.342387855264128
0.330735179701621
0.341743185751175
0.331137637221265
0.336345560064611
0.332165270762923
0.336285035950998
0.332360463008461
0.336359839644971
0.329400756644245
0.328973090775437
0.329760817830606
0.333527767273828
0.328435464986109
0.32868587374629
0.324108178494759
0.322609603305957
0.320389172843477
0.32720628782123
0.322131143842309
0.320711171969243
0.317776269300033
0.322225070317395
0.318708850028097
0.318818621691119
0.312752335346423
0.319082068724781
0.318559759155829
0.320360522858492
0.313199999635582
0.322380971370221
0.312641027160998
0.313654751610107
0.308652524365149
0.312748665726537
0.312811702700272
0.315883275512217
0.307001153710014
0.309938829235828
0.307322292703129
0.310848407136296
0.301421429918846
0.304559145611138
0.303984079825475
0.30621382143126
0.303373123028172
0.310029391726871
0.301597465855877
0.305022900053234
0.300513770595696
0.30078630451449
0.297610970450405
0.297279708793745
0.298679219320195
0.301520843450797
0.296936110586836
0.298481242583057
0.290776457174225
0.302017166964475
0.291119454995613
0.289093267335709
0.291056343190069
0.288971872572812
0.285141734567755
0.289000157161814
0.286755551345042
0.284676534173141
0.283427102086214
0.286668212965936
0.281508295841417
0.280093044229866
0.280646290303082
0.28276276163446
0.276446874565913
0.278383451553302
0.273333188623368
0.276583928625356
0.273979461308236
0.27678164189399
0.271772232493314
0.272607875044963
0.271433922615949
0.271425460526518
0.267835203288312
0.26761817473012
0.265320493416712
0.269157553626852
0.265290790015232
0.262819452963337
0.262936309472637
0.261543844530279
0.258271983187216
0.260823446967253
0.262027038625003
0.260841331120032
0.252278993119488
0.258492080214748
0.254398510403754
0.257569333329886
0.254494589460088
0.256539929526147
0.254801530158475
0.255745621932119
0.25476607098507
0.254214216276099
0.25014655189826
0.253534582517572
0.252040728066264
0.252761710902189
0.243384653362474
0.252440848944372
0.246524749800319
0.249066004116303
0.244180865976458
0.247121483221895
0.243872043684276
0.245572707066201
0.2460653637434
0.244104968368684
0.243889017187452
0.240132047249938
0.242581007753923
0.242489959551961
0.237692400795559
0.239721540297635
0.23494372233568
0.240014742448714
0.238400574631006
0.237808724447624
0.237846646718584
0.23524620122335
0.230509472604318
0.234920132755929
0.233546048579866
0.237672662383003
0.23108304584739
0.230851286731587
0.224757684806522
0.226176968494664
0.229802207067163
0.230922708420055
0.226604299576128
0.226906516305101
0.225262245509161
0.227082585684092
0.224149127352674
0.228172154591838
0.224963505414325
0.225894286345664
0.226698336695615
0.225979180601875
0.223737827587897
0.225890717726495
0.224885104154387
0.230853461804644
0.22302015042179
0.22591308689086
0.223574611002982
0.221540061988847
0.218701102473892
0.221631837652029
0.220845992332911
0.220128408101963
0.218643428665678
0.220387817261515
0.216941984625861
0.219375723104671
0.219873608611927
0.217040636101535
0.219009067353157
0.2159313085886
0.21656297485286
0.222391465413544
0.217379892522919
0.2159677269989
0.212281950452727
0.214229078846057
0.215712592028627
0.217680052216661
0.213491087137904
0.214643390468765
0.212482635518373
0.215008377969066
0.2157588229623
0.214482672906573
0.212434297461915
0.213465601345867
0.211795407653924
0.211319786296215
0.208709135355144
0.212548177503381
0.210606771836649
0.211657950682004
0.204807562200184
0.207873846847589
0.206044492564067
0.206318185838882
0.207851622564688
0.207518222767544
0.205041654647768
0.205406355476447
0.207834235800309
0.205540963225325
0.204098997717524
0.203342784007384
0.201472611402803
0.204250765247589
0.201435091017723
0.201929443491773
0.202048289228
0.198804018408759
0.200046662729273
0.201485037092904
0.19877557370687
0.199783615368713
0.198434704268656
0.201027691357366
0.200757963993396
0.198283844935162
0.199115758793843
0.199387636314723
0.19656249470436
0.195703528099869
0.194924291369672
0.195103317546737
0.193530748029879
0.197753100345537
0.19453358930436
0.19393721873221
0.19582293513897
0.19346355933865
0.192748093092348
0.198601366111967
0.194620630570288
0.195827901691643
0.193827101573134
0.190537409903802
0.192692157590681
0.193401498966347
0.189312063071366
0.193459067285847
0.187143568229026
0.192060064720132
0.187299040484994
0.191378300903179
0.191504519048273
0.186450572922159
0.186391882315775
0.188954395990993
0.183613993073656
0.186175358883098
0.183404882113197
0.185308251471582
0.182574174278825
0.184887119591275
0.183309343284218
0.184191039569698
0.180386917935369
0.177775965039126
0.179403283620277
0.180256916112426
0.177374224212122
0.177753857377309
0.176937934999725
0.180868211593798
0.176545041970377
0.176521932731105
0.175465361184699
0.173838835371238
0.173062388546847
0.172022764936626
0.171550079516056
0.171697542968887
0.172039673237331
0.17150706229113
0.169121350065212
0.16930203982757
0.17204688515582
0.170866466841675
0.167021018878273
0.171058355792326
0.168885324772119
0.167698380812734
0.169182074863264
0.168809628646815
0.163178388705035
0.165186593710398
0.168486817578418
0.168120670804289
0.164800607328599
0.163123245863325
0.163122652032759
0.162030813580858
0.163155163803407
0.161533565504218
0.162156693469446
0.160634771700379
0.161099285989638
0.159717212959726
0.159792529761754
0.162174213587093
0.157973858822949
0.155817894055385
0.159061266508676
0.157676424328701
0.15603667041949
0.155196279041709
0.157191098266806
0.154883512665957
0.155592678577213
0.155384584558615
0.154650892882662
0.15473260532565
0.152258471016814
0.15312761575069
0.152113368684941
0.149292377679303
0.151073120148397
0.148885136565552
0.147928024946112
0.148280460236734
0.150486503999044
0.147860899446588
0.143351455502174
0.146427414480723
0.146836259246673
0.14417466509509
0.145948260087696
0.14574740251521
0.148951298234934
0.143647075598694
0.14501577983417
0.14304455712151
0.142060249441939
0.142005658242142
0.142234083399663
0.144180038410767
0.141982058496591
0.141655977710667
0.14243159808563
0.140362968160415
0.140001795245169
0.141945039466871
0.143309084270703
0.143494320124393
0.142473075202603
0.138618651826041
0.139951838127334
0.140018855474704
0.140477417377701
0.139387395178641
0.141681123205211
0.139129760191379
0.141738936949291
0.141304532845526
0.142076569685501
0.140642376989833
0.139481684436501
0.13820155131638
0.139367314858082
0.138242656397515
0.137455766785456
0.138775407618666
0.142576938738629
0.136058540745821
0.130658394177074
0.126974943120952
0.127390092969085
0.122909756709434
0.130931328553301
0.133235875570711
0.130575988078641
0.121047311739592
0.12469211747988
0.130214884683934
0.130369467381248
0.118524063932962
0.128237834716529
0.118265739942338
0.124203867320579
0.123524172900981
0.118319058136506
0.122288457704455
0.121006930284048
0.121727067444997
0.130354661213609
0.120943399199442
0.135011541155223
0.1300475248565
0.131268576779307
0.123540688529413
0.135037420271076
0.122131632113435
0.133883303760593
0.11975308106575
0.128830054041279
0.115154728685905
0.128686361759402
0.11260447086993
0.130977747388589
0.11581270979616
0.131355016962686
0.109609230682221
0.124548084716408
0.105346046179534
0.127353543808648
0.108180324965668
0.139948275283559
0.112704583836614
0.138761218009685
0.105325611118915
0.132304502188787
0.105247562459928
0.144662887721095
0.112071486470782
0.133846980069696
0.110591933148443
0.137773168403407
0.118918045753558
0.135735267285382
0.116178614245511
0.131613194088117
0.134654404605109
0.118750759020224
0.133927659300222
0.117601932834276
0.140663198014556
0.112868784798406
0.147766851776656
0.111999820747857
0.138890499001947
0.117663300686701
0.134279156953655
0.121330316142965
0.133882195988297
0.126327002103669
0.124739369771439
0.125238152906622
0.122047081383415
0.124216879007827
0.126542777158853
0.12043326458203
0.126828561866735
0.121609019084784
0.125798335890579
0.116117622574225
0.125246954028769
0.121338123828804
0.125832883706733
0.118129478298446
0.122924676771159
0.122539040784004
0.121253735391335
0.119438348171832
0.125720016643719
0.117850329087539
0.123158437863861
0.120568450727706
0.122808697389763
0.118684201534005
0.121793040899933
0.117940164720762
0.121984063470134
0.120841526862205
0.123698403671967
0.121183067567965
0.122602888202032
0.119484597755237
0.12141686322047
0.120888184410629
0.121837671583967
0.118331597108629
0.122743722884685
0.119760932477435
0.1226469255441
0.119367349745421
0.122014189516605
0.121272295393382
0.123634288347918
0.120697123525315
0.124298401318015
0.119714482627025
0.123463480393609
0.12023819229291
0.122915351230133
0.121228930271688
0.123074380982307
0.122026950777877
0.12660432901189
0.121249471265494
0.122432907554194
0.117531624071101
0.122478748126844
0.121086553613069
0.123773127214178
0.120841017605031
0.122702589691404
0.120884717753495
0.122852912908923
0.118937833836505
0.122128882505053
0.120757621644926
0.122715815841878
0.122686167315135
0.124657530331809
0.121676704397803
0.122817537672025
0.122388995966966
0.121659091628015
0.12332467199688
0.124120995022076
0.120239443474775
0.120941030653987
0.119647001030272
0.122861859241743
0.123052671881709
0.122976097493976
0.119529872505768
0.125624814050797
0.120322269020039
0.123568749617202
0.122802430208319
0.122385293345957
0.12134231388508
0.125596751388273
0.122439650833386
0.12539220822979
0.125178913427229
0.124314256815132
0.122578195266835
0.123829765167273
0.125239066043052
0.126867896684981
0.121973240768674
0.124912559301221
0.124718654455283
0.126011762580346
0.125476045651671
0.126470989101493
0.124697345254374
0.127739812591097
0.126374447223044
0.127618566544931
0.127447555790962
0.126669972200925
0.125965117127884
0.128206880039614
0.124826354064752
0.127279739021982
0.128482703593038
0.127477076956167
0.127512175442428
0.12622236314059
0.125675491461661
0.128173835483945
0.127738780698525
0.127646171804081
0.127670115266493
0.128600278349465
0.12728346423324
0.131670780381535
0.131376219922283
0.128402863925401
0.124850845727255
0.127719894093424
0.128137317642417
0.128801326988356
0.126610197966239
0.126164952443745
0.129175602865214
0.128876143537543
0.127245693719433
0.127075579019665
0.128778754839326
0.128737292550497
0.128871901474421
0.13080857992533
0.130457824383317
0.131375617893823
0.129968763806625
0.128940501479809
0.130971686495117
0.13027975665584
0.131624686638873
0.132680184135373
0.129667400045992
0.132200324501334
0.131826493174881
0.131586662444859
0.133132049346401
0.134523863384069
0.131665729011397
0.133468840337666
0.132658161382181
0.131339611850692
0.131288664313691
0.132924118237441
0.13334212055923
0.133530102713766
0.132746772993864
0.133962087655628
0.132489870654579
0.134540663158971
0.133800282338339
0.134486937657828
0.134781789407536
0.135157172824777
0.133452706217902
0.131737519508298
0.130257042107847
0.129854162555136
0.131258922154162
0.133440519659526
0.130041591875413
0.132119535981305
0.132421069032035
0.132581032215995
0.12974102970906
0.129052544164169
0.12958610037435
0.131198089134905
0.130425557321062
0.129615623682807
0.130052901547212
0.129271333952287
0.127702024704297
0.12980452518563
0.12884540155024
0.129482725958941
0.129450491553014
0.128808622358605
0.126573378271678
0.128642211705151
0.127282693208178
0.12702472939358
0.127160961280332
0.126919989650171
0.128058034121859
0.127025467958178
0.12710879484463
0.128108744292819
0.126739298824244
0.12638057382411
0.128628384171372
0.128063926542332
0.12759277513735
0.129185625508843
0.127595242639463
0.126154627211265
0.124165127207176
0.123936589437172
0.126289546442114
0.128215738287932
0.126535501744261
0.125054925238827
0.124303488553318
0.124999084024842
0.125008439683144
0.123996195671206
0.125041334861578
0.126046482751457
0.122491218950851
0.124662602888163
0.125293709656957
0.124109489476625
0.123639277309468
0.124120629132782
0.127913908432773
0.124937176205336
0.123542778013755
0.125459456357257
0.12383128319212
0.124057505496797
0.122609386059318
0.121999951777712
0.123719443325771
0.123759551839079
0.12163597227848
0.121432975278079
0.125905756899941
0.12508754631969
0.122027051135173
0.123531417645216
0.123880341996637
0.121863623670169
0.120778216378301
0.12134481246486
0.122844396362388
0.120646849909274
0.120543775872946
0.121190315569409
0.120758889923007
0.121238735891497
0.123153949194182
0.123516054479866
0.122303984840572
0.121311078405497
0.120093386370169
0.122783327084146
0.124744921763434
0.120808935275865
0.118896965231589
0.119077719470081
0.120185333999721
0.120450293366134
0.12084475888962
0.120963995171976
0.119643793924302
0.11917610839012
0.119758089031526
0.119071373734179
0.119600400318675
0.120357787063677
0.116841868493258
0.120081597606433
0.119603223997557
0.119492850349813
0.119327339637571
0.117037604742995
0.119167577830735
0.119223148637524
0.117317702477816
0.117098503457596
0.116170862275403
0.117355995071382
0.114189960695476
0.114842672230683
0.115931775044894
0.114494832675474
0.114477805960988
0.114688930356817
0.114437498211486
0.113319286311457
0.111549845395858
0.112921822127445
0.115013261275089
0.112632396759027
0.111890860701002
0.112604367124021
0.113314807011277
0.110799170847469
0.109800930026218
0.11060921779197
0.109169328045043
0.110228261420741
0.114294172859878
0.11576918503807
0.111315939434452
0.107012599104115
0.106365320570562
0.105961895774411
0.106474180720806
0.106136518824633
0.107023684763675
0.104567692989913
0.105716972941154
0.1057184757407
0.104672623495497
0.102783856174767
0.104610342200163
0.104849728473071
0.10476268386797
0.105603241568976
0.103981955000905
0.10386250854273
0.103964611562912
0.102610399946157
0.101167460932582
0.101101549111614
0.102456558770508
0.10107437954655
0.102151303829015
0.112999383372918
0.11551095965993
0.103705696641165
0.100916033177616
0.104549895300551
0.103734569232298
0.101080827168919
0.101096878135304
0.101717817168411
0.100501980465887
0.100216743834511
0.0994864629762795
0.100045154300185
0.0997262367999866
0.0985444807662959
0.0989403528108181
0.0986372781295688
0.100831278253802
0.101200487897967
0.0999832380176142
0.0991544193858214
0.0989956765307261
0.0981179318519747
0.0975486479838772
0.0964419553934202
0.0962959835987342
0.100651481152623
0.105196852808484
0.10349600202141
0.100649322848814
0.0961350206233618
0.0966230469835039
0.0966495285324584
0.0962589890389001
0.0973031399481296
0.0961304316045346
0.0945259728786297
0.0945992232065606
0.093803219669036
0.0944536968141466
0.0976455986483022
0.0964158400619229
0.0929680294050403
0.0946502015540901
0.0924882981301058
0.0934085452111595
0.0923998641391781
0.0920092082948287
0.0923758236942527
0.093310085942302
0.0941831527490719
0.0958905293294462
0.0879876848832951
0.104350172563919
0.111007004825576
0.0991932690590263
0.0930491340687545
0.0926128765472265
0.0895199789164608
0.092516850231229
0.091479091446727
0.0930015927462237
0.0899237754677999
0.0916825682749592
0.0907903758405379
0.0918906175458801
0.091000922749578
0.0925269751605173
0.0879883547308094
0.0906127552196572
0.0908176304275844
0.0917763150067016
0.0918326829511099
0.0918577129857454
0.0963199787478207
0.110406672673725
0.0967968432851479
0.0947527635084547
0.0899107587847295
0.098128822104754
0.113187412858737
0.10235837266745
0.0906708579818402
0.0925628034946963
0.0893622124759159
0.0897417021067838
0.091166348996927
0.0881326838386607
0.0961252500882546
0.0941113716012533
0.0922230204857247
0.0957779457398128
0.0931707286360968
0.0906051151786854
0.0904920844779669
0.0889252517267854
0.0884281885859159
0.0888309912134273
0.0886656710743513
0.0874716917670291
0.087990067676453
0.0882376571775052
0.0865116308121333
0.0870080459041879
0.0949390560535362
0.0949147634542886
0.0901289805095249
0.0891548645503493
0.0892855959549496
0.0846989458891479
0.102389284937855
0.103924650792517
0.0931383948345222
0.0861970560882451
0.0877637370503864
0.0884048809996997
0.0920788457042359
0.0876524095797718
0.0870561881230596
0.087933555322616
0.0886116162452371
0.0885749823032276
0.0885853336873328
0.0876075410640161
0.0854410058088756
0.0871579072124127
0.0869497697312744
0.0898471766961015
0.0866160276338294
0.0894561061969313
0.0881400450266163
0.0961523101874462
0.113211147519063
0.114331537037096
0.108398101608944
0.101372861461768
0.0967355447082902
0.0874230731031928
0.0895255171444514
0.0866974649052802
0.0907385981722161
0.0883363444138915
0.0884939820524946
0.0884734771122875
0.0914127995525043
0.0866349343914619
0.0891665652343104
0.085872394659722
0.086274292987125
0.0828614120527072
0.0895663881422177
0.085917023934701
0.0890291555316864
0.0843378935005144
0.0909404471921484
0.0940721206779594
0.102121804518325
0.0872591339740882
0.0959184367761282
0.129616007013005
0.111207432879194
0.102010125611077
0.0892216917098951
0.0919766382155112
0.0851126550126933
0.0883380617084393
0.0903304609575386
0.0960566919139793
0.089217772308852
0.0908563868274513
0.0881122189930462
0.0957837827067864
0.0862876194706504
0.088271039673872
0.11716118859547
0.126994321784135
0.104136372399182
0.0951057414007182
0.0866938970618093
0.118033760130252
0.116887870001455
0.101056129173078
0.0950334641136417
0.098082126262843
0.0922440263642395
0.0906388813462752
0.0877483891359816
0.0942077681229431
0.102064794093155
0.095754890642789
0.0941512764864194
0.0906832101286409
0.0967368268625109
0.0973575132315312
0.0987370315798097
0.109454276219306
0.104955484998506
0.0988198520272799
0.100531935747464
0.0999775307260646
0.0946883382215906
0.0963970253138046
0.0940404128819456
0.0973155133087002
0.113029764991489
0.108287283995663
0.107958411502276
0.118066031027461
0.107345601993756
0.0978654410584543
0.102728782935048
0.113232985244226
0.106859100553147
0.0949424776389765
0.130222040771842
0.120297340070278
0.140350094823558
0.111774603934913
0.110522065501886
0.0958189463945044
0.105124969684918
0.0900908624070331
0.109788024829917
0.117388228400688
0.110840122996568
0.10198825817471
0.0995927019656554
0.119877476469058
0.115373498937762
0.111562623693468
0.105982758433357
0.101834938661082
0.104736868419955
0.125803685081401
0.101107093163836
0.12063433877243
0.138028889469861
0.149931915958417
0.142008297163661
0.107574734641399
0.122394594136197
0.135083967686159
0.120863123696235
0.1133294559024
0.11230657847446
0.112221675984152
0.101168800363807
0.135222261346582
0.144482766579484
0.119396483436707
0.116360699757724
0.111669932555528
0.124950134485663
0.143539321836767
0.126811955628778
0.114554924524364
0.120598247206311
0.1165079338871
0.131264483306875
0.178582589169635
0.13679821510582
0.15831018208272
0.144604869201674
0.15804459368556
0.137088520117198
0.144391940416129
0.127232446860303
0.159358370010953
0.15116731506516
0.138042596844903
0.122031563268316
0.173606590190261
0.147520247379808
0.151771268083895
0.136137449000761
0.141360671656252
0.144044648521528
0.197285846189274
0.203960390655516
0.182109712728887
0.140511161241633
0.165806743307206
0.174908332934325
0.158978211834095
0.148365735621405
0.152805279453399
0.151999323608681
0.152882143172229
0.157956884775913
0.168698866164991
0.160235738968598
0.171143450484281
0.152284914164682
0.178867150974288
0.193811773477332
0.261694780599437
0.191925520676725
0.204986810373406
0.20719158995998
0.208790657809021
0.188859385390045
0.179269964991906
0.180693202366119
0.189706864960997
0.186883865129006
0.18317513272844
0.190621926924383
0.227171918039415
0.20142434351841
0.239471605168884
0.211010392890728
0.220244148382208
0.197590685725892
0.280040495298655
0.316750321626386
0.26247933279847
0.241776448452024
0.237884660285971
0.293809519363134
0.285433656769572
0.263905116860527
0.245749649832319
0.24668079556698
0.249226194606327
0.267078253551022
0.275225699576406
0.282650085484257
0.300104007756829
0.283141758066902
0.295000964420968
0.333163163992188
0.398512503618761
0.396747215970057
0.33641909025092
0.333657809980691
0.3556575124054
0.354329365389556
0.345814693562092
0.363226766639924
0.351894603099014
0.414853662948765
0.401912367399843
0.406839525367419
0.377903431886869
0.423832694920064
0.420844167719477
0.425868865112255
0.478171781633139
0.452922356106842
0.453811181235271
0.435746525365551
0.464978384258447
0.443681770205813
0.475877528256894
0.493990342459732
0.505558430321893
0.488311700858204
0.488059813397988
0.49345586467871
0.497928818895684
0.516645530844502
0.518755376023118
0.525160217415628
0.57986042123951
0.620587345006561
0.74227357500141
0.565810996873009
0.555323412234052
0.520102174259976
0.571365303303312
0.5798581043984
0.601207399729767
0.601424350426647
0.580508307364882
0.557356205770848
0.546679199180811
0.551126753399195
0.55355809613854
0.56407366730761
0.561529786236203
0.55788359203368
0.598719719711204
0.56627292939781
0.663101012616725
0.614403003960766
0.579956754384771
0.545772946511715
0.566363430359782
0.542718368216585
0.570440944142859
0.530973076690502
0.575179107856595
0.549234459930757
0.55434667230177
0.527947267657356
0.546878656886785
0.57683756764223
0.568141372019248
0.545528084702588
0.528475819492665
0.518011072434877
0.522643057330675
0.497751201486121
0.575882226771876
0.541561519095357
0.531770599860579
0.49937954637553
0.503617500164493
0.486028023092541
0.496363740262553
0.487298168130055
0.504250104332813
0.482213752576829
0.485245606313429
0.488610420637806
0.494352696291987
0.469286513115421
0.478795108563449
0.477328466712541
0.477054037017273
0.473198943009771
0.476568982878202
0.466148686840691
0.469789154451202
0.47000907896186
0.471278280079472
0.465855759006845
0.471846466669277
0.461088409965901
0.469912259697215
0.459940717569103
0.459696973305261
0.457036492955491
0.461552511634631
0.45255269874853
0.450810922908269
0.441587939557793
0.455921772061417
0.447251792873214
0.443035423495433
0.450648689845262
0.44894944966929
0.449297004750585
0.441030534399842
0.448292428948795
0.441408730284445
0.45325726757348
0.520858927382588
0.450332775591783
0.452339983155442
0.416522532663702
0.433267984484289
0.412080651885904
0.438822826718274
0.46876158840568
0.449983981706799
0.422635362765761
0.411773825988656
0.404101287861063
0.440302585006306
0.400672612223983
0.414739949901129
0.393627249152815
0.403499341274302
0.481297502220204
0.462695780998768
0.561323002343368
0.465177381982056
0.418048063934596
0.369655259289451
0.438562506986368
0.402582994931412
0.387524478433526
0.363769952366824
0.369616811609377
0.424759804242993
0.377274467656803
0.373489624402153
0.352810059844786
0.358155674904568
0.38933883911071
0.394791083955875
0.377950720424066
0.407551435065435
0.392151403487077
0.398715949621473
0.430472593433727
0.465306403015294
0.372939182260114
0.339139901210039
0.338620902935453
0.329979469518374
0.365429559787843
0.388017186855108
0.347648310962753
0.350782928682139
0.312529955359197
0.328677998303948
0.319195499542866
0.36700739888624
0.314805481271676
0.361895305367768
0.340773343337099
0.320392985657698
0.329947015983132
0.345402486324799
0.395432144151441
0.377247057544171
0.325147245683856
0.300113614892343
0.378375768925315
0.348378185621162
0.3347804277761
0.322761333494287
0.285166413965121
0.318599210284217
0.317316940258711
0.295993077827016
0.328661158819953
0.32327854478442
0.355132332306101
0.382494298222221
0.4040963150593
0.360851629774666
0.293275997825939
0.290496147585549
0.284994362854231
0.300399701821005
0.283564672457714
0.2817299155936
0.346897259001919
0.285016062831769
0.323167061371168
0.327234397449127
0.311079139923748
0.301375013067577
0.295756613418222
0.296060889109536
0.315482951000208
0.349213796829697
0.371606446281132
0.328511005827498
0.35919203345387
0.339714729018774
0.336918374635652
0.322862137164244
0.332854732219063
0.332988436582748
0.342531623495076
0.360710605102741
0.359851419304293
0.360974552283676
0.373326445815355
0.365513751513444
0.43829209731425
0.400740022840598
0.407882215194765
0.426408772340563
0.443253948169639
0.503624489658605
0.429627651120006
0.445706850217861
0.427484821136
0.448213959829694
0.44733135898908
0.445724326135752
0.498314469827851
0.496080260720993
0.474475976899903
0.474128026610206
0.481558559622267
0.489082033508807
0.498060337139109
0.535698465639999
0.524204804725822
0.654874359499944
0.555532703087132
0.56606827323737
0.520562273325976
0.527335522281791
0.530751678647912
0.530440412871571
0.529070453149252
0.519760584926065
0.540328040308924
0.567033762882115
0.539345910802758
0.537953324086395
0.533623221083294
0.546682076446271
0.541434112413378
0.550657362197585
0.552546858591021
0.553063809655129
0.557272246475325
0.563504496323885
0.581472581019891
0.659546737139594
0.606350651898267
0.602894511816539
0.581267122643571
0.606905459060041
0.580982822372998
0.608081474274496
0.624092047203867
0.619063044256308
0.612656781286931
0.621351094708442
0.616410305871058
0.619136693516666
0.64958040060571
0.664372891605909
0.625690676091596
0.648221711189101
0.618670621142694
0.723996441011077
0.669373033823614
0.695213126060785
0.659827659814596
0.674644865598261
0.652362951236995
0.659438894715746
0.658016624509111
0.667031899418745
0.66747107554996
0.66596275966742
0.664828112612844
0.663183981303332
0.660038982624358
0.662666477145524
0.669830388482315
0.698949205245784
0.669487317412696
0.666832966866146
0.668970125900808
0.663662849942907
0.644757541452384
0.705750414618426
0.685670726941461
0.682073188581151
0.657540577785813
0.702547561902683
0.699399540257023
0.691029279226652
0.646964740786161
0.665782267748017
0.648386290177048
0.673678452043485
0.642082172107488
0.686063177493153
0.697069400674932
0.692420609183567
0.666988951971367
0.675779332856219
0.674722475213893
0.688689371553961
0.688314981230585
0.694393547812269
0.690422013693262
0.710700904002885
0.709696338374112
0.706434890729345
0.705166227492548
0.71861575358593
0.731277805445366
0.73377326533693
0.702517063393652
0.71270886857157
0.701116465954687
0.709317433386177
0.712901152857852
0.713659398225381
0.68631564836983
0.695285451203371
0.670245491177944
0.696553302918594
0.71273300736321
0.686025282729547
0.695679919803962
0.666292704244846
0.67605317954442
0.666346502877344
0.650276093879406
0.6559545158612
0.648182292768793
0.639945838730664
0.638155110932025
0.641332876125638
0.635539888295803
0.638106154118941
0.62689269786418
0.635246371472987
0.624728940117156
0.631675435426774
0.623879940255412
0.63029029530524
0.619635661887939
0.627758764866451
0.62020432297472
0.622114159822672
0.644095920572563
0.651952914928194
0.645441005578809
0.627296535727856
0.629664221897816
0.621302801921823
0.626068058885991
0.618957681721698
0.615071516744239
0.623938265794486
0.613721811350103
0.619005639041697
0.61243459068795
0.623287161013621
0.611937311822775
0.618776469824765
0.616542573848859
0.613148822623092
0.615897775708017
0.612309724788789
0.609126205198067
0.613953413081898
0.609997464639054
0.616014086304499
0.613878779348386
0.615185731967164
0.611093269804069
0.615013184638409
0.609467056879184
0.611415061251251
0.612800865868827
0.6073113898944
0.601059696441095
0.604224127980345
0.605636524569126
0.608961171529256
0.604264797053096
0.608873954581229
0.606846282654735
0.598743888810892
0.59855950231545
0.599113931542982
0.592054326328602
0.590243627748188
0.590349209276939
0.579379839565802
0.574701045070117
0.578674609522627
0.568909322924003
0.568211768236834
0.560282880550459
0.560538256702562
0.54991611561812
0.551671989842077
0.544294607495693
0.541449213100117
0.539503199364955
0.5451177316304
0.534778077644405
0.539743033146671
0.528751420623378
0.534061898771477
0.528313188268196
0.527551053486141
0.523548788821215
0.528780250142412
0.524714495342548
0.534749329265249
0.524325289693081
0.532699223074988
0.530366005436558
0.536221822976964
0.532996255399089
0.537376050934395
0.533314128929174
0.538947807641531
0.546783881477871
0.545825778363255
0.545994780759025
0.548142026155215
0.548347072379158
0.548379485760398
0.557141830297414
0.559829993019803
0.553670871280393
0.555766727846663
0.561853646518052
0.559897454807348
0.557308900394469
0.562755114281239
0.557970038603725
0.557940283837355
0.556073992991896
0.56518444731077
0.556186872436155
0.561471813661226
0.551567921301026
0.555633337969689
0.553105453648498
0.555484332799225
0.546421319965516
0.555067688070422
0.54610727546434
0.546218490023839
0.544847363124529
0.542598413241983
0.540755730459341
0.538228800206377
0.535490768995729
0.538446596879073
0.537762384251544
0.53356638268054
0.526887850460722
0.528469288074457
0.527988848988683
0.527262066435509
0.523247276100125
0.522082184568447
0.51804887960689
0.520948451277251
0.516586922809754
0.518408689458573
0.512359834848652
0.517057434995577
0.515807619368321
0.513050128289026
0.512062996542168
0.507847511502761
0.508176321815827
0.498522156837813
0.499192944916008
0.499664444825442
0.495736796222127
0.4960153518399
0.487641828138008
0.487603888849992
0.484246736607401
0.4822536747159
0.477379413831825
0.476573624495515
0.465402936351278
0.471902908997012
0.468200866069023
0.463898198940288
0.463675047191212
0.462264430544937
0.459416894621442
0.458229748356881
0.455309908149564
0.460132262582077
0.45560835578557
0.457004829459798
0.451317376488747
0.450443014291096
0.447383882912398
0.442166314331626
0.441035251635281
0.435525894564584
0.428962233536439
0.426196412236161
0.417214676799919
0.413747714346941
0.404799455093377
0.404517749138459
0.398945349887755
0.399114214332208
0.397010115816686
0.396001252764053
0.398283027802113
0.401577291180934
0.405955936651959
0.412840789387658
0.420850704835006
0.432913760481259
0.441092116878225
0.454878556510831
0.464594119512664
0.482500623545095
0.500417602329029
0.515547378328419
0.529392029934178
0.552606665260647
0.5675154917892
0.586895439528211
0.602100107380488
0.622275254999133
0.643388276683945
0.65870547890956
0.672838479909414
0.700757013085959
0.71105482842067
0.731809352002767
0.748956636853954
0.766389090274812
0.776715838775415
0.793103548969994
0.806815108748563
0.817719302748218
0.830866043534221
0.840572469723006
0.855437175274464
0.868551160757318
0.870544153571289
0.889097448059297
0.884525305679708
0.890666889451264
0.893614208016812
0.89456999802258
0.886611982289819
0.898740945851836
0.892121746162855
0.898412189623023
0.894602880103462
0.896906752111116
0.889393998828078
0.89607085823851
0.892476418158801
0.891653743663617
0.898644391259505
0.903122167152382
0.905820920978916
0.90935072405238
0.908218581159849
0.926914396350924
0.926225774264756
0.918441171097923
0.940209796419037
0.943584449246205
0.953188360695848
0.95492047869879
0.96890268141816
0.988886944403237
1.00286130679927
1.01210613368832
1.02760325536093
1.03756048004877
1.04181856162575
1.05028987795295
1.07047435074321
1.07248118439638
1.08942267760576
1.08708093944964
1.09644265542365
1.101030851383
1.10396042759726
1.10174043878745
1.09292477735642
1.08927890088104
1.10273750085208
1.1004932901353
1.06172924912874
1.08184340870102
1.08651166419318
1.07826770793058
1.08691307861832
1.1053543900437
1.1092949070532
1.11002420172031
1.13702999815858
1.13062445463475
1.16453806088852
1.1800314130558
1.18668107872102
1.19185617003203
1.2211356866291
1.24965461352396
1.24179749075003
1.27217382806851
1.26979062743567
1.30664709435253
1.31738841660434
1.33587597651371
1.33092997577056
1.37376040880143
1.36290090579029
1.41394251782724
1.45222832116358
1.43318445996111
1.47838618501015
1.49380625524637
1.57885367542795
1.55418721646836
1.59198177147774
1.57362517863898
1.583517094029
1.60853692979032
1.61337483375497
1.62532429577265
1.78724047827639
1.72770194610386
1.68280638538741
1.74425548740502
1.75262519044221
1.75127301674553
1.77889679976984
1.78989272224041
1.76583026216824
1.68694331673216
1.77220518567968
1.78616259938435
1.9295677055374
1.74487272157089
1.82425057281518
1.82951671964547
1.71670623806293
1.73615187126989
1.80002723800168
1.8141908405598
1.82809915446435
1.79394688479245
1.86856955593179
1.78208176250882
1.7956998318947
1.93582614290874
1.90708022915439
1.86687009424201
2.03422794912798
1.84515750676077
1.95553168611249
2.0144928553275
1.99448811105257
1.91418692227269
2.06065150880742
1.91973490105602
2.0624026743011
2.00900394914032
2.09556759574674
1.93272137614757
2.07937254993984
1.97468407657341
2.51453613710311
2.1148005966709
2.19751057931355
2.11335376376742
2.08996759319176
2.04847424681317
2.49889190208213
2.20564535537237
2.45290673497588
2.23091385898877
2.68098666828131
2.19252768235573
2.10466793874969
2.14484246441256
2.56210939114242
2.67292296302655
2.36776124453835
2.24782035241708
2.21807621152515
2.12666342912667
2.0875066733296
2.09390642774828
2.33241521929173
2.02911036067908
2.22624708265557
2.12172016040528
2.04986085622334
1.90160162889304
2.03329231724372
1.872864618952
1.82318321672377
1.94495722932569
1.88784116716159
1.71869611471569
1.7349238268764
1.75892202060274
1.76485966406549
1.6843451119669
1.65086710816875
1.61076021046137
1.6959992008761
1.62527950732743
1.6170269171661
1.56080816760635
1.54958852775581
1.61347467041234
1.58474602109316
1.5467371565202
1.57209739682366
1.52525723127063
1.47835369119716
1.41899761706889
1.40329171637982
1.40024892367145
1.37973551602937
1.30562214273431
1.29590193475899
1.25215457689018
1.2159848976032
1.15295949840707
1.10521533762904
1.06971031271163
1.03825107083043
0.973943530469489
0.938043176889409
0.899758346014436
0.877369885843099
0.846349268904083
0.820952232875453
0.781334913982503
0.757340411967676
0.724635804187732
0.706625912813893
0.679482871624083
0.666318792978587
0.648318376720797
0.64320188841673
0.622007341122329
0.610598509260487
0.606106475261508
0.612206326309452
0.595280797621428
0.585882239429119
0.583078913156769
0.584646790145928
0.57938676213757
0.580266727451129
0.575328844009028
0.587520860228693
0.591011977969912
0.584170523107985
0.590941593080413
0.598561117510681
0.584582366308776
0.589474097390704
0.589081022767223
0.587915412365542
0.580433744369124
0.588834908699924
0.586074836526134
0.587147182220746
0.57861275338053
0.571949843489903
0.560314643392028
0.568090653704754
0.564428573662648
0.552851872280344
0.56508910976801
0.568845893985822
0.556733968818627
0.561188926588371
0.563567566700497
0.568542707752649
0.56859390674084
0.567791536966684
0.569347202578408
0.575776239715445
0.576429461401776
0.577379084726209
0.576927800816761
0.596196262112555
0.59796731299855
0.593273502866732
0.595806460526856
0.593767013224963
0.595809590043851
0.603135910259161
0.60226248548452
0.602982651439412
0.594104307425104
0.592817794005685
0.598907625166381
0.597106111083721
0.597147053904882
0.599773683742393
0.602132877014946
0.611715725398056
0.607508517773467
0.621772828754504
0.631440347652736
0.640168744678892
0.637309341949808
0.662748925063801
0.687250410391583
0.692414649127721
0.70472606600517
0.719532921781941
0.719996668423669
0.750122913407246
0.765620540596652
0.764827912563124
0.756051351431017
0.754068196538038
0.760927138580698
0.760077509017677
0.729855111776629
0.732940391349184
0.718330637710073
0.721292159478553
0.697613024355387
0.700238042255362
0.688942675062896
0.684707853631507
0.687381129159996
0.688033872299261
0.680972105380099
0.693477940342987
0.692012925349002
0.699971125541188
0.695789993325854
0.699911247672346
0.69134374647084
0.678795807535383
0.668576683259253
0.691183309635571
0.666505196860942
0.664635781908001
0.657695220386609
0.659077045173127
0.647940186671552
0.658432300231416
0.634824869320579
0.632777751262024
0.639715995154271
0.634119747050284
0.624421185408451
0.63902322408726
0.620272405887719
0.632063621125078
0.625998754979332
0.627498303384197
0.617492543832801
0.619419438786919
0.608757255710356
0.618434525979531
0.612498530054157
0.617486490418307
0.612948894754301
0.602955063064456
0.594666715884839
0.592270913624018
0.597100434180432
0.595451600557529
0.585140673821057
0.586544719354972
0.578086575665423
0.569669072689738
0.572459386519041
0.589907643647375
0.573494705232876
0.564614156830078
0.568229797541209
0.594160545368899
0.573646822775362
0.573396080208065
0.562413011995956
0.558625667454093
0.55269245490634
0.5696792472686
0.55857231289329
0.571600408910698
0.56248244041994
0.557049118275691
0.55744907522115
0.55942350569191
0.552802868743984
0.56478125210161
0.559723196514607
0.555206762247695
0.567066686721884
0.583209052518889
0.578443445513202
0.577392123691858
0.578314630634698
0.579640944795652
0.561232124608188
0.609341405141337
0.574456349667051
0.596546378548842
0.598699367850548
0.588486193380598
0.615205946502383
0.604436598764994
0.58374944350945
0.625827241127959
0.625455052050299
0.614748800362574
0.658820969171276
0.667628660194128
0.649524442868419
0.676387077298155
0.651835346294869
0.663548399858508
0.707269636596805
0.749491243039404
0.725076158471761
0.744869559039875
0.793955251507947
0.78984963867539
0.793200114978013
0.847971959696441
0.818794272716637
0.812776747699716
0.834123944762129
0.879495504090934
0.858678404101857
0.88961156939428
0.886614272479676
0.974317576913106
0.898891454894495
0.910051660708437
0.953077161198061
0.962164340455995
0.931549069716694
0.977854397918426
0.872244509991249
0.903253609450488
0.90535825887812
0.875400691998163
0.888119253653705
0.938801771878869
0.935339810920021
0.914263707834339
0.874619878968831
0.890439091493197
0.868744101811773
0.872358539220417
0.864295929239313
0.908100793419739
0.859060446528791
0.894474141114823
0.867122664705238
0.897109272061632
0.884055684081184
0.809608145942289
0.788373172111704
0.857063738962136
0.877706262675044
0.835003562671273
0.806870888792847
0.907097602106618
0.826303798857128
0.810357629650051
0.803014912866522
0.816165782976471
0.823945252622869
0.806249190541921
0.813091805791773
0.887196507866114
0.904612447996616
0.880096334859812
0.760104636574011
0.84685726168501
0.885903908468362
0.885262524469742
0.896278174336849
0.954943303636409
0.799988318670667
0.849772560847985
0.852025707287615
0.780976631515557
0.844295438545915
0.899876406150169
0.804777932086042
0.863680029762271
0.873805823830196
0.905642055764726
0.797147953168453
0.811929030341184
0.950457771012737
0.929498079433562
0.883670723038799
1.02709059456148
0.866036349832732
0.916302133136467
0.990295283446064
0.932922871405368
0.991689805070395
1.00899344002803
0.938751531797319
0.930679900832358
0.926230195730279
1.03232006043587
1.0239579988185
0.975213143513435
0.949742595722233
1.05544628071604
0.987202533417539
1.28445445142654
1.15069667616008
1.16221125147277
1.18882877495483
1.10564078352533
1.08677976953391
0.9690838498598
1.05283846616572
1.18635871482832
1.03323193912703
1.05309987959881
1.08935918903817
1.22728460624432
0.963444533763385
1.04069117939478
1.10543285237087
1.08182033964968
1.10094051620947
1.38509097618089
1.02075756478402
1.01889413562131
1.03400379909476
1.06625244845196
1.19499383672976
1.07413545629557
1.1518862636983
1.59051248526879
1.19387392744199
1.00643205434768
0.973161840731884
1.22378320678414
0.994880507276581
0.928951738118146
1.45280475865714
1.2785935966704
0.882692599597341
1.25575749476727
1.14237534854414
0.895380097275581
0.801578410323038
0.893365513265841
1.10617543209929
2.0156097003411
1.26383151128714
1.11526467095289
0.804855496667116
0.960757687938736
1.4871755356172
1.8449552133241
5
5
1.08256895380381
1.39423258320915
1.19537662825196
5
1.06301248187945
1.20848007708097
5
1.71060305703335
5
2.28565969478776
0.969512728054437
0.738201981554951
1.01515194339408
