3596
4000.36533379555
650.420452594757
1
2
2
0.106073875783238
0.105647822708188
0.103627576867376
0.106262348297038
0.10245647766588
0.111418138388131
0.102594088055675
0.0974545811508761
0.10454717513773
0.106716505888487
0.0891061054755971
0.104346828387983
0.0923190308299169
0.0982787907179228
0.0986246143333469
0.0924588257405848
0.0996269301423373
0.0991228019939477
0.100999314003388
0.09689828168069
0.10361187529216
0.0965904561489074
0.0943223627717008
0.106522797120152
0.100665058658355
0.106813986377306
0.0979322174859551
0.100549915064781
0.0994135654242528
0.114378405360307
0.0981295065250005
0.0980486704201478
0.0932585081300777
0.104136578184979
0.0988857249803115
0.107555151023641
0.100463435147999
0.104258657430188
0.0897918805676511
0.122883227729766
0.10153216951808
0.0963176821651671
0.112227449099392
0.102529602037718
0.102101643208306
0.10417932274925
0.0942750844893897
0.100095162149657
0.103270172397001
0.111174202351836
0.105335990033507
0.0937046555257744
0.119094512100565
0.114284519592986
0.104733503277487
0.123548214424041
0.105278331790397
0.105524126024064
0.0987520309838604
0.106933312705325
0.124254434061336
0.110216098766804
0.10563826894614
0.10784766190605
0.102757517278333
0.104565816526311
0.0874249044836614
0.101672483725031
0.0928377728897081
0.100161670254756
0.100425590874248
0.127975321795336
0.115002315167104
0.112157414366013
0.107639384532823
0.0969856169563237
0.0983835900682546
0.0967534624220602
0.0912623055733352
0.122300574612301
0.105708975259794
0.104285343026349
0.0932821972836748
0.0945951905594971
0.112726585149326
0.116765536189534
0.0876765540679164
0.12482698900284
0.115400337218521
0.118319830487579
0.0864649385524999
0.0982383390560065
0.0850568070382911
0.0988980739489602
0.0919902027083394
0.102389566759155
0.0819336027394285
0.0993470753809974
0.0814136408329305
0.120153975217181
0.10338210652543
0.117988514849102
0.13234356327159
0.103648515012509
0.163617459357249
0.112485586262499
0.118442828918086
0.1538919549437
0.101957608827474
0.112110292922387
0.0865466214358599
0.106704039530406
0.0930800001631808
0.114567356229992
0.08430444786798
0.154382009456028
0.114016339520987
0.103485674607549
0.0911742497140905
0.103090840314638
0.0809523894718605
0.159588007786491
0.119678382958837
0.104611042874372
0.113933711959618
0.0978412891379552
0.101680204129198
0.163885639525059
0.114167973544116
0.09769907821494
0.0876891058572548
0.0893757570113632
0.0763323256804779
0.0987593375901874
0.14062517285439
0.0973504874455716
0.100567022635092
0.0942367782787375
0.134949740085095
0.160902060842865
0.107559775632877
0.108413455439797
0.0823132622541801
0.121578624112417
0.136381578920176
0.105620703050086
0.0895739038918043
0.119679644914839
0.0928324382850823
0.1030456246174
0.0876728821085065
0.0918520183417436
0.116584482201423
0.105936318753352
0.0627316201298539
0.206319046438374
0.145882141071621
0.136014317353966
0.154416877060783
0.0946141733239412
0.117235375823181
0.0872428094915302
0.0946390462034964
0.0845414462610446
0.111799713880234
0.0844878014867209
0.110385634772819
0.130141768917168
0.101192083842963
0.117115645462337
0.140974502618606
0.116314758077354
0.102966710687235
0.185626469500459
0.0896510379129478
0.100944320765441
0.125895400410524
0.106829609937269
0.0856353487400664
0.11669621145723
0.121442894234181
0.0884495690353184
0.0971190219700939
0.0918985808614187
0.105601233464771
0.121245561478886
0.0922908087101534
0.0922767739334375
0.0970871046198893
0.0971953326500151
0.128849575096594
0.161351471318344
0.127485572609312
0.0962481503219306
0.10196294989163
0.0776426486174427
0.166646432102086
0.125594531632425
0.0905492557945425
0.0971705269083739
0.0887060702038891
0.0859916339216212
0.0769810406915332
0.0957210759509736
0.0890185251748621
0.0885154242385889
0.149620951431739
0.0932680994406462
0.101853155530802
0.09360234198808
0.106562117819287
0.0951335339248804
0.183527035134068
0.120286817230258
0.0991442317934228
0.10074622079502
0.0938550527945349
0.120289767339018
0.11013099022407
0.0941591572801432
0.0973501911469917
0.0930285723030315
0.0917550035656338
0.0841421005313629
0.0884002037637226
0.0906146450721785
0.0921188753657673
0.0918710018833112
0.0949724156612289
0.0972455580779422
0.105412374054586
0.0978322271541603
0.0876664235709999
0.0967419778341302
0.0802099224826187
0.110782515509311
0.111574088050024
0.0959806890355099
0.0904910033580278
0.0898256347817726
0.0959499561028698
0.0905821393882371
0.0879775505959961
0.0902109047379772
0.0928688580464811
0.092116368976446
0.142238950832459
0.0903113224436624
0.0971058091492661
0.0780063698549777
0.133295278378739
0.102275495337435
0.106124413430968
0.0870225528986417
0.100794706825477
0.0813545781166045
0.111324515436355
0.139469029252231
0.106260298947782
0.0928334807647959
0.125523957841799
0.0934564603787238
0.0943371751938204
0.101626475050809
0.0922339942864258
0.194879145919488
0.104412947127788
0.127839291843258
0.187780398759734
0.110313468523029
0.120445389363201
0.0990230915038355
0.106325340805232
0.263882139784594
0.146419987774414
0.0951373187086953
0.112868985702802
0.126438964270847
0.0886362386449937
0.122170418489215
0.104525699342679
0.134979463359258
0.135009143158569
0.181377606306407
0.186580372849153
0.0876201173164327
0.163933307662151
0.125278193058135
0.107164428452691
0.0907726148774188
0.101856857762935
0.103443737495581
0.13706728093596
0.125281452157223
0.131391451193858
0.113193280094665
0.112150040406577
0.153277244996273
0.110467712059713
0.1080992209361
0.11557715791417
0.124938908826375
0.0967661082628254
0.108796271239557
0.0997732335190886
0.118555942533829
0.0989641874464921
0.125695118213877
0.178649110724168
0.12076684107591
0.118397696177674
0.154063878232093
0.108559346877719
0.11656741757432
0.101913677700728
0.116367864925654
0.100833559471331
0.100777790537158
0.107824654887521
0.159750483457317
0.10716371144816
0.108398564272429
0.101049201684234
0.102700326690934
0.108330710741235
0.116261539361373
0.111839493512663
0.115082649055005
0.113892780185431
0.113472317550595
0.150190104653911
0.153227392192715
0.0934777463316794
0.19616896750643
0.144711830254873
0.118008868767812
0.113884219217708
0.110929264737405
0.118070978972175
0.117534881701884
0.122890696598644
0.121821752188114
0.127017434581227
0.142228666880579
0.141124970177982
0.135184795565823
0.144019887729368
0.213996581915527
0.204677782234428
0.147889147121378
0.133404174016143
0.113191420547574
0.201764825427549
0.17288388381556
0.169752702655244
0.175896043435273
0.130722023841957
0.153600716331809
0.131976079277734
0.149432640086847
0.136287316732907
0.154237407369253
0.140562162615728
0.162175223942013
0.142695663022695
0.161050739518479
0.140222245705031
0.175357797003246
0.200041642623434
0.167034038361621
0.153442127251713
0.173979843144568
0.154355569820062
0.232085061894299
0.208290847669901
0.248517710742132
0.210496672510154
0.231703201795245
0.231058157344127
0.180690676385644
0.184103134498593
0.182503739176181
0.194976488706268
0.19431551461995
0.190793496316172
0.18260597825232
0.191251631473424
0.203000068084359
0.20526231111321
0.197554533139523
0.201057042762225
0.206094148709369
0.230601644911548
0.21419798881473
0.221900781362079
0.209357308337673
0.272417715415166
0.30092059945359
0.277374837488624
0.24115708086064
0.242953946940065
0.231792247172
0.235132370962084
0.242949169037682
0.238011038944589
0.260065819179844
0.254346674010966
0.302897285678688
0.273100654401493
0.29178677024194
0.263703861666091
0.257808108915502
0.289775685789448
0.285512207852139
0.303002840114171
0.308057723465068
0.280705641118273
0.265342374348038
0.320047380449611
0.302625954629498
0.302064539643049
0.329202204428639
0.281443119263187
0.307394250377833
0.283135669095318
0.321044986101579
0.304281959049876
0.322739692653569
0.31342018951109
0.327972613599888
0.320836735573135
0.33394267776682
0.336760041949914
0.358461171743116
0.321625855999993
0.35033445826602
0.355635335136614
0.329493192849771
0.349608669583053
0.353227592385067
0.404043744925553
0.392625552707894
0.396004248957899
0.402396116148172
0.352299482544001
0.38025727812577
0.357698309083136
0.391024772469747
0.387332372657194
0.406786352675322
0.392068714241721
0.396776537952887
0.400668873101065
0.432055404032485
0.391568843540811
0.422579533715472
0.40725390419738
0.433836509608165
0.413571794070734
0.440440530237912
0.440738802327555
0.459387209769502
0.488842562575087
0.491837339964065
0.51657064178893
0.500379200356352
0.450822266219147
0.501886703977278
0.461010486182964
0.485527975621753
0.476086611178244
0.532381923968078
0.489148873258743
0.501198556642477
0.487000747729517
0.509818877892561
0.508652572203707
0.512886507377812
0.517835281867557
0.533077872245688
0.528281756508772
0.547774660758547
0.5229976950637
0.559894007978714
0.542700059440334
0.563583028638442
0.554670871309143
0.58324317700093
0.582489139408026
0.573984130194674
0.581257804809221
0.590809811924786
0.561539174252039
0.596913725144508
0.595387334653737
0.602679222100761
0.613586168881317
0.631101643821049
0.604371607697589
0.632644305809852
0.615999298199366
0.641274974591184
0.628582395415905
0.683539919439
0.642019777302424
0.671785305871243
0.648516498680366
0.673297912481219
0.629203977215454
0.701083548636394
0.690397052508178
0.712199482303492
0.698673822381968
0.716145199753032
0.686500200482186
0.727834893596579
0.699567688543109
0.723982150910402
0.715230596964951
0.737698424833321
0.706007139991183
0.727692307762958
0.738408770393974
0.791816241781428
0.749969905109138
0.78463728396641
0.767359446617565
0.751281093093466
0.737700941513943
0.771978270461507
0.751622945288608
0.79301476611117
0.788938710964031
0.813188514779943
0.832216206752528
0.825154096668736
0.800400082458803
0.829506586265881
0.789437982120493
0.850946286895598
0.845125947613552
0.853637844761296
0.839430721941944
0.858293630107423
0.833404634188774
0.837768657784794
0.845353659943102
0.928053485861897
0.876043945772003
0.956186808584629
0.878594470900189
0.921389593536868
0.894098469384181
0.94493675671968
0.919896827160725
0.937475571016812
0.8712185152516
0.908164179024851
0.89720819903229
0.941330769555552
0.95338116943007
0.990422147519381
0.944784989945111
0.985325622890334
0.938190531594015
0.994926140837421
0.913446998171165
0.956579539942323
0.911248576814162
0.952999140359935
0.968740401211387
1.02216377063729
1.02466221066313
1.04740499739545
0.987788670257498
1.00476912608035
0.984883471867065
1.0112606320718
1.00737059185485
1.0628119606019
1.02293989084711
1.12510819260484
1.12473646105473
1.1595080020908
1.04481143463806
1.08372673493287
1.15481944303678
1.12746761835809
1.09082491898949
1.20383849199901
1.05821223847875
1.09867877353463
1.11540432947152
1.14990153018562
1.06998648104429
1.18136498301519
1.10925281003101
1.17781585595858
1.1668976509931
1.23288677819933
1.07383537081865
1.15260709975088
1.20441032792006
1.17404158522118
1.12879848745973
1.16641786288136
1.21974180421901
1.22359961625658
1.14150906129894
1.156649096125
1.12229623459251
1.21331651709334
1.12828383304218
1.22331452621434
1.24898093581165
1.26750824231025
1.22068081762895
1.29370647646499
1.24593250836176
1.27337991194938
1.26186716795364
1.26003948267585
1.25560305632113
1.38802169463865
1.40703593738223
1.34389420108591
1.20868248803346
1.31395661695871
1.1939846471241
1.2940905887756
1.38261478664951
1.42436127747364
1.2339380245289
1.33552378616759
1.23851353280493
1.39783945433498
1.28428721140628
1.29636313001356
1.22518424121519
1.29457626092825
1.26730182016716
1.33435831473635
1.36609515638895
1.4039797831571
1.31241957899967
1.38540768526223
1.30213817526599
1.38563672954007
1.33899903938553
1.47854153768073
1.34186446089039
1.32085071794426
1.24035562999994
1.45107059406554
1.41619814391417
1.43579745297168
1.36832497732242
1.49684247781886
1.40506677862183
1.49109844518598
1.52886405035556
1.64005537881585
1.36644362645038
1.3358273452288
1.26624731350121
1.45717986376035
1.50226054440054
1.61805275509492
1.45067362539512
1.52879772596144
1.510958099253
1.45598757757861
1.55468974086126
1.58579746466967
1.26210106197899
1.39697448029067
1.3925649970541
1.49369663866072
1.35960435630398
1.43347469009831
1.56501976209678
1.54695287772173
1.37997968932266
1.56055271361111
1.4284872786859
1.41990068644494
1.56066723376909
1.49847687820454
1.54732106661168
1.75050969882518
1.50404489910918
1.55259998907626
1.36291795891245
1.66370411107808
1.64265572267355
1.43345852351533
1.39857676525148
1.56444548594725
1.65704240495439
1.50936381438623
1.46571034179353
1.58662532892534
1.42686522024829
1.60790315505974
1.55830683814128
1.49697562833929
1.54135874833897
1.51415997714217
1.47286175740473
1.53502210650814
1.49389866100519
1.61930390409474
1.51590482209976
1.67056894766095
1.60057289862546
1.50835979756648
1.54843416493961
1.67384457394845
1.56394360380075
1.62332633749599
1.5469645772322
1.58090317692374
1.50039554015867
1.51169007003848
1.49120023755839
1.45704591192305
1.53065024858001
1.62318102193406
1.51219449132144
1.56185463436232
1.56925691577973
1.57109218456302
1.42992147019554
1.54094001157555
1.5400183906895
1.57808867047502
1.56923887863326
1.60031648582741
1.49073042086804
1.62056391084326
1.58800119604478
1.50801238673739
1.55453251444772
1.69106232601401
1.53205636351121
1.53581813843727
1.56002833161226
1.57964450485095
1.50523414243709
1.56186058281571
1.5450882232727
1.6260599372444
1.61304266681054
1.55033790092625
1.61777991566028
1.58943471885574
1.5040624363761
1.65389250955119
1.55449740638261
1.54071013740033
1.47956734028338
1.52758482769163
1.50580468430047
1.44703577810599
1.52712584157799
1.6026045517471
1.48496350339112
1.5763624259641
1.60098857339757
1.63025698762931
1.55961316304767
1.49971026163776
1.46979945774677
1.45042197032349
1.48927944404184
1.53059324850643
1.49757230452872
1.48711668808056
1.45575396168314
1.49187239145863
1.47324909625488
1.46476968581009
1.44333388441607
1.51590159796992
1.53051497756966
1.50908795946241
1.48449893992429
1.58255525081772
1.5961075464825
1.47625259330389
1.48555040635395
1.51958029737468
1.55055332925844
1.58475817974054
1.4792063609944
1.56712366711692
1.49626504782727
1.37686043640347
1.38748466862341
1.53130659665796
1.58850616460135
1.48800081032536
1.4295741957778
1.53817399371429
1.51601233900725
1.454856353927
1.49603064356842
1.52003988995585
1.59267546090651
1.49331114248776
1.41939374643497
1.56726842912072
1.47271626550219
1.42968206631521
1.44022770987154
1.43976794827514
1.50677327737815
1.4655500388249
1.43342596464146
1.53925615089316
1.49472966232381
1.47533380359898
1.3925856626154
1.38081252769382
1.35718395470862
1.35738533215481
1.52510241746352
1.56481455390201
1.39130859400371
1.37023016932596
1.37077205095614
1.35715932980012
1.4384212563336
1.41787207399
1.3711212569798
1.34256014513741
1.38992279389441
1.40712774998377
1.3866351541149
1.40187659525076
1.37275382628812
1.35594479184214
1.4085112796064
1.43279541869267
1.41012391322985
1.41237430445038
1.31599560158476
1.31423827998075
1.35525107017679
1.41116370383046
1.38513402583663
1.33329730745394
1.3629479636813
1.37230489215842
1.3736118731669
1.29628458423925
1.2335369275299
1.28989505890983
1.31889132719939
1.30413197105618
1.29407044655433
1.28720363561319
1.27915507818333
1.27408697231753
1.33465548955818
1.31278583857969
1.27932403574392
1.28729534674789
1.29974177759734
1.31700378774228
1.25287612457722
1.24723239402461
1.27950725620584
1.25095470582448
1.24929265381349
1.197407949079
1.19356613268966
1.23595176884907
1.21455597750765
1.19920137629338
1.24092306105518
1.2814268664068
1.20339523031184
1.20195570104235
1.27557025437481
1.2069398888283
1.18714137028187
1.17238853002387
1.1656044730583
1.13940762982706
1.1594864335309
1.18417007408714
1.13842000776162
1.12927697929047
1.15899416849842
1.16223730891637
1.15627639052934
1.12859995331946
1.11347117575964
1.15452875111554
1.1337162223857
1.11647587429655
1.13326741140883
1.09193281280736
1.08510751161868
1.08958702636784
1.09800464158508
1.06995382402999
1.08236957185873
1.08397252524773
1.11180403052931
1.07703288886446
1.06467941673098
1.05177287448219
1.02926570160488
1.0441566798597
1.0727399945727
1.0448035493363
1.02435313468434
1.00815117214557
1.01070543144858
1.01346846659134
0.992422265191069
1.00077916414631
0.999543892275367
0.993123929927721
0.972448043552905
0.959064235409333
1.00219940522393
1.00053514190844
0.968291016278213
0.95540623656258
0.984978319229515
0.962768955299797
0.948976471963757
0.941210417698082
0.934708332758555
0.935869888065982
0.935391999578624
0.899473289818282
0.906629271260992
0.91885243133697
0.92445133174805
0.911580119769747
0.904633664333323
0.8932390794017
0.925988229841518
0.911593989139279
0.874862883421161
0.869990971267199
0.87713620851873
0.885861533687941
0.884610945819019
0.863520396487405
0.871708872466483
0.847311183034931
0.859711280332368
0.865982513763416
0.850612123352564
0.816662552985529
0.817552961857747
0.833842321707652
0.830124223675384
0.823038212279199
0.830660062058146
0.802510528707411
0.809138859236589
0.80841356867365
0.802699596113203
0.79074977598127
0.788316218463816
0.779826074010396
0.77540022951324
0.767361886340735
0.771745967514016
0.765468455983075
0.754099205009467
0.758535889935755
0.786998437295636
0.766199705699462
0.772362538816546
0.753080766514013
0.749946772172971
0.74728411420517
0.747842738240335
0.734173401279212
0.734233451043845
0.723041407111385
0.726121803681216
0.724029884951812
0.726642885676819
0.722937358851434
0.707643452513851
0.701504168799151
0.72093610004033
0.705093302845436
0.695978561465416
0.687463829273321
0.691000045126487
0.684808156565969
0.684425470735333
0.670272329180209
0.681416888573608
0.674935459205417
0.669230989171908
0.656775901109085
0.652693525858663
0.659822088245331
0.665185610513447
0.650795425255827
0.655239294291554
0.646446521706037
0.657302712034145
0.649008318964322
0.63711334108068
0.630865238017266
0.640003795164495
0.626764743004182
0.621864486955122
0.621253565465286
0.628723515461166
0.611861321051326
0.621008293520946
0.616714407187685
0.610431139272342
0.607940308490171
0.604084098901463
0.592768326240706
0.600588286984188
0.592493800067414
0.593576892617517
0.587796073852966
0.590914715687519
0.593646702922294
0.592541164408593
0.57003181263548
0.576737251139958
0.562555485187142
0.576585598339282
0.566677062567645
0.568665004342716
0.562964688430736
0.557464071224996
0.555211814632761
0.559150489876682
0.547867192347332
0.54775399663423
0.547416290578482
0.552697052535506
0.555002862043771
0.541484486244781
0.536216292481113
0.536730916794686
0.529952568473685
0.533297197874798
0.53271786446605
0.534146009293626
0.523462120936739
0.523969805811776
0.519599874051008
0.525527757112283
0.513474345637793
0.51708445815616
0.51465938231542
0.51036633175186
0.509225071501918
0.514015864597864
0.513115880693388
0.511200467133418
0.504709998584083
0.507804615478054
0.494195265450193
0.510510647870877
0.501687985239566
0.499080212741785
0.50517225427201
0.502207872909048
0.497366744150629
0.511387832182791
0.496929648012528
0.498643280799862
0.497468880221415
0.495779853526725
0.500256925685894
0.510242872303045
0.499074255146017
0.497979542454818
0.49987946541004
0.511069284102571
0.508195923699658
0.510410845725112
0.515472743708139
0.510745124427417
0.505530293783111
0.517939081018561
0.510591449958739
0.527487436565072
0.518295002642619
0.514835355797406
0.515395197837906
0.52627130057012
0.518308269557503
0.527826212870176
0.52590613204475
0.529955309840213
0.523776064229643
0.534898426307816
0.527290243237633
0.538249770636687
0.54226992561678
0.546910288463095
0.536353141578044
0.550861942824787
0.550098169865345
0.553058695343128
0.549470138372342
0.552191973056121
0.553527561568929
0.559877298175406
0.550500397958755
0.577206247944589
0.571617378219375
0.579853366106811
0.575522968531248
0.579987512098568
0.579610178791446
0.586711536730076
0.598796029670822
0.605693498979451
0.600855618431048
0.615267009562495
0.602765039712802
0.614839393985294
0.61331049031462
0.627695536436746
0.63224919959506
0.648603551932014
0.64382760751368
0.648366960166187
0.638043355479683
0.647735387331765
0.650187546833521
0.653270727730622
0.655022147070471
0.661726626006555
0.649558368906018
0.668528453688007
0.660147604239364
0.670090036222141
0.655270068617867
0.673174161145333
0.67604794309336
0.677926674376987
0.67261826267446
0.687006328378424
0.667801429887337
0.679920214126971
0.66952488438955
0.66084422264454
0.666514929225701
0.679445418886359
0.677818873662461
0.67677840445386
0.657266699824299
0.667560417682946
0.65817280725977
0.666129892370022
0.649288551009528
0.66253309427307
0.65362915709457
0.65429752292477
0.655783666943462
0.653880486194706
0.649979145533184
0.658452495351668
0.648246541505672
0.665866911386488
0.659267997241065
0.662189336385624
0.662369611251759
0.655375123552092
0.653182491728607
0.663426102997633
0.643621600834371
0.650649846070899
0.655187690159184
0.661615777735384
0.648613046565462
0.661538500159343
0.6469587483825
0.651878883757316
0.647801534630967
0.658546408221218
0.655640094080713
0.676372408150664
0.65255124298653
0.656296058021481
0.648167344661275
0.656525534402363
0.642480725872423
0.659417985623851
0.647433066288306
0.650971905004696
0.630797864060469
0.652217396626356
0.640831518160845
0.65348532218119
0.643579464778072
0.63498833283612
0.629789379277005
0.638106276380356
0.615785641023904
0.620029605656781
0.61165908900004
0.619519341028031
0.610811014966975
0.612396429382099
0.602458368597657
0.608149774222166
0.599106996830459
0.59716951656853
0.58306091844115
0.587035081213905
0.577371134951943
0.579775541706862
0.574770345278842
0.576076164364243
0.569483630338939
0.56034605969343
0.555910517439049
0.551978148368264
0.553167663733128
0.547744824152011
0.532128713896414
0.532801427880641
0.531433233986773
0.532991729639774
0.526781291281687
0.521178029242556
0.516394453890763
0.528477461458941
0.508698170592445
0.50882509444765
0.506126222428692
0.506568287217771
0.496035908524009
0.492010920859613
0.495294405272113
0.499804782336219
0.485592858446136
0.484293446542814
0.480200509809141
0.483167029491604
0.476407191335529
0.477896636579809
0.473021154706189
0.477689041208236
0.465347417107081
0.468929492725531
0.474460394380181
0.463639076879132
0.45119253199282
0.462609306741703
0.458602547193379
0.460782502942743
0.450873959820933
0.446996066206537
0.438198785936685
0.452328459906127
0.44786441587833
0.44896115887919
0.44054149280333
0.440723253425613
0.44394486733911
0.4460172737397
0.437967592630824
0.43570132172743
0.427377487861917
0.425783734496174
0.41885726227948
0.424573062638291
0.412595236309894
0.4241596535568
0.418251599151121
0.413102427294002
0.417206123106489
0.409423864723414
0.410016240950175
0.413789585432902
0.409789752254474
0.412758842989344
0.410444956839119
0.410822452555821
0.404392447785425
0.404571308045441
0.392299489886412
0.405322028936715
0.39488704816396
0.399846269168143
0.39909341449229
0.399915291945566
0.392391798672473
0.396458869252475
0.388435385590824
0.394329449397002
0.390425998596085
0.385945022610428
0.386031323437252
0.389449025070033
0.381573505754326
0.386797828583578
0.381859504297007
0.38583523209086
0.381598538784111
0.385680511116644
0.375867349508836
0.38669914226284
0.378565095031195
0.38151445470239
0.372125822357177
0.375563032525468
0.367729860929171
0.378609449585571
0.37535568228052
0.366372885640584
0.369922633874276
0.37447695836854
0.366186824399537
0.367191286245592
0.359346910420281
0.370471445576299
0.362768129856559
0.365711098941046
0.360464216781417
0.36643488776571
0.361499407454138
0.363144870340292
0.359973916187473
0.365313046036726
0.356536951399403
0.352724520085415
0.348271327827949
0.354962518045037
0.350698080264845
0.356479153137442
0.344779051734513
0.351908010100053
0.353600425810298
0.351420078850178
0.34558385590757
0.355000759515537
0.34962067992349
0.352508883623121
0.347031269013725
0.353042339639954
0.348810595048935
0.346044516155018
0.341047032824916
0.34470154196599
0.340389414100539
0.350616953172085
0.339370400741648
0.345458945570133
0.342294275748632
0.345214054869503
0.338412743496565
0.343592556567225
0.341554832300511
0.339538815610879
0.336858092885843
0.343628239886099
0.338767993006441
0.344779050294345
0.33989942088561
0.334608444660086
0.336823339319415
0.338731760743159
0.326591731472052
0.336922180441673
0.337368058224773
0.340419809594786
0.336776033448651
0.333759377278714
0.32652723413212
0.332379006664087
0.327486623866666
0.333178678020229
0.331956809125703
0.33605573134499
0.324497695955334
0.331647958630495
0.327359435163103
0.326414134463534
0.325570663612962
0.325163860658079
0.323179078192936
0.32389284566924
0.323771607632741
0.32221258307548
0.315044397833327
0.315670717109629
0.315137691144036
0.317029088172282
0.316461708911814
0.313748253981945
0.310785873883304
0.312905958353062
0.310407818021431
0.315743955368253
0.31016646350852
0.317072198415366
0.307457178912983
0.308137332721836
0.306455003994761
0.306942487964825
0.308496160465858
0.305072147642459
0.3059771949295
0.308270087470266
0.299463847664009
0.301189039924852
0.303200966477981
0.302548985530402
0.297614916428161
0.299325982899945
0.298587852514061
0.299070439685752
0.297586055645774
0.294180972500895
0.295303572010818
0.301681015805328
0.29075669673434
0.29122793610617
0.2908292179706
0.289174704173772
0.2932504960557
0.290808124009668
0.284665184921376
0.288829794451622
0.284348249537981
0.287964366477984
0.278893881676432
0.281562938410395
0.280959290976195
0.280508209302777
0.277689293407422
0.282661602638709
0.276567494915442
0.275829735522385
0.271652661482668
0.275481331169901
0.271408947907603
0.275539661650618
0.272424948861805
0.274313759107523
0.269638385686905
0.269771708410297
0.263092104406386
0.265595840438391
0.263781524160496
0.261207640026033
0.264168922484524
0.267962357642118
0.258700365678499
0.26002947757293
0.258581485611131
0.260768196198023
0.2579314231334
0.258466139217969
0.253615818579816
0.251922025510565
0.24841125474186
0.251069428796273
0.244954157307573
0.248183559382399
0.250008138677791
0.248516307643139
0.248263270695118
0.244997545456989
0.241841647500162
0.250035850171797
0.242131855643657
0.24609823488745
0.244792547309585
0.244727422549275
0.240342844590987
0.242165758287405
0.241355230136306
0.241857828957976
0.235797993686471
0.238138732067076
0.235891362582306
0.239614847056795
0.232495476956592
0.235637344700522
0.232657034402197
0.235158422098267
0.235408093809796
0.231204552581353
0.230109868120826
0.229288344301599
0.229905834023311
0.232709588679362
0.224976051305986
0.228211662025997
0.230079938408748
0.231151889117776
0.223821004974488
0.226483372582652
0.224197401966893
0.225176091091616
0.22374877126858
0.223366030121632
0.221417522872044
0.224147401978922
0.219811829666828
0.223212133805149
0.218380279808521
0.222894450174979
0.213421450639327
0.215474481794986
0.216884110479224
0.218400091348457
0.216402358045085
0.216360812747529
0.210418523446876
0.214003765250874
0.214624616850956
0.215218464008714
0.212545838528509
0.215393583780013
0.212847925874741
0.21298793194348
0.208906431449641
0.211476822461366
0.207720416301105
0.212211388676648
0.211077086056411
0.211050310354201
0.20636666120506
0.209426612562799
0.204223633278451
0.206407240294419
0.205785848686315
0.208595019373107
0.206334105935918
0.207801942129059
0.202552683076209
0.203154774260794
0.203873705735593
0.203139373078473
0.200630304988162
0.201639487304942
0.202296737880341
0.210146652395632
0.202268182172103
0.204464859900158
0.202443168110851
0.202744368026046
0.20225895706592
0.201505511902479
0.198202025690919
0.200086808560649
0.199740732390809
0.202193599222262
0.200402575247089
0.196852501731131
0.194123991685693
0.202156582064798
0.197021837921396
0.195076007778121
0.197268119876897
0.199617307758951
0.193838744904805
0.195803392937841
0.19587555626998
0.194812904176539
0.192132409139876
0.192244855372814
0.192724395723576
0.192901642815041
0.190869473528297
0.189356348888768
0.187328237594679
0.192790953438025
0.188676555624277
0.189358778022
0.185981194598402
0.187841108714308
0.186944505953201
0.189292002186994
0.186852360507097
0.18670303819609
0.186879701081905
0.184689475865686
0.18566459453451
0.186757144758347
0.180952082679171
0.18509395168745
0.183571160356345
0.184680126811655
0.184166703812394
0.183098358285281
0.178902024351954
0.18505357621898
0.182453080463381
0.185121790012602
0.181860556457005
0.185339326358517
0.178467926436286
0.18274873115493
0.18230861488906
0.177798373411773
0.17983346977135
0.181608995297722
0.181911968037946
0.179058534132459
0.176736845615273
0.177265698289789
0.176846359260211
0.17785908491268
0.17592266251263
0.17694059701678
0.173504395653328
0.175570831899037
0.174965096358477
0.176923929002481
0.17679733322636
0.171784655988649
0.170577861653432
0.173648762303288
0.169264262420063
0.171977196968395
0.170612290118761
0.171374145242211
0.169384919612491
0.168001886411305
0.165201677230415
0.164022774762566
0.163034455326096
0.16580394308816
0.164510438366236
0.164518740076891
0.163203424545845
0.164511175654447
0.167196647891189
0.164310242622045
0.159668283908796
0.160496189693248
0.159973419785273
0.160155356700398
0.162222963273538
0.157884952566875
0.156258755952698
0.157973894132026
0.159107062520815
0.158309864029181
0.156610394313308
0.156670631529835
0.154773921712832
0.155638253558278
0.154930310809461
0.15531933904997
0.153282503034033
0.155855993045133
0.152653625393858
0.153220402304407
0.151590721959857
0.151582526804157
0.152917126131258
0.15189585786836
0.152218591778031
0.147968259985462
0.150323263500902
0.149525573355764
0.146179388380155
0.148850721070162
0.146655677075747
0.145353392076319
0.147286809466274
0.147625640132733
0.144866897482741
0.147606063520096
0.144096751301167
0.14255320537892
0.143754504311334
0.142065978749793
0.142956884095398
0.140207017553788
0.142073781062407
0.141039334847733
0.140223113405838
0.143067642881883
0.140083126479555
0.139378460299318
0.137312383484722
0.138637549592748
0.138327680354583
0.13692027223789
0.136569629033396
0.136794588565053
0.137183811921584
0.13145982651886
0.13468883728406
0.136522719622521
0.133659327663918
0.132638311695926
0.134044406631054
0.131261232254915
0.130260092744515
0.132097912899382
0.131709955468618
0.129321985806405
0.129354822488753
0.130456286908233
0.13183881896537
0.127973732240179
0.127401389303589
0.127657554622761
0.126764485750514
0.127993141374964
0.127908820510096
0.128858955186797
0.127963169605528
0.126643376114904
0.129509555860852
0.126362626692665
0.127600765679452
0.127028631606828
0.129088544911633
0.125155298768775
0.126934607501673
0.127849436455268
0.128069477966048
0.125392407786387
0.128136205083495
0.125790066295875
0.131162157434654
0.129789028688207
0.126667212393291
0.125101974836977
0.128321662591913
0.12427318119451
0.126546214311352
0.122527104201174
0.128116385826824
0.126625119659716
0.119529050346939
0.115766788802816
0.112226392813901
0.110653048032141
0.11623921596821
0.121440561106972
0.121038944813358
0.107596503392499
0.110885200185605
0.113155048853247
0.117013404404193
0.106822357099264
0.115072176057721
0.106589671721528
0.110107240203104
0.111271604934776
0.106300854942117
0.109061270137722
0.109879843947889
0.111113885016457
0.120977520287042
0.108666922291777
0.121853148432096
0.11196051262995
0.118867841137503
0.110776262413745
0.122747461389971
0.108916174030176
0.121817962770205
0.106986722674251
0.115312370702174
0.102016574214004
0.113319126427277
0.101614941264737
0.123534999066876
0.101774854298532
0.119450061343891
0.0974539339282342
0.116534888253843
0.0907280320933981
0.11637024239647
0.0917841211226508
0.121684380952509
0.102228747402174
0.130100134031399
0.0960987183294127
0.124861351485823
0.0891943504121551
0.13482592341935
0.0985234814317662
0.126858297364439
0.0937377168432705
0.127978980570943
0.105867197514989
0.123737367811342
0.0997258677202577
0.121348176956764
0.121177768172456
0.108022642422263
0.119566635876471
0.105891526022629
0.128561859399398
0.100319696645251
0.135203645059636
0.102011381580052
0.128712655665765
0.105537384336789
0.124716105525213
0.107477259161807
0.118186494307573
0.112897890458798
0.111620891241826
0.113515914162135
0.112826918996062
0.110310333897828
0.114469761016906
0.110958927584784
0.114290980155255
0.108963099324719
0.115670339868599
0.10573030529616
0.111476817767563
0.105805895321163
0.110749228695052
0.109808165920056
0.111776054614309
0.109698053505674
0.110619831186594
0.107420014094905
0.111593957054405
0.106453935299693
0.111412485646346
0.108780390931202
0.112579816202413
0.107481520786518
0.111365223226995
0.107775658798549
0.11061834936483
0.108837243586385
0.111520074580943
0.108338815760818
0.115464130847443
0.10996909487609
0.111271688050994
0.109874937105805
0.112439233754743
0.10835917703249
0.10992038638078
0.109403288129823
0.110997628564797
0.110425515463108
0.113659721398088
0.109256506984151
0.113914738815971
0.110100336937155
0.112085408350851
0.110619134434264
0.112030337037062
0.110692439820413
0.112292800601931
0.111167297069105
0.110909244258269
0.109462338683396
0.114887423848994
0.110776433877135
0.113076182887089
0.107359940222307
0.113000216906331
0.110531103171562
0.11273811743626
0.110200624351527
0.111732581996345
0.113136473670633
0.110990931328907
0.108609559245759
0.113366714787291
0.110159687975332
0.112657910390722
0.110027169168965
0.110844417355361
0.111888584444394
0.112853968418248
0.110293430500823
0.111930393870579
0.112343235151008
0.112104148439438
0.112128442733276
0.112708969138792
0.110588437301621
0.110179011305654
0.111157844611711
0.113226622159198
0.108642075371177
0.112058886065127
0.112828957099192
0.114869152741298
0.111376381792552
0.113734177519095
0.111640262000509
0.11434934725985
0.111521385604539
0.112299006669421
0.111732049753939
0.1139350967069
0.1146102403743
0.115280213029281
0.11455367966535
0.117957501437328
0.112943583112255
0.114567700004191
0.112631356371268
0.115740425304389
0.115638438896148
0.119043105044775
0.11469460181189
0.1155160619937
0.115677889970611
0.114793198164918
0.114469605532851
0.117114995314585
0.115970644686555
0.118608541666374
0.115471111395079
0.118428668497747
0.117353738618058
0.117504870539512
0.116639450411689
0.118115002817907
0.115739631141064
0.119199324749088
0.116235587022978
0.118958667301075
0.117310907215867
0.117369882936765
0.119132453934302
0.120915410960758
0.117879744869134
0.117502539935255
0.118166945207083
0.11665948539849
0.117289755023491
0.119781512660428
0.116386671751742
0.117280971716988
0.116706002684893
0.119201176495543
0.117141403297275
0.119139636241535
0.117892184112944
0.117044264830382
0.119447339973859
0.122008391619131
0.120884676802924
0.121544053052956
0.120054768961675
0.120180567635366
0.121896446396808
0.122921551970418
0.121788617739736
0.120733464099298
0.119908876343594
0.119566534568915
0.121376946934583
0.122195554525179
0.122401954790602
0.122903109067707
0.121172137560745
0.123284309855733
0.123236331454213
0.125303632110704
0.121928922395595
0.122338011597614
0.124090927685679
0.12464715166557
0.123267126818385
0.126273405642676
0.12306186397433
0.123013306105135
0.123113866927249
0.124034077119331
0.125705878518253
0.126636058879869
0.123410677675163
0.123258903116151
0.123509918866514
0.12180787507654
0.121553011002686
0.122713483604614
0.120084347673108
0.120859396643877
0.119801084859484
0.123293447608346
0.121064439156048
0.120117843478487
0.121472304485074
0.119459300041142
0.120792093578325
0.12043655601493
0.11894143804313
0.120552695767278
0.118743395843656
0.118015261834876
0.117418143631184
0.121499020812491
0.119930049419607
0.120332123724717
0.118143803211084
0.118797394972632
0.118882446727278
0.119133495572359
0.117629353822423
0.118176716939524
0.119392317431818
0.116858663076123
0.119052947316243
0.120055933246842
0.11825445610513
0.120056423008001
0.117977955226403
0.117371430770342
0.1177798355764
0.117053505856549
0.118376299416853
0.11502845962234
0.114896545518189
0.116062914356717
0.116513442977593
0.119260636605358
0.119103414234997
0.117346891916292
0.114716494455377
0.116658890803584
0.115723379441463
0.115330283624662
0.117190612494948
0.115336245796809
0.115684915621279
0.116483426896121
0.115792215715351
0.117608220573223
0.115301081496615
0.115831018610395
0.120431951591715
0.117924796207615
0.115511060483836
0.116869387773646
0.114340228318868
0.114427581086907
0.115134845364168
0.114127549882997
0.115701286010289
0.113932842944422
0.111960053790014
0.113118383881159
0.113842279104877
0.115878616930646
0.113147048271305
0.114303516863616
0.113562323230672
0.11291457676814
0.113931596896317
0.113391486734213
0.113230095803915
0.113960652390814
0.114631998002302
0.113527915469876
0.112570171991327
0.113966705501469
0.115004411518761
0.116885344244861
0.11765895630447
0.113873562768293
0.112515318962085
0.11455493648614
0.112424645662796
0.112825545219346
0.112085176288135
0.111047522191144
0.110510916704552
0.111555568396762
0.112129090526376
0.109964134560442
0.111014890786024
0.111086193703545
0.110098128383823
0.112835343989916
0.110522471801884
0.112373939592845
0.109735796668127
0.11102345976297
0.110319088043046
0.110242991317772
0.111377502152633
0.108735286582986
0.113920862401296
0.112756578669697
0.109936242543363
0.109687627180087
0.105827947353117
0.108527542203101
0.106793333784006
0.106039439703526
0.107626745610756
0.108710625166379
0.10612710786589
0.104983833111422
0.106271145763544
0.107283047229167
0.106089669908612
0.104466846400706
0.105295883828115
0.10404800145054
0.103319315579219
0.104062503390826
0.103138074474473
0.101665059147104
0.10333241251139
0.102851188184295
0.102300515648327
0.103944702646176
0.105494161703882
0.108046987678393
0.10444371994983
0.100683071062891
0.100586284482907
0.099110142570453
0.0997499275858204
0.0990412579300177
0.100837292828363
0.0990719772851663
0.0988691137452685
0.100330808756764
0.0989214974314959
0.0972676858947569
0.0978437381108706
0.0981350752157023
0.0969331000772793
0.0962178515853306
0.0957927681456603
0.0955447815302578
0.097155950342868
0.0953028208028218
0.0940250934321251
0.0931877331050474
0.0955241931061293
0.0967479449050629
0.0940224469034569
0.106542735131968
0.111876158464054
0.0962086250277072
0.0951129071805998
0.0999962283561186
0.0963303620331949
0.0918652519960306
0.0935874181897472
0.0941691623954587
0.093373345094921
0.0939308977134285
0.0937429066852341
0.0941262521277891
0.0921309021718441
0.0911076869724471
0.0915455467138721
0.0925839192447435
0.0933810799144374
0.0943950640624131
0.0940878408444286
0.0909887408322428
0.0932996776092862
0.0936168901767546
0.0921235636830849
0.093001111957169
0.0907602100525665
0.0946079329048131
0.100434551772045
0.0975337445586183
0.096029037437981
0.0903329812653443
0.0894452114028577
0.0913623290275632
0.0914321753387859
0.0909954673580847
0.0889412662954705
0.0885106517354805
0.089397681242015
0.0884971313443226
0.0887411319732409
0.0922319788941668
0.090661150296515
0.0857229047078722
0.0871050998003029
0.0867778540745007
0.0884581436449974
0.0884947146967318
0.088758174081757
0.0875491363131861
0.0872270687649695
0.0900386663473009
0.0915744076183604
0.0842269691355229
0.0985160750840917
0.103514994917878
0.0948862222520578
0.0877688275009141
0.0873049122529067
0.0836497735881525
0.0862052004998765
0.0861041191947834
0.0871488839552426
0.0859945222020766
0.0863638800146092
0.0862423522240755
0.0855237475999246
0.0848107645159767
0.0893232274763569
0.0842640502633564
0.0865776716123597
0.0868014534024955
0.0872556446310099
0.0861773716851727
0.0868384009545852
0.0922385975893855
0.106209974839678
0.0926163901939358
0.0899855570141009
0.0845746597878361
0.0929469876175856
0.110397126720865
0.0979220436531267
0.0857327941796562
0.0873734774758554
0.0845775302203909
0.0857857360661757
0.0854251925920781
0.0821349950733315
0.0896468981069221
0.0915201259407451
0.0893796908674295
0.0901898955494952
0.0854983633504766
0.0815228665317567
0.0866941702395588
0.0854303349810267
0.0824469223217097
0.0833999515336765
0.0836547097166804
0.0844595742091133
0.0814213507607455
0.0834312087313347
0.0844628123054964
0.0832956262488972
0.0927740116790513
0.091888891745665
0.0851713412830066
0.0850448984204556
0.0829405461886808
0.0823526902401932
0.100844877456189
0.0983723909587028
0.0875363452610811
0.0814598907292335
0.085942860612867
0.0855093286993153
0.0873057738121155
0.0835012234613049
0.0822976923947701
0.0825836715680998
0.0842281705465544
0.0837215417069459
0.0849846145558033
0.083703185764691
0.0813681540417429
0.0835243206308391
0.0826462513358776
0.0869613692539455
0.0816947013362874
0.0830126017393228
0.0830719166310495
0.0911228535008244
0.108227180755315
0.109661620738375
0.10445698499444
0.0967409965158313
0.0912093236928271
0.0842633021163186
0.0871049591261359
0.0844761424673572
0.0864508755121579
0.0842007628193012
0.0859990653617526
0.084592951150082
0.0863794126484126
0.0817427689713264
0.0830138138767719
0.0813237017501025
0.0838899152269495
0.0805976034331699
0.0873214878119889
0.0807694013521785
0.0837075875625493
0.0785429683013159
0.0881499183485115
0.0923649851491969
0.0967699648597862
0.0837426523972428
0.0952663997543901
0.12372334118406
0.104689388594786
0.0984294873108414
0.0843784280439061
0.08583562406335
0.0821967737942458
0.0844613227856307
0.0864003893012117
0.0932105542638769
0.0839515018019708
0.0859267433292849
0.0856355554908528
0.0913200487292904
0.0834873481138746
0.0859791257273448
0.111446452633611
0.122161839376945
0.100122620408188
0.092338529882276
0.0847093561105836
0.113286851181593
0.113931290581351
0.0966014483869252
0.0895394989642728
0.092440287099134
0.0877040485080123
0.0884260374415474
0.0846508689680812
0.0891622233084164
0.0977198240145466
0.0909654880875597
0.0885945377248922
0.0875431424946934
0.0907566013611767
0.0911548016190849
0.0939559249237534
0.103516257962992
0.100435462065137
0.0959442474117146
0.0948647305911845
0.0949682481214726
0.0891883002681612
0.0907654148302633
0.0898161941110286
0.0918113759345425
0.108471152560796
0.105281018057137
0.103303779736267
0.112596348192102
0.100915481441
0.0923660358979719
0.0974470609450656
0.10820942416816
0.10098415868563
0.0916009071203532
0.127613612622185
0.117127315737212
0.137893568371006
0.108008644159356
0.104431395045531
0.0903838792717158
0.100641604778022
0.0830357007684467
0.107047246154346
0.115199137228965
0.105671182471425
0.0959893614290911
0.0950114811140157
0.113186461117036
0.112025945159287
0.107956779145298
0.100203708777858
0.0983846317646035
0.10301160543192
0.122344256813635
0.0977871684735241
0.117100953078233
0.133764659696268
0.144191398461528
0.134980572716412
0.10437642910325
0.11872648857784
0.130177159138098
0.116218133569035
0.105785291921131
0.104909049874391
0.106794021836409
0.0983223600239117
0.132555895181095
0.13843610887696
0.113682346337593
0.11106218909896
0.106763620364401
0.120299372107938
0.137662004886621
0.121474755323144
0.11127115370574
0.116852257508336
0.11035287363468
0.127251799382981
0.173480665595345
0.135828524801964
0.154456592541153
0.14029060144346
0.155405408747167
0.132779042412595
0.139920899794391
0.123427225521556
0.156415825690508
0.147598329471727
0.134013497057925
0.122278712793639
0.170872150169197
0.142364394432075
0.146995433164928
0.131494847339509
0.134747606293111
0.142384708081744
0.200928824275694
0.199738452394097
0.178639589759232
0.14154787271326
0.164290894634295
0.171412803862311
0.156168631751165
0.14586183433732
0.148604341658916
0.149884288212531
0.15005080416196
0.156374035390874
0.165311840723447
0.156691503716007
0.167509406189677
0.152220069519346
0.177691048800325
0.194368636926135
0.25954018385321
0.191835135150008
0.205226453712732
0.205794800753356
0.204249285553139
0.184578742358281
0.178741985758322
0.180221354559564
0.191054505916144
0.186480640451258
0.181264593277058
0.192378965969794
0.227044352603138
0.200824561661129
0.239249025595246
0.20394054140064
0.21744484986565
0.193703965457137
0.279419594543579
0.324358629370271
0.261629080940056
0.234724296148541
0.236674410329682
0.290709854656784
0.292657470601052
0.26306074523576
0.243631673643779
0.248024238423371
0.246608615369273
0.268307058362713
0.279392287936875
0.28553742045663
0.298810802695772
0.283559973270273
0.297592689490189
0.340334869585331
0.409937755652712
0.403069644866131
0.333962274039668
0.333915279244052
0.356644164166437
0.359414190040213
0.345543979429309
0.361756487876075
0.354373261821808
0.423770338537113
0.410067706691384
0.411950007965579
0.383075087206411
0.428474451107091
0.420479446753633
0.428740641671925
0.48671360332539
0.460068174057043
0.462583734960981
0.440894562766583
0.467852487165043
0.452199755127618
0.485949658382414
0.498889589745942
0.508944055077133
0.493881264145159
0.496181849561289
0.498135347527225
0.502293891685582
0.512501938990865
0.51781215957133
0.539427485276496
0.586563377355822
0.656305869892659
0.760714597415052
0.577850629277697
0.560159998751719
0.527012686907538
0.577207825676089
0.578252220336291
0.608475000139233
0.604867882526333
0.571500482701314
0.550196231428748
0.553117790304456
0.552281823082364
0.555660885525452
0.564175930487048
0.55136916320249
0.56519179949571
0.596472822187158
0.569410830831508
0.682171574993393
0.60944546372137
0.595909981087845
0.540536660775276
0.568854019581321
0.541851963809331
0.561340643088504
0.529644207672826
0.589860234880583
0.554043699900895
0.557028554366924
0.534289408944851
0.537276248069639
0.580444701970137
0.555579988209155
0.537157109952364
0.528646501497367
0.519593231436946
0.524539041707275
0.492445537287108
0.574083192279187
0.559294529274537
0.529412887376543
0.49168344604477
0.495584172829131
0.479197142533182
0.487178499432917
0.473765240976759
0.496608843485433
0.476277093544755
0.491859719522754
0.473135143380018
0.479413662779792
0.467252974354532
0.472943813835876
0.473752276180615
0.465445473754637
0.465085849458849
0.463005053794034
0.457891685375279
0.461633570317607
0.456929716540074
0.459775494102088
0.447528122220381
0.456686362003529
0.452986451591694
0.459650573744046
0.444342311524143
0.446305346323834
0.448127199732282
0.454012840604078
0.443885641625972
0.446531256469701
0.438137836678737
0.441211381010117
0.437960066299227
0.4324967101803
0.435778581244422
0.431838126125226
0.437256076089529
0.426125273581951
0.430328162749924
0.423938418696374
0.441661877798177
0.5150183784033
0.441820145718429
0.436258535878903
0.400630188253166
0.425998929940888
0.394788195452873
0.428733130186342
0.458600211252874
0.438370285704656
0.406461831035989
0.398640748091517
0.394025813009363
0.425213001828478
0.384335009612029
0.39991047489819
0.375328767281269
0.391491447204466
0.46133863457034
0.450202091215885
0.54812116039339
0.452979795836149
0.408512394165108
0.351795188214904
0.434306658654885
0.38758932855016
0.374491094172773
0.355796422244049
0.361984664305064
0.413976440339787
0.365617434859501
0.365030493756377
0.34510808923654
0.352375006478352
0.397681383716606
0.391349826872709
0.371954164064196
0.413885241406557
0.370619072528858
0.392313471257556
0.424949748625147
0.438071296409088
0.366395607415861
0.339543627819288
0.334016011705556
0.323070660611836
0.362426314580731
0.376095041328117
0.340466503360622
0.348173142551775
0.306270617023077
0.318604114816224
0.317208262749941
0.36319889183375
0.308251508318153
0.361847056462756
0.330853984814027
0.316364871927077
0.334265776731236
0.339089826559867
0.390332990219683
0.372847216510293
0.313683437862042
0.292922517441528
0.373608653582687
0.349775712198426
0.326216347242922
0.316295102507313
0.281995364475962
0.31770969939432
0.310995339095244
0.293479949527061
0.325248948839178
0.31616158268442
0.350701399306693
0.379775314067141
0.399732798698861
0.357340715070054
0.294102542627205
0.283592947881294
0.279439148231922
0.291626564947486
0.282393558929991
0.283188844156365
0.34304817299693
0.280380013719601
0.319416221776647
0.334158836255051
0.303231102614808
0.290818609603358
0.295116142117636
0.293876116594252
0.314561177917694
0.354146948305215
0.372738566734291
0.322863127510243
0.349414900570876
0.337480693179748
0.335916730069831
0.321836320531119
0.337243191866901
0.325123972521995
0.348103200257313
0.363726777363558
0.356323643791433
0.35636507901348
0.372836248092117
0.36455346653103
0.439214890023884
0.397103630289539
0.411155825263716
0.43934991709579
0.443937804917266
0.508582738671017
0.434967348071373
0.449126020758675
0.437729709540237
0.452898317502005
0.450338745674672
0.455873423658772
0.504819935785293
0.504616929127081
0.484883419132561
0.482040330800804
0.493886663841283
0.495402026640578
0.513907990799826
0.560101124918825
0.531963201699244
0.647489210551053
0.559736387633864
0.576494869620203
0.525851190478258
0.531658283075869
0.539105519423352
0.542991145449391
0.535610450834592
0.531139661621177
0.549900743165862
0.573431346813829
0.547956907732008
0.556169526879826
0.542838006121896
0.559791555275445
0.556701895454544
0.5643519377784
0.560931677566684
0.573927506807388
0.569461349065601
0.565376149108719
0.603767179323961
0.677738370014549
0.600647682801788
0.605980484069173
0.597894558571151
0.62422808509161
0.596259068399537
0.620578093536285
0.628013770150326
0.636178129496531
0.625702074209411
0.624995222502049
0.635055570600281
0.630125781916634
0.663403173479875
0.666659560242687
0.638267494642339
0.668564289632515
0.632097937289535
0.754539097484626
0.693729824850053
0.714485165266597
0.674617124171114
0.681172974140956
0.661732550605535
0.667317583894359
0.661473177251353
0.683553952043336
0.670906143551893
0.675388923395915
0.679078956962124
0.67478872193819
0.675010338870813
0.667784704252468
0.681788681854197
0.705984062743009
0.674394398057489
0.680577517220984
0.6605740418229
0.675441233698503
0.66299913715581
0.71631325710877
0.679841753797555
0.688835453003941
0.669174087400473
0.703604629688285
0.70890519621355
0.691154599595615
0.659862066434311
0.677475840564223
0.660686821677889
0.679037803900812
0.651228136206235
0.698718948349768
0.700469672305919
0.706767762240614
0.676878014023719
0.684659352213578
0.681051709515405
0.69571615578301
0.692374630369705
0.702794348825969
0.700040842986957
0.702670542341619
0.716275813737379
0.712313099684453
0.713294068622666
0.732424912797626
0.748884398364556
0.745509880455143
0.720304428738763
0.721123237513245
0.695348023813679
0.712357328840307
0.713358146371425
0.712082054018
0.685055733474251
0.711317234689627
0.675867649792437
0.708037255808702
0.717519865323867
0.698007003094344
0.70404179382855
0.674159681599346
0.671639855869515
0.676062504502548
0.668328232439119
0.650707956425934
0.656904121900333
0.655549607234802
0.64680381426302
0.647594310479285
0.641619615466063
0.646501505802604
0.634216715637894
0.64681843875784
0.632231584899654
0.64484938510525
0.631819661821085
0.634223731191803
0.628297003220166
0.640876640526468
0.626249729551018
0.628597252220789
0.654070618244647
0.65699740529628
0.655942604447048
0.634702192520271
0.634613753535128
0.624827573284282
0.623790822355038
0.628735480462825
0.626940454503004
0.629379286790557
0.617064261099229
0.620176171900867
0.62178324631333
0.626234836792763
0.614708490209093
0.619906425303886
0.618787116082674
0.618729060977356
0.608235342202275
0.618762092473105
0.614487747258776
0.620547279191865
0.606099419246294
0.628101947446469
0.610053940597653
0.618898207084504
0.617008186824375
0.61283793348456
0.613963597512899
0.615713864184223
0.621367166116144
0.60991377204033
0.606717886980273
0.613564491910137
0.611350127005043
0.614133127080314
0.611795485074974
0.605221637146916
0.602536375484019
0.604107999592691
0.599999930063985
0.601370082336568
0.595115940860184
0.590835745597216
0.582326443523477
0.587140530869544
0.573715423247783
0.579478821344894
0.559559142401535
0.570293278391383
0.562536452023582
0.5528439155659
0.551045943300612
0.547341638610691
0.544263876818608
0.544823564384933
0.543296395722438
0.538100351600457
0.534820217054272
0.533271645386794
0.525505328396491
0.533326519096157
0.529302290292562
0.531526029579522
0.530665237763351
0.526632033241855
0.522412620179833
0.532600683381605
0.526533533088926
0.531854148670514
0.53055548830342
0.531341960923542
0.528007193411332
0.531470336081304
0.537822930853487
0.542686764464231
0.541128444155959
0.548507133586204
0.544538049536218
0.545931630542359
0.550577095751344
0.546649314648344
0.548577080329597
0.553314957104954
0.552856409586401
0.561650755278554
0.554114128359652
0.562179344521105
0.562072080724688
0.560209838727242
0.558979550256667
0.562582326192956
0.559804252060753
0.557912343181762
0.559633949522752
0.56076064863154
0.553936702508189
0.556588714618453
0.554788391159348
0.549162922172563
0.550312031431534
0.547816096062033
0.549684396123183
0.550272851506753
0.544661236712324
0.543518476829879
0.541887370061425
0.546285124120158
0.534966014738659
0.53453655806232
0.53603547418723
0.536503932235146
0.532138903747945
0.528365724256837
0.525025747676734
0.533745136693348
0.524744200763506
0.525226115582941
0.522457900049216
0.522060820510763
0.517987331666187
0.519365477073521
0.517877078693405
0.517576546063392
0.51418655707482
0.513852752900798
0.509571005927937
0.509605354398199
0.503619658687081
0.501221246359815
0.498718187341494
0.498878898319799
0.490247687139763
0.493810212963677
0.488229742692499
0.487223509472995
0.48075713911267
0.480604697705874
0.476803339132735
0.469549261417939
0.469208522221132
0.470592533337383
0.462523014787274
0.462985343029745
0.463862650978907
0.465262452193343
0.460953234314828
0.461614242120711
0.461121488190476
0.461513727941555
0.458995150884884
0.457303437771751
0.451776428658398
0.455570630308389
0.445579994905721
0.443254355803304
0.438169772989507
0.436680104603649
0.431870368057628
0.426478924536327
0.418938868752046
0.412102055815864
0.408491705483051
0.403284002346538
0.39973241342928
0.400947008195023
0.397135085779875
0.400262489371849
0.398455265268507
0.404131851970143
0.407388056093028
0.416111128453573
0.422831282403998
0.430868374035
0.44477326063935
0.458592605174121
0.475112069848927
0.489176486243544
0.506982631762528
0.521876018248731
0.537786719750321
0.559422204798304
0.575453175722254
0.59539042375455
0.615003621165601
0.6348710966467
0.654820373766154
0.680549518593944
0.694197215092403
0.721417887446466
0.737301007709022
0.759920787220538
0.781567577905712
0.792635774636601
0.81134383000992
0.83426653849532
0.845986588965969
0.860626829847053
0.881746918041363
0.890944162163217
0.906334066794765
0.922094264835216
0.920319541868951
0.932862998455136
0.938157816007398
0.948217320168986
0.949713705060446
0.948179800338626
0.951492452655452
0.954590938196051
0.949503830179607
0.946939803588189
0.943733296777439
0.941679789913387
0.932075660048544
0.941462280366988
0.936959773646953
0.948715665480181
0.954834021641393
0.94612963033218
0.945342143920728
0.941608474722099
0.954934566019193
0.955673028677459
0.963080627246879
0.975268572516667
0.978733874035165
0.994065303554632
0.984880286937184
1.00112345431253
1.00397086498565
1.02506641537794
1.05961784112224
1.0514930873425
1.07511216498762
1.07620663266032
1.09421937476056
1.11907397840334
1.10438695204053
1.12644662471726
1.11136858264699
1.13082357708091
1.14608894757802
1.15913458814341
1.14742810119504
1.15213644276252
1.15660805716312
1.1344973454244
1.14112816515393
1.14228168712481
1.13280721184824
1.14009875232464
1.13030371189763
1.15569972925279
1.1405046383845
1.15399780442502
1.17717365272434
1.16468807381125
1.19409991026967
1.20535742166665
1.22442549799206
1.2481580170019
1.2557657893827
1.2625519347035
1.27631624502704
1.30171934714963
1.32924860405251
1.34834995215842
1.35774790964849
1.37500949487675
1.38474416339785
1.41096581493861
1.40965929512397
1.4488223428355
1.55013880495449
1.47298160470634
1.51954851025446
1.59525561083377
1.58183422747653
1.59942364372289
1.59044955674934
1.65565507583941
1.6927011667416
1.68562651032739
1.78146878067953
1.74624418339478
1.78044671505171
1.79963190515886
1.79112917003921
1.84400708578724
1.87981176264095
1.79776267041337
1.88524386095392
1.86037095420874
1.87840820485983
1.89686555694068
1.91029407711882
1.85402534119395
1.86075729759114
1.91746924483598
2.00131487904244
1.88587204592927
1.81699678082538
1.83207631802854
1.88375121927248
1.86810775308839
1.86366946990558
1.95954446990114
2.00396595050812
1.93245200097726
2.08644577313651
2.0224805070536
1.93869404981839
2.18634791547678
2.07849268351682
2.12722639330726
2.21173443992993
1.99366697717413
2.34565671868705
2.02530493637442
2.51946961598139
2.18072077984341
2.07275612593907
2.10195757992563
2.54198645988063
2.34888566888627
2.76565239036075
2.32551371620091
2.18503305544358
2.28560420020027
2.27841078197716
2.26210605963679
3.01613463340252
2.17303154392443
2.2035215152242
2.12957264399643
2.68062128496424
2.66005845867657
2.37478101365256
2.12737150058686
2.4210494273505
2.38158142211125
2.35449782995457
2.3175799961908
2.43932698325671
2.26195653236929
3.76238075603554
2.85428931739903
2.91444279470291
2.20525922980819
2.40088686783689
2.61277735494193
2.31968011830379
2.35293714007324
2.50316425639448
2.15447548548665
2.29385436236587
2.00390746397998
2.05525534095212
2.0657821801688
2.12703982822037
1.87918151941453
1.92229430488682
1.86745502823897
1.92736152172233
1.82925275846467
1.73042868728563
1.81681624943434
1.84637774071893
1.70424633475584
1.67403137017284
1.73044905172657
1.784094225608
1.68048744824412
1.62157554133934
1.59889377962402
1.58683184947869
1.5683317169226
1.58661944751322
1.46576814902321
1.51022170715225
1.42966504865497
1.40930781755153
1.36043520687923
1.30145517332734
1.27521117494361
1.22812076658654
1.16742504581722
1.13269663619079
1.06368053654675
1.02100687724763
0.976330187994677
0.933276581018458
0.891543550421628
0.845265263089717
0.817769970539612
0.781507845813129
0.751416656522547
0.723616657269666
0.699067506963906
0.675516192877512
0.647770259592276
0.634305009525159
0.611128519599755
0.595621211978478
0.580796618533563
0.570361174846964
0.562202654603204
0.555668591860172
0.544795774825278
0.53872615131528
0.537669064739482
0.533250002367362
0.521986551709725
0.522641193128608
0.522161665105451
0.532630507519254
0.533529878579771
0.527773176633901
0.528717360614628
0.535318443229351
0.538873487737644
0.545788712429864
0.539401670127267
0.541473678120009
0.544741670169116
0.544029962901835
0.543713451496371
0.546644386177186
0.539886883638624
0.545486218751434
0.542010484115325
0.53894788015194
0.542144981930626
0.539216410675903
0.52463848352491
0.527328130221506
0.527695094098685
0.533216985304488
0.527692827084059
0.532364583052151
0.537724439624459
0.539183512717801
0.540278972704978
0.549085731550801
0.548909288203875
0.545839449097033
0.550663967463947
0.557498555746114
0.548077173650043
0.557487975136422
0.560313068146786
0.567368484773544
0.569626564545096
0.568860108978727
0.562095606737687
0.573512640965166
0.56169047299322
0.561578125426882
0.558342748116792
0.560282513435519
0.567516752888426
0.564186567218102
0.572458959953511
0.561493482140353
0.56699841963788
0.576484138388505
0.578109040774535
0.582749751347765
0.586282312768989
0.599530288751415
0.610973862670476
0.629771194328586
0.639854985745527
0.650741454980151
0.676343623568954
0.684712592511074
0.687299424921506
0.709068948545556
0.704537182844381
0.723257692393176
0.728427553919066
0.715908960839358
0.698214706097533
0.7001994800581
0.690612656903127
0.695789899697564
0.675765686165409
0.661258992433031
0.653798596677652
0.651091200707566
0.64226185245758
0.639474531833139
0.633258482864962
0.63702241113632
0.633983273555488
0.648922203481742
0.642856065131513
0.636922621187887
0.639930596985714
0.646177617243471
0.630873709798892
0.634870371718623
0.628180663501003
0.628581216636042
0.611118601247057
0.623934177989486
0.617283673850008
0.61770853330814
0.598488659303164
0.614861874597455
0.606937061977568
0.601090446900729
0.601146603660125
0.59800524990282
0.585313533178677
0.581382725747014
0.579565807545105
0.582497681318254
0.580545226316676
0.582210199224906
0.574939947645615
0.581128606962829
0.570374464352352
0.570343284776665
0.568471225236282
0.583729531857964
0.558561837237951
0.554924253692963
0.555401412379304
0.554603376746203
0.550231224103736
0.562966268736191
0.533103061148801
0.543016088134462
0.547912384679642
0.529785493181502
0.539463680931595
0.557646552850661
0.528954279527065
0.535379834417625
0.531219325229475
0.525423632433131
0.518167734113357
0.525220632894484
0.506538665928435
0.511612340861746
0.520963254225023
0.503269069883126
0.505134741112039
0.523825660129551
0.513470725991033
0.516669865082361
0.507973718329558
0.531102382214989
0.512429477808295
0.519721208926009
0.528374501061698
0.541691904050133
0.533681543356453
0.536498556106884
0.533592315216856
0.540515265810969
0.53906234457145
0.537913328772435
0.546537887903474
0.547879529819685
0.538219091173699
0.568329028885619
0.559370773410393
0.549259214759863
0.565847715160587
0.571667095908174
0.566184707052482
0.578576005019658
0.581605774020571
0.572146478758771
0.60906408367525
0.625470992955942
0.614803699838608
0.610372512753619
0.615371185064636
0.661019435188565
0.665352351676509
0.693350554338748
0.703837736462899
0.716549259808043
0.721942285782812
0.750616797019461
0.749562189499576
0.77241456991061
0.807254234891674
0.819511385125109
0.809364394501367
0.81900458650789
0.832537126008308
0.872862000721229
0.89583969053755
0.88628538519372
0.854863466454708
0.913049460110133
0.826886537506594
0.828681864247997
0.898969032476069
0.913414212417667
0.870177343906242
0.896456139692655
0.846964216631301
0.862777839998504
0.869056585139643
0.870873151516691
0.845232225623238
0.820413780941678
0.899187586612
0.957382493868584
0.870747779778354
0.84927495185616
0.809896522255991
0.878700534742808
0.820353395198622
0.881477174725874
0.833606401471177
0.815766864957245
0.823343281922248
0.837538055658529
0.770117573100124
0.807694709837589
0.822220348313526
0.823549152382469
0.820666759963574
0.79649765635462
0.761272550258439
0.799960134001966
0.836130790029047
0.837366439234499
0.815726596372273
0.746517135947657
0.745973817255045
0.820375618828986
0.756645683884008
0.762464928410408
0.757764387853635
0.828000348276073
0.841231741315468
0.800044730840451
0.801659913431392
0.8416948142732
0.835894746896071
0.848893628401377
0.805247714757537
0.770465287171043
0.725667194355113
0.813418404432544
0.861608248389775
0.893679275492072
0.766444252038253
0.772906997933683
0.776267564004727
0.877887891000714
0.869520363655433
0.91256476381789
0.927323263312241
1.0295312172913
0.878901049237964
0.784357657518223
0.911415102537343
1.05979368726704
0.910346485727218
0.970081505982991
0.918958258969207
0.906335582934057
1.00975610935226
1.06196134589535
1.00499078586596
1.0354879497641
0.92463402585498
0.84549663028785
0.978141582399004
1.13755160685974
0.990719634714899
1.04374434079586
1.17435805638849
1.19928833071045
1.02663294059023
1.07795852087328
1.23436886386081
1.20597599052683
0.918392644552077
1.05486870643701
1.14825213313048
1.20278067749839
0.987469162781623
1.03155642979662
1.18160980305145
1.16775021880105
1.22609437059902
1.20878874011604
0.9738678574167
0.97825279854583
1.06151991481459
1.06601914295924
1.25143764397876
1.33076335729587
0.989593712571391
1.01617648219422
0.835369061402466
1.16499643907375
1.02959967146663
0.849960594773521
0.977643840811887
1.20407231624863
1.13108129411338
1.25297906407854
1.02698737727987
0.801158492088755
0.790932789096315
0.881399550430809
1.16922917983898
0.969943467542027
0.988010435265467
1.26186198737799
0.845822548376829
0.770836937849669
1.09617408405249
1.04872136563946
1.08037186576863
1.36192960620819
0.840515222061606
1.08520997384783
5
1.29288002808351
0.948129519131981
1.78261582452792
1.42436909982159
0.733509664213164
0.940624323068919
5
1.24184712749395
1.50001171943677
5
1.36863952673279
5
