3596
4000.36533379555
650.420452594757
1
2
2
0.118835892650415
0.107527311600588
0.108451485373579
0.10801971106021
0.103253957548199
0.111814071078385
0.105794313355927
0.0963292020382751
0.10488885441064
0.1052715009734
0.100222501925382
0.106827660235663
0.0965200507975516
0.099829512877243
0.105487109945644
0.0986765304932465
0.100533985726541
0.107782183269097
0.0990464540132971
0.0991920616988233
0.0982279690408244
0.101755078900273
0.094448482016228
0.100521654327279
0.107233378799753
0.105253830715736
0.10339607625333
0.104364369236364
0.0939229991370666
0.102611338048377
0.102297351868759
0.102473305012875
0.101953544981773
0.104039769352717
0.095245487558155
0.101147755327274
0.0940509490785411
0.103694150676565
0.0922398892908014
0.114685824191459
0.108843155980512
0.0963521830800014
0.1073491264403
0.109039572149486
0.101796969732583
0.11416213102127
0.103514179699936
0.10570265834669
0.100143874718809
0.110320428070668
0.110735001812375
0.0959909454274891
0.117679547567616
0.123271321576139
0.104763163136135
0.124171507544197
0.102448848553541
0.0984001904518967
0.0913193501008565
0.105407093136747
0.125042666059566
0.107845470472231
0.0967902866632291
0.104374840933535
0.0917047835627375
0.10681325572926
0.0951077081004577
0.105076946267962
0.0917278385260694
0.101317135301042
0.0910918676140813
0.126665613752359
0.117153745126277
0.110471183325123
0.108405580565806
0.10358060482722
0.0960967262449822
0.0908266233724571
0.0942096860068846
0.117958177789949
0.112081539631497
0.103927443641343
0.0908690944566295
0.0932258697015729
0.105480249264238
0.122079165183865
0.0884401599502335
0.121734037298336
0.117693755158913
0.113566233927448
0.0886805464302062
0.0992853330105913
0.0950789223458326
0.0985772692866838
0.0869350775041439
0.0973697439759809
0.0824942192075276
0.109607860368508
0.0861065713256495
0.120638536274178
0.105935710017549
0.123204366282403
0.134024309864886
0.096660003025957
0.175540745019197
0.110775540988325
0.11593145482385
0.150895341194814
0.105513412920923
0.105230159110388
0.0889681913974515
0.103176478906453
0.0920170252085303
0.11201728233677
0.0848312673958487
0.149080756248147
0.124817445984461
0.107062204330235
0.0956974742475008
0.106287625963572
0.0707235513916833
0.156417505255594
0.12822961470285
0.108598335157832
0.113459289917585
0.0954835593719246
0.098972481280038
0.161807634142776
0.119790414555443
0.10600842447776
0.0882430144709616
0.100225203962305
0.0729165613746479
0.109605480623224
0.135031243031739
0.0977533989349303
0.0954864368064702
0.0936940242195735
0.138053454926924
0.168412490473818
0.107771021357679
0.10249870991633
0.0789665867066132
0.116736626754506
0.139306154971694
0.110023254207606
0.0892650166694816
0.117394479212138
0.0952034265375958
0.0975746308075802
0.0870304710565841
0.0944806470767348
0.119976794257349
0.11298499542709
0.0670581544894941
0.202731265248552
0.152161432078411
0.15075421869717
0.158116926788134
0.102619853607034
0.114187024347792
0.0882160960491824
0.0926862746057233
0.0875578804942586
0.101339445301606
0.0909679370775997
0.111514674706454
0.127930005180831
0.0921597470072827
0.110291724653086
0.137340034950077
0.115437779962853
0.0973915747924124
0.186789683067371
0.0926674020772954
0.103781622408106
0.128573038112703
0.107825639170483
0.0821390673242726
0.1185881958922
0.118123557824118
0.0877288361439325
0.0957489089473774
0.0883931618315802
0.099494355968305
0.117596188775258
0.0951109686592871
0.0979912136210299
0.0968272182145866
0.0882569877204792
0.125657765472058
0.172758349855034
0.124122483690002
0.106504981576678
0.0982041291002271
0.0683198766056999
0.170269641553244
0.129289530259204
0.0964159065534437
0.0934261575157052
0.0838665715477692
0.0931510426675045
0.0788390560669563
0.0899648064966937
0.082943048081373
0.0838112617707139
0.148430314820901
0.100389316597369
0.0970453366470136
0.0945994085103776
0.0982873812225123
0.0903913558926428
0.163271389317693
0.123959040544457
0.0928166271266812
0.103165344944937
0.0877175183212042
0.12386817622345
0.105535042336935
0.098243364439923
0.0899007212757285
0.0861334248275293
0.0931909155267848
0.0855996876857223
0.0830686434049382
0.0904607324392059
0.090634092100875
0.0932588468450014
0.0838832613450802
0.0959519498833259
0.104978314116631
0.096913984641451
0.0873843441809733
0.0940673400791944
0.0793982879818106
0.112674795329226
0.117168199068238
0.0954514197992709
0.0901003562667637
0.0851078720350026
0.0922059998957727
0.0908864256666816
0.0879994863494349
0.0902776094996089
0.0928963760982422
0.0855357544996379
0.144394262831161
0.0855340402786073
0.104930527323345
0.0789795928894399
0.138493332002985
0.0966432449024867
0.0982337023644845
0.0893841883207655
0.0964681582055988
0.0739432045329232
0.109591972251222
0.138386257260131
0.100382694824951
0.0920352225523855
0.1233403159359
0.0973741550104403
0.0934287668758262
0.092938368092717
0.0962120278062455
0.190441572437352
0.102458297079851
0.122748996156529
0.182174199638682
0.113597891862766
0.11074942950014
0.10069644879805
0.0988827726066541
0.255559727161193
0.144550553302484
0.0955916239118848
0.110927922275956
0.12622492704793
0.0857766684598887
0.113417671852275
0.1032778031984
0.136318592286099
0.123883476788803
0.16237790171296
0.18074778389669
0.0889045293298708
0.160465148306076
0.116040194576636
0.110880713936427
0.0975272139369172
0.101337696388764
0.0910992601942205
0.132982002313505
0.119622303130956
0.129234075133669
0.107427795453405
0.105492236151711
0.143318162283562
0.111365058293287
0.106558667521792
0.11307537646936
0.11812233612415
0.0932607381128213
0.112298315769647
0.0888423502852138
0.116539722466779
0.0913400853601565
0.11373035432534
0.184020970575499
0.119712371853463
0.113680033815393
0.148906428388826
0.106559288354043
0.107749139612488
0.09997608781796
0.10699088000783
0.0977673036490287
0.0977924090632127
0.0977895720559117
0.149520001155
0.110066956103737
0.109003555237244
0.0984465232328676
0.0968930955424412
0.104322546112161
0.111636224898093
0.10032187125688
0.109709181991964
0.107539858190498
0.10086793107144
0.144781141436735
0.156117018081715
0.0888718523407109
0.192788264723125
0.140101792336933
0.112945756642567
0.104581527274429
0.105393262613014
0.113281298230569
0.109141714960704
0.120255130928672
0.115897014640487
0.113715906646832
0.142905465448745
0.131356612775226
0.133669589406621
0.138646112313738
0.194978151373618
0.208022157341868
0.143006901121235
0.127286286165211
0.109255093667132
0.188626877442589
0.156802503984377
0.169262685702036
0.165187113834632
0.12354520758833
0.146627176573609
0.125636132633817
0.140586933156899
0.127069874232408
0.140052820088626
0.130402356112225
0.147815869089344
0.136161857399319
0.152790493199635
0.126672890858996
0.167465763954888
0.199362388807968
0.159025717927661
0.139442137488494
0.161170635611413
0.136025106585662
0.215246683949239
0.182953857672093
0.238961100011152
0.197153109324309
0.216622732211519
0.232203382312286
0.170299383357881
0.173384239294139
0.160400250577223
0.174109349747994
0.180252519828058
0.175960238101917
0.168083967230218
0.176778125614142
0.18313585959845
0.181329812361463
0.186591338148889
0.182409089514087
0.177895414699024
0.212815839010999
0.189118449652168
0.202367909676789
0.191967808317486
0.251612626800076
0.2646855594396
0.266792236312173
0.216916597500121
0.227386047783743
0.216917430118564
0.207730103222036
0.21211999422011
0.212948011348913
0.234020623777569
0.222450021170987
0.286181282304012
0.250563993171403
0.2663640242503
0.250038146080616
0.221551317971086
0.267625355079325
0.258069447546742
0.263883419533413
0.282889566444486
0.255321605640977
0.232014544390531
0.288486420903965
0.283947415429564
0.278554556986357
0.294587723950696
0.257306676619159
0.260928747907054
0.264224620918224
0.290783177708098
0.258169147881571
0.304851342759636
0.293795868432244
0.294493156475158
0.293458417493464
0.30628980605424
0.295281224992135
0.33074367605166
0.303952472622208
0.317564828657228
0.308927363850759
0.297202788397597
0.322296242490886
0.314717185325319
0.360722036630587
0.342539656073334
0.352569409899978
0.379977948663958
0.323716614371746
0.337730964946123
0.335883326484667
0.351302084165801
0.340747877813412
0.364097976394586
0.35391097245899
0.348962330957017
0.359013331859826
0.368446609680789
0.344344581202724
0.396650817125942
0.37399971654212
0.378120212557639
0.380090550121595
0.388008609825803
0.392307250551211
0.402142714954326
0.457615850116287
0.44345655056948
0.445702148461357
0.478789509059383
0.408161252181035
0.434974568469669
0.408756822663994
0.441693348399737
0.426718028067418
0.453929018214471
0.435544604066942
0.456375541652278
0.431104369109385
0.458260158637473
0.436193458909451
0.459712470800648
0.44473082000694
0.493033627845544
0.466005209521916
0.475231802004516
0.473826357095576
0.507384351849819
0.494679682398464
0.529501065707488
0.502329394554968
0.53639731879886
0.502279080641699
0.527254353605518
0.503951028220194
0.510338165243193
0.516124924742896
0.52384704486075
0.523590178682858
0.517962722580693
0.544159478618124
0.563373031245098
0.539402718301794
0.57693840956494
0.543354527532587
0.575329910738987
0.578488324158031
0.595215068612096
0.579119922629627
0.608184827114011
0.581933352332034
0.598068380388764
0.576213985563582
0.611837740292473
0.589892601553457
0.652740626560607
0.627757875924069
0.648241868223862
0.603029923353482
0.630643088572211
0.628080257633
0.63721233269743
0.618296004750905
0.636997084356283
0.632769497594639
0.688094688440533
0.64458390873737
0.690432600254913
0.659529886859082
0.704642086999251
0.68588096727688
0.686492601453213
0.670972624007559
0.719121341031633
0.690496860483943
0.714659408322605
0.711000310516139
0.746171160676012
0.706632464840704
0.711500727693868
0.730193326891446
0.744507044143286
0.683985419756541
0.768619465651351
0.719108102257963
0.772661522304946
0.740712797339276
0.771343911175979
0.698921278126166
0.776707898848445
0.765744706010846
0.755815550487791
0.77841563850666
0.827424619905963
0.795981725846203
0.815340286187112
0.7773057468477
0.798020312930814
0.799324171549154
0.864055899934385
0.805932146799672
0.877676920579282
0.803672447325965
0.855391803745076
0.80508749564468
0.843375165866503
0.852035181652038
0.848580111807415
0.816120378755253
0.869295795611695
0.884695578783939
0.870557812773754
0.82526917291794
0.850394998397927
0.855417284554913
0.918008145343143
0.901024532936064
0.978285216573748
0.894072954867654
0.941575874396217
0.878832179127425
0.943496110211203
0.914554308350675
0.912336869191021
0.883519162676011
0.979282147348022
0.978928476199334
1.00205449933118
0.953949649858744
0.997057564561243
0.926598631319265
0.987336350680329
0.955375116955219
1.00789889574353
0.961895759033278
1.03046776665861
0.977385410165721
1.02224842413426
0.971247072142814
1.04216146178865
0.960198105601291
0.995249938714847
0.961289114462777
0.968182934214449
1.0149511502272
1.08591705759086
0.990748004281602
1.04035190787425
1.0262227338094
1.05705768587892
0.988894936565813
1.08220330476735
1.13110799245252
1.07045890844703
0.997896136816742
1.11443664512427
1.10528627607323
1.15417207412743
1.09146111018665
1.20043652445016
1.07608250312652
1.12637653243709
1.1020991048475
1.12920592522423
1.08800637059984
1.11275637905978
1.11095450606862
1.16931014533753
1.16271619388922
1.14793573444503
1.11838327613928
1.10160382505152
1.05610966512466
1.10543241302598
1.100488535686
1.27634225283013
1.13511282379652
1.0843989446749
1.13823600752084
1.23619937562408
1.13024856040366
1.191582249742
1.12154796640298
1.25957754642318
1.19099388200433
1.17731047955035
1.0803655274836
1.22073468786035
1.20009323629557
1.25100749768027
1.19872138748411
1.27616879417634
1.11581179118045
1.26930851266584
1.20246471526856
1.24959455441671
1.16523013520829
1.25517342895678
1.26637206958764
1.3236505033491
1.23991813099313
1.29246260724406
1.30052378017736
1.32614731896947
1.26970457014257
1.26432356281978
1.18395448322514
1.41093583015307
1.23337749858319
1.28890910320494
1.29358561074724
1.31837276532296
1.25676464852583
1.42005596781839
1.25574544611031
1.47687639331285
1.27518014328847
1.27486310434681
1.20230780294543
1.27338516470225
1.29027561255459
1.28920566747393
1.27897416312829
1.39955171087973
1.28305620376612
1.36786176987869
1.362516965263
1.33986325211002
1.35575718010818
1.54104376666735
1.35183610555144
1.4221420330852
1.26697137589285
1.31841755728258
1.35485241799562
1.42430019259885
1.28077645344248
1.34093874254011
1.38889457231958
1.28014052532135
1.33253172640186
1.4484639013086
1.31061980346156
1.35378777903246
1.40003739629849
1.35941013527326
1.36447158289808
1.40611569933641
1.38365665256595
1.39223265459143
1.37052730609367
1.40990650602519
1.41356172951104
1.41612375847591
1.31098154778819
1.40347230680587
1.41463775002506
1.45557709102631
1.41155997601271
1.28189064250083
1.34277565861271
1.52846616080401
1.27781131054897
1.36668593042834
1.31637678176398
1.43977055069956
1.47905965458809
1.61917104545959
1.43431666156482
1.40177878327421
1.27277855246443
1.36797994310474
1.39293340117324
1.25790513145053
1.33774880622794
1.41331964785512
1.38840760279953
1.3610023051406
1.34291810631622
1.42015900907898
1.38716112826258
1.46828637941648
1.43197767927352
1.37815337724716
1.35256147381183
1.32490538977646
1.35860733282252
1.39429488334946
1.32057543090319
1.36560093013429
1.40407467285882
1.45494701279052
1.36588812514128
1.39199603261519
1.30293912437476
1.40681629322037
1.42304134780714
1.41444438135114
1.38400988576609
1.37073544652161
1.31193239730511
1.39878527605428
1.39792586900903
1.35867485168982
1.36753561323512
1.42081828473243
1.37678967683265
1.34956205385939
1.31809516364803
1.41212893307522
1.49862495400649
1.47513514830024
1.39310075131805
1.32743880784536
1.39921805087193
1.33537061703062
1.277280598682
1.41394359904493
1.38561786859995
1.33082385269203
1.34674125520948
1.44159342476522
1.36611950681914
1.34097283919545
1.28177733781
1.33068076267426
1.38616241767668
1.37714512343413
1.34615223152019
1.42273633812515
1.40147534205609
1.33193826383939
1.34485368765982
1.41697278679975
1.48771684528254
1.390233027609
1.28307130697329
1.31613463969542
1.31967582448303
1.45348276328484
1.37764402190375
1.27916351992416
1.33867284320643
1.36249083525215
1.35162392963059
1.33167146900908
1.33060110484523
1.33304112349413
1.30054330554359
1.3608939636564
1.38577389070654
1.34429414323351
1.26772090212342
1.3663393848751
1.31679064644906
1.29723301880758
1.30119111256811
1.25473985774009
1.31609310123618
1.3266642084691
1.2925706283632
1.2732252072843
1.30776365417216
1.33923304834522
1.30511292333117
1.28984945156377
1.30273202230355
1.34163624842815
1.29254441676256
1.27595732400092
1.26158436918766
1.25678479100105
1.28602312042632
1.28413982465681
1.31756117114378
1.26464244654718
1.23328909593107
1.27509575751408
1.28221282541438
1.25310405896329
1.22146130946344
1.28014877923553
1.23137413847507
1.2081154236001
1.20812860014794
1.22087657062463
1.30628854009581
1.2459253867647
1.20727259578372
1.26068444953186
1.21019611657773
1.2629207476705
1.26153722932182
1.2183157107024
1.27125652966502
1.19575073214528
1.17918183570281
1.192010746764
1.17223232778265
1.21220748429186
1.18681256297493
1.17395741576645
1.22017004134644
1.16889088479716
1.16488703683246
1.21432751524257
1.17780833419764
1.1990661571137
1.18448086767784
1.17161458873295
1.15645130656495
1.13362203743066
1.1291039894401
1.13458878173489
1.12288309688844
1.14934313313385
1.1239960281254
1.13366376964022
1.14152566752512
1.0956906900491
1.14536552763071
1.12516582894862
1.0774169000784
1.06296586392006
1.08084882270386
1.10566724962757
1.08704437859618
1.05974506442902
1.07539885256822
1.09728453807375
1.06777207126212
1.06660538496705
1.06415309069721
1.02944878384033
1.04177905879149
1.04184810629609
1.02005662515556
1.03890899283111
1.03132467938256
1.06328932533398
1.05323447954523
1.01929799530487
1.00970692430865
1.01111905700441
1.01901855457341
0.985443179638062
1.00466011274126
1.02093977211285
0.983976455862661
0.97471818404003
0.991502557714836
0.969721674894003
0.942574130112525
0.960173045891189
0.964606118801279
0.935201563212024
0.959841315200273
0.991007736213847
0.928200290698417
0.917858641999653
0.945440684508423
0.934748296602684
0.927386152471996
0.913395515941704
0.903880567587042
0.918118124033235
0.91259193357549
0.89059372178183
0.901119137612916
0.899620606234061
0.889516585496175
0.894620336051057
0.881078437873229
0.882387963490267
0.886384159845185
0.849534186160969
0.868893113241073
0.857573483283271
0.845214509975323
0.875912493538998
0.862769317635531
0.834457284434157
0.818363337455376
0.815897558905195
0.832617220539566
0.816757636511555
0.811897868005857
0.812520017522393
0.801706466855586
0.815606225279603
0.802923359865548
0.795362834060751
0.818205150292619
0.798820980769809
0.780931987582531
0.780164237797042
0.786437238848708
0.795181482464927
0.785238512428905
0.743389838514781
0.766568390990716
0.756376017081067
0.743194230321706
0.759085990155958
0.751369783253411
0.747425619671574
0.751697298295888
0.737098824198084
0.722294040236769
0.724182476026858
0.73035507686193
0.715038695188596
0.71657304982549
0.715365684482591
0.718606836140834
0.726547439142404
0.693899271980475
0.688441645816253
0.696616981909832
0.685708099139274
0.698262399636233
0.691234215073154
0.67681679932144
0.667630808727443
0.684867593683537
0.669497581040803
0.671128012859468
0.669583407401077
0.65546994033508
0.663415324998848
0.66697820783443
0.658186001764094
0.645292698183707
0.636156904821441
0.642775404112633
0.637019105378716
0.628194715755593
0.632621271863573
0.64307917481493
0.624537011368223
0.625512021685055
0.616262693548924
0.620902218808998
0.612586898046554
0.605189428653319
0.602392694837251
0.605453652750959
0.608665818770053
0.594178405379277
0.592927281962594
0.591658500377797
0.589823834785082
0.590887561537839
0.578413161242602
0.586725388740615
0.576037438405412
0.57230622637456
0.581214490111772
0.591530265573962
0.574764260087753
0.570712907825489
0.561254551959051
0.562119215801607
0.556535158808748
0.560284892141251
0.553681033918967
0.553857669115983
0.550039153948524
0.543745543680547
0.544660014156017
0.543622254711578
0.538644964895557
0.538430956460467
0.52742172204456
0.536512456597232
0.523126262603211
0.518804081172442
0.524894747422364
0.517267879935816
0.509670078164613
0.517148491743227
0.512776035248909
0.527612147069834
0.510955784273277
0.500140624098711
0.503154234144437
0.514679873033301
0.512083559015097
0.503652922061729
0.490393777684076
0.490545945370746
0.482411543026611
0.491363896190983
0.485047841784013
0.488323185196234
0.482836518671135
0.478559458181603
0.479457416755051
0.477923647466282
0.473482528917602
0.475056381248976
0.473475731405784
0.482879111777373
0.46884712334203
0.462425694415027
0.462412095912975
0.473812638669101
0.465244930477738
0.461772984327223
0.464557518090975
0.469234279230791
0.458321508275623
0.457296996462691
0.459047967465645
0.461067674509078
0.452110378968068
0.457613305114468
0.4559777122319
0.456255492221334
0.44168553968811
0.45479216695668
0.453293581847145
0.45277800197017
0.448661390489668
0.452391979452239
0.451947286913613
0.452342402196555
0.444971195603885
0.456412113042621
0.454240393298401
0.45784730023882
0.451679509485364
0.456146953829394
0.456413685559196
0.462894516769137
0.458376115329875
0.454535494478921
0.461292517368478
0.463263283817089
0.467477185349197
0.462142488364581
0.465579061064177
0.479230580957262
0.462796767562202
0.472292206931228
0.475984899374397
0.473839955737128
0.470959027203111
0.473794741724723
0.47852037271723
0.479324977887563
0.477538615858013
0.492257786845077
0.485423226135673
0.486278972115254
0.491158469559302
0.491780928009896
0.488797705313849
0.487942407817889
0.49761373852015
0.5007457275888
0.492804976776324
0.507438668127571
0.505905140059075
0.511476361329128
0.512064567589252
0.517478504269087
0.519030453526982
0.517554328664612
0.526715190333226
0.534707709956407
0.538717588318441
0.538117450991358
0.543498415619509
0.555507077416232
0.548713284342331
0.562726740247289
0.559705091638252
0.567808333232481
0.561423063468372
0.579511255444903
0.578827823161249
0.576689635158074
0.590128454723177
0.585516732697559
0.579321807519929
0.594114476946166
0.584053506786081
0.59661108977294
0.600115876969191
0.605335029322821
0.591376311463861
0.60967871606563
0.603915248331477
0.599104034652406
0.598856966726789
0.623243923421419
0.613061830798455
0.605658422576767
0.609356402922227
0.616126307811299
0.607213088211945
0.599222556929203
0.595270466411349
0.60517606191142
0.597789377221614
0.603295825245126
0.595754601493505
0.611901105092324
0.603693217565804
0.601224307095554
0.599203278923313
0.602327231379087
0.583050563687758
0.5960946453128
0.595291317218633
0.600874854982618
0.588803254662094
0.595293597535029
0.590020807017869
0.596172281837707
0.592572671573043
0.599726227213317
0.592905107980126
0.58275343464573
0.583846246549002
0.610751934447255
0.594840660978872
0.594376344044929
0.58756912095833
0.599963841534961
0.59041854343623
0.598318617806946
0.591609121920654
0.589656273510984
0.589079991045773
0.596799366876534
0.595731553346245
0.590091193061622
0.591279297460415
0.593274436915366
0.583119544804871
0.590870382478903
0.586786130871816
0.589134938367815
0.582340402700094
0.581978957290767
0.580797552255121
0.580332413922945
0.578734116960213
0.5822277989246
0.572466878765441
0.579348472839631
0.568692136004121
0.567791542269149
0.556368649326946
0.575231916733163
0.559273814624506
0.547405295416972
0.553998626864502
0.55207561904923
0.533804927283769
0.544470347203221
0.539965243877192
0.537145188589659
0.528074444342611
0.530708950723051
0.532167877147375
0.525462941305859
0.509883243250472
0.505591196939943
0.5052942531527
0.516145516764047
0.5043411949836
0.498027677231845
0.488815447566967
0.489178656942471
0.479800742592697
0.491188079079721
0.488705437559098
0.480721999049048
0.477131701592124
0.480811198207261
0.468341552386826
0.473715838174072
0.474627633104198
0.461539992155137
0.451138031011834
0.456667560107665
0.458005033185728
0.456690778059598
0.443207955836782
0.450280670951494
0.441907667811695
0.446962694161581
0.43824957885625
0.440843520561873
0.435492276968008
0.443027138234341
0.437789452411095
0.431752567166071
0.426712125308696
0.436149741504181
0.425166212628823
0.426075287254095
0.425802624274458
0.422473629323358
0.416877920560906
0.422018312640287
0.412708335711571
0.41127434427912
0.409947729058622
0.410482125534372
0.407923094170642
0.408327296856428
0.40881856572456
0.39920101309857
0.403860385855989
0.400632372321726
0.398990892386678
0.399045137659929
0.389938614630748
0.391919709973322
0.385669473079556
0.394329793168665
0.385088822662976
0.388350182262619
0.383943617343724
0.386277559250765
0.379504858964075
0.382198980711474
0.373040318705985
0.376044386876013
0.372659831397042
0.371678985648723
0.377585909160549
0.373986829135799
0.372369802129612
0.372417504462175
0.366602126012427
0.371923458128674
0.367069485280256
0.370648615507341
0.36166484356313
0.368462205282608
0.357536065410701
0.359820050382446
0.3632106517411
0.356965227397588
0.354597136491293
0.355863888817023
0.351899209003835
0.358774401766935
0.350925735538599
0.360855905360459
0.352428074495647
0.352662574634272
0.352480631697689
0.354412956004345
0.349976804674066
0.34766712610524
0.342025898332348
0.352060044035261
0.346164070963835
0.349014734916424
0.33834808970329
0.344402907066707
0.345953989237971
0.343568502864258
0.343493738421816
0.342419148298845
0.336967672754984
0.340315891981655
0.335426552929806
0.339941225446271
0.339302512441347
0.337290069652434
0.329974295022272
0.337518040587053
0.331942005659574
0.336131317900879
0.329144695385908
0.337929430082093
0.329627355776359
0.333715571077609
0.330863502605841
0.324956370848642
0.327636228718372
0.332821737117834
0.326370936720135
0.329694011594383
0.319663908434387
0.333141622989128
0.32254737467029
0.328310714619189
0.323755246653356
0.318219120744517
0.322164438327714
0.326304073286363
0.318248821270233
0.32158804959735
0.318408616019017
0.321730263219752
0.320814398940446
0.327129875188801
0.315321304872748
0.31656502686192
0.316824513924823
0.323060430985718
0.315843888768642
0.318444431850308
0.314570125334808
0.317118908390182
0.314226522576509
0.320917726477817
0.317449891138051
0.318962790145435
0.309899735786208
0.3159395377903
0.312118175828952
0.320385280919653
0.309466883013686
0.311667645073292
0.307894161381574
0.314583965945659
0.312205282071498
0.308953334697372
0.305652178842316
0.30948833434336
0.307797499400944
0.310365757740277
0.304916874773891
0.308111200704044
0.300003920035295
0.309335632865984
0.306581990689997
0.306543380075665
0.299981662581775
0.303795676874454
0.300710288425652
0.30331986910525
0.299303609335443
0.302528364491249
0.289467945967677
0.299703472635077
0.29384264100297
0.29216859125665
0.294792992051643
0.298238463870816
0.293288584390984
0.300369618966175
0.294155604058085
0.294907199645804
0.286836465394712
0.290488206291272
0.28566792763306
0.288621147887517
0.285172619093904
0.286523639088324
0.289165597409321
0.289126065833783
0.283908423351893
0.288475522618429
0.282516828329317
0.285785340701822
0.279195334681766
0.283083160259781
0.279233602471772
0.285255617029384
0.282446874714934
0.285019511436942
0.283166129443389
0.279362415033243
0.280719707011271
0.2815869046079
0.278676989570724
0.275275964399201
0.275205997505712
0.275747584706692
0.270188851365195
0.272817193268019
0.270818257701344
0.274646467462958
0.268924055634187
0.270452951857758
0.267609044907722
0.268711619458916
0.266583004007767
0.271932513462762
0.265350837803433
0.265865091986613
0.261966954951367
0.264018326761751
0.259284636505542
0.26214034060363
0.258827799101109
0.258027744572429
0.255054873393776
0.258776413448442
0.257924947868124
0.254170976447678
0.252221892889847
0.25550459094893
0.253084328820722
0.251725428929789
0.253851009832968
0.255265924648032
0.247824297212709
0.247696037486248
0.245273175836442
0.245786534172783
0.244412424462657
0.247035811620817
0.240474152298794
0.241700605374236
0.245507346005465
0.242844368382426
0.235836509317526
0.243578526986425
0.241608563601213
0.23497614249145
0.234665331140897
0.235380943160717
0.230540746085899
0.234192782955113
0.231960211277369
0.23490291794568
0.228466682718745
0.235900872232141
0.22738354573793
0.233115503767134
0.234929373519205
0.232506095858606
0.226611799921791
0.22785498594155
0.228882578296139
0.231049733582389
0.228628996728593
0.225455718429345
0.224819395672892
0.229944225281169
0.223802512457653
0.226250375927221
0.223999237092735
0.224500535947215
0.224152418400968
0.222635241598529
0.222195860601154
0.221551739026972
0.220899403585829
0.221565052441537
0.217488088231835
0.220757352080366
0.216712549813551
0.219872612011032
0.214536957706713
0.215640754902984
0.215116148414578
0.219356846170304
0.212055114432403
0.217904430205171
0.213456567955243
0.213708209739492
0.210136457799538
0.208321165887449
0.211251311072797
0.215135797475017
0.207333968323533
0.211399260664413
0.20716467124678
0.211049947814623
0.204132573651961
0.210957960948646
0.210916916941515
0.206106885453004
0.206297501404141
0.207751412213355
0.20702893365065
0.209060262536974
0.20582206080787
0.203734179307131
0.20356344343077
0.204242719807962
0.202161558812492
0.205352913821044
0.202035902879868
0.204649087385362
0.198867226442736
0.203142945693687
0.200997246523894
0.207189409403066
0.199071513582001
0.202544442373506
0.201352117520203
0.200180419486863
0.199805455297616
0.199593745514835
0.198021711191126
0.205177216938107
0.196897072719152
0.200282781403984
0.1988976717349
0.200525417379909
0.197076572494051
0.195724298231077
0.194473036000387
0.198256229729952
0.197623768239514
0.196204027694815
0.195996135622344
0.195644796319233
0.194447832519296
0.197793408228721
0.193616434586784
0.192340768648626
0.191385622914031
0.19222679343397
0.193135483720633
0.193127033342802
0.189463537122016
0.193073447145767
0.190122022380539
0.190422613701687
0.19023951556948
0.191044765054617
0.187780841522057
0.187820816312425
0.182393081787161
0.189103899437336
0.185274232765213
0.186426854244491
0.18613225818153
0.185982135865842
0.187124948173684
0.187333291957299
0.184363503506583
0.186763965492112
0.183849037236583
0.18495339078931
0.183620772230438
0.184642901054535
0.181464635740148
0.182314843521069
0.180649348657061
0.182104425917348
0.179824957168247
0.181407323703332
0.181144529341897
0.183136475966154
0.180037039599245
0.181400717249021
0.18266555212336
0.184182575532416
0.179898504675495
0.180504792709963
0.1795197230705
0.180271853042572
0.178465915661306
0.180758221533837
0.178953826561546
0.181134806779667
0.175517429175215
0.177919220520348
0.176793090070208
0.177227043402004
0.177698017996031
0.174883561449148
0.175791795292736
0.178202704361652
0.176571781571841
0.176084423709404
0.176352280531136
0.172284547247455
0.175277167115544
0.171299705603911
0.170916525876003
0.171982141160144
0.17025957850737
0.171159770853648
0.16657148023794
0.17186728738062
0.168445371239446
0.167591040251897
0.164296832183094
0.166441580172081
0.165850351902766
0.16529076188296
0.164401390640474
0.166802357748943
0.163720631087852
0.164200863280614
0.163143327481983
0.159794792298889
0.162372990477298
0.162709769650472
0.163801808407438
0.162485696018212
0.158666441536158
0.159729158823563
0.158741680531164
0.160989921770648
0.158420896647304
0.159463950528557
0.159178732916595
0.158109302304093
0.15743040544688
0.156515986308742
0.155415971086607
0.15665119209363
0.153893211539279
0.155960612719204
0.152413729963807
0.151273107270534
0.153104493248315
0.15494374402678
0.151083952818276
0.151496725823583
0.148507050512843
0.148629623766662
0.151745201537058
0.148677120353433
0.148080754768386
0.147739153365497
0.149523425268698
0.149683803032162
0.148901941065646
0.147998266532678
0.147856615727404
0.146473713359784
0.147666076502009
0.145530805285587
0.144039494330426
0.145957370263615
0.143378030289289
0.14314750415669
0.143192383919278
0.144490717702073
0.143089012096233
0.142536217087857
0.137434128392659
0.140382686287969
0.138426898086813
0.140608436660848
0.136465586098487
0.14068526144454
0.1366711146612
0.137200536853682
0.13621496629822
0.137490062567399
0.134599236643541
0.134731575812498
0.136567559661497
0.132725775467607
0.135198626067444
0.134136622632361
0.136224325426061
0.131376187877194
0.132084573395735
0.131629174731269
0.134070948817483
0.129016672921075
0.131720022662353
0.129324612732627
0.131621375182438
0.13097183943675
0.127929968403934
0.130561263364006
0.130470769039062
0.12880461525102
0.12954169406792
0.128965591603926
0.130084503400349
0.127426113624191
0.128947270070902
0.128183546209076
0.131866921161893
0.129596370845249
0.128018267528441
0.125482216107203
0.1295441692564
0.12833855975812
0.129710661750316
0.130409142887517
0.129473089724321
0.128210369386238
0.132286219686063
0.12765208919489
0.129773757074875
0.128611462049911
0.125947224803449
0.122769135365515
0.124914254965632
0.116435233020405
0.118113588380817
0.110921467960946
0.11958072228089
0.121923289378073
0.119204085506856
0.108120382307755
0.111498091375673
0.116631157221802
0.118638523049668
0.102226646096555
0.11475075078811
0.110333507255479
0.111494475669087
0.111286273349438
0.1069383860371
0.109502753900268
0.111591318533401
0.109832770329949
0.118895290798093
0.109872514458889
0.121270879258434
0.115885741849958
0.116797386682348
0.11086916907119
0.125533167121198
0.109950970956526
0.11962047689276
0.104713158989763
0.116060670468099
0.10456759783795
0.120299796987448
0.0996725827296535
0.12025982311674
0.099128642007229
0.121721324712222
0.0961779167899592
0.116950546252925
0.0925771991196466
0.117818695521063
0.0906099886020122
0.126879664609602
0.0981350618252275
0.133240555645572
0.0928513458632691
0.123519670480955
0.0892022605885809
0.134641246894012
0.0960333835255518
0.12761721217047
0.0901295424133841
0.126623099249043
0.103417159650247
0.125316860336151
0.100984674492255
0.120829389526913
0.119124029317083
0.107972301946618
0.116740400969584
0.108244372814253
0.128960180104672
0.0989702341828007
0.133850708804736
0.0994734138662108
0.129032994842111
0.101202693247359
0.12297035763816
0.106889553577405
0.119638410258913
0.111692471489725
0.112903333431226
0.112373158403289
0.109862474941292
0.111115670687734
0.112987846649717
0.108085577368619
0.113249705544974
0.107745329052608
0.114961250951374
0.103183476516462
0.112601211748909
0.106594843252767
0.11154830533247
0.105727974313845
0.108456076331524
0.10829883910319
0.110733407315473
0.105623627598684
0.109032827061213
0.105167070406436
0.107628380150842
0.108982545241591
0.108906846345879
0.103371076068163
0.108115319827639
0.105687833538618
0.107722547056819
0.106719166301432
0.108275607369204
0.105643355080077
0.113673815789174
0.106991380746016
0.108556932752347
0.105840849402196
0.110618221108857
0.104999960932931
0.108618603011761
0.108114589548841
0.108354842876561
0.105413446833255
0.109267815672903
0.106363287377611
0.109516182301281
0.105838173402543
0.109632146078847
0.108376376045491
0.109575768860027
0.106814003211209
0.109179542049543
0.106272228829344
0.10887012217175
0.106558378347428
0.112352460578692
0.107323506938111
0.110600861777617
0.106083751742645
0.108366256550277
0.107865807830218
0.111890255665495
0.106190192055458
0.109599464676806
0.105846587650795
0.105546566930715
0.107121416820947
0.110761930814828
0.105045850108363
0.108597476967672
0.106197748820364
0.106964043480389
0.105728386655015
0.109107349877216
0.106441559149939
0.108158483781207
0.107972604691989
0.111669266517668
0.105857216557474
0.106878114447749
0.108542698277584
0.108784443343683
0.105300810925898
0.107119022509855
0.107850424915267
0.108971461906172
0.107091085392394
0.109281955935511
0.105837400582356
0.107082326181148
0.106574674662429
0.109391849287145
0.105321128447037
0.10800026176546
0.108425259344709
0.110173697851714
0.10847889204
0.108685544571999
0.111499537107447
0.111686223586407
0.106964378021952
0.109946985194758
0.109472368972317
0.109591639761383
0.110666368491875
0.112508597419468
0.110362784225911
0.11226290807033
0.109049240815576
0.110846068258925
0.109239948251933
0.11230476860097
0.110318017620248
0.112764204378139
0.108288620204626
0.113348572138308
0.112421124390248
0.11226389770283
0.109715452603397
0.109286249641051
0.109667533205732
0.111821294383112
0.110633256313828
0.111900335999561
0.111234858343162
0.113084940129876
0.110770594807252
0.114332370520556
0.111100120331548
0.110314971222926
0.11140250301471
0.112528576954446
0.110650749107091
0.115593594233721
0.111814398347708
0.110579384949749
0.111800384442698
0.113904840658549
0.112352429490423
0.114063031450536
0.112332980162215
0.112050882390092
0.111427617892857
0.115294765851917
0.113786878301446
0.115201650584553
0.113688855288952
0.113619672750397
0.114368683127221
0.11335654522047
0.114445999731128
0.11578353365587
0.114590452156987
0.116434551436272
0.115173650443774
0.115178976850035
0.115123016897858
0.117286837836852
0.117485118076113
0.117933219264328
0.116829359535578
0.117944054220793
0.115172065016686
0.11793281483505
0.117310069165586
0.11773824786377
0.116534415252538
0.117759609013948
0.114448952811551
0.120426836834546
0.116313421124441
0.118797130849423
0.118847342845166
0.117845366842635
0.11717872628066
0.116812877379295
0.11683995419361
0.116392765846351
0.112262461667183
0.117240683450251
0.115546762931237
0.116715846700753
0.116457286569461
0.113536149432377
0.11227319349424
0.11473121280299
0.112712591433926
0.113003482129538
0.112133711290734
0.115881699794422
0.114624522179223
0.113949585246284
0.11114524921884
0.111682455278752
0.112248202948619
0.113768351973422
0.11455927613764
0.11388512973234
0.112115949182621
0.114060423998166
0.109924687688912
0.111825494972176
0.110426841492478
0.110581056564926
0.111863760702947
0.114066765293589
0.112971511796967
0.112503390349294
0.112478716106437
0.113057431063426
0.111718111940861
0.109901498732435
0.109376207536968
0.112149682649899
0.112171668801252
0.11058078535685
0.10992113169582
0.108739531971589
0.111601327948281
0.111212878654079
0.111029783633996
0.109648638392525
0.108985709929813
0.110418705667799
0.109518162457458
0.109019744705489
0.11003522661174
0.109487181588016
0.108132236283426
0.109425721484084
0.109187276536998
0.109967808999994
0.10875019450238
0.108549682899786
0.111199950813633
0.11061928155401
0.107978345787057
0.107611394050274
0.107415512961363
0.108840489987523
0.108699852601975
0.106727616926986
0.107848026706725
0.11013290892543
0.105210728219788
0.104742246823965
0.107670469051216
0.111167490581125
0.109118540924165
0.107624214986677
0.106238298281443
0.105750624727734
0.10817530895755
0.107166712691602
0.107880456101022
0.106803436101342
0.107114911596249
0.108194468433595
0.105698158384078
0.106892235004604
0.107142570862236
0.107806658973325
0.108995083088947
0.106905815894697
0.105430455176899
0.106486360041117
0.106641280174921
0.105663557581471
0.107012900049991
0.105181014733908
0.103828847189689
0.106446762189292
0.105328763713377
0.104540354818591
0.105964189100515
0.106166973251612
0.102472510928547
0.103945018310939
0.105606071912256
0.10524355853485
0.101524421440864
0.105196643407306
0.10539834590036
0.104167979954949
0.103380542627072
0.103414886623831
0.106466224637015
0.105410537756196
0.104786018893725
0.104644794323089
0.102675294765848
0.101619519696201
0.0991739989280956
0.100766773387967
0.0996422941281931
0.101842063444788
0.100422771209082
0.0994878909121327
0.0985333794461231
0.0991101826483117
0.0990334326063751
0.0975796338173724
0.0984098729561326
0.098189687145744
0.0986319784269611
0.0980470880591361
0.0989145395247991
0.096941022604831
0.095873391895453
0.0977555289922395
0.0962797968257399
0.0980054879648466
0.0994711257033562
0.101807950833734
0.0978681647942096
0.0937755326568259
0.0936436691118655
0.0915794917890805
0.0924217061853508
0.0938533208711367
0.0944745873990851
0.0914653755579931
0.0930650059082485
0.0947233787476749
0.0895851770940657
0.0892442615522491
0.0910636616236823
0.0900521553121131
0.0911422289311554
0.088962426066499
0.0879195065786988
0.0896898607681344
0.0903990678334613
0.0885386813669915
0.08751139620037
0.088088507113054
0.088831249561145
0.0885429364214298
0.0865774681158844
0.100900436735354
0.103850231764946
0.0886221085463996
0.0881967737400866
0.0929274268569866
0.0907395574748799
0.0893843789231448
0.0883503737748538
0.0872547396313179
0.0867574994589779
0.0870094456967694
0.0863770931401694
0.0862774561069705
0.0854758292493566
0.085391224731037
0.0870092212036023
0.0868801993229019
0.0878953959242342
0.0877241407129241
0.0869625336755773
0.0858178511553918
0.0871342646767157
0.0862736140368198
0.0858467695934714
0.085902471487522
0.0848570608849418
0.0882964299716805
0.0954461537414842
0.0942208160402007
0.0874767722182184
0.0854771789792696
0.0843846190335283
0.0847293924909143
0.0860190157100052
0.0849258604938251
0.0831000661000238
0.0832221572755413
0.0837656269731996
0.0817544219068881
0.081587162861549
0.0851549009055478
0.0862369009725572
0.0836942874571876
0.0826762376375882
0.080223850040516
0.0823673187312106
0.0811998255963616
0.0805575939790476
0.0823824661459859
0.0846263954790781
0.0859056658810468
0.083626724250641
0.079949313000545
0.0935721077211081
0.100852850038328
0.0876850022724387
0.0826347753130328
0.0833713692328222
0.0779811612000525
0.0808860067410587
0.0830017540640553
0.081320212647248
0.0792055292006082
0.0813298922467291
0.0798907317430109
0.0801124864589943
0.0813538329269981
0.0841192493524763
0.079555000975955
0.0828606769459538
0.0807343264726168
0.0812325865864486
0.0829428721099304
0.0815412487897729
0.0876735442067605
0.099657639338837
0.0876947070324566
0.0846496926699691
0.0795725490551649
0.0841125631501567
0.101628625908874
0.0925466505228076
0.0792513301311836
0.0834460395584523
0.0785078620406565
0.080560133264319
0.0815388296736089
0.0779922275762176
0.0843797257114155
0.0858996840782577
0.0825312616148373
0.0856732970920164
0.0818613657734426
0.0781354555243564
0.0800950927557568
0.0790830680558565
0.0783106166234639
0.0792437483073217
0.079804295944016
0.0788890537053768
0.0772940373293101
0.0787289574958675
0.0789413399046511
0.077733865942914
0.0872149101736294
0.0895732066237291
0.0805515253640424
0.0800323472446843
0.0806844234484541
0.0762732414088495
0.0929134586926464
0.0953836619125581
0.0821911517801479
0.0775193666867935
0.0800582535267152
0.0802350336535009
0.0823125886933494
0.078276252506923
0.0770200898070928
0.0782158790951436
0.0800682992949624
0.0784863551415306
0.0785089571365988
0.0792547529632983
0.0773679504638199
0.0786409672599323
0.0783470346783023
0.0789007342037715
0.0777839972053631
0.080656241585209
0.0784643256206798
0.0870121500524787
0.10503972097204
0.108150239584052
0.100527457418337
0.0919145304841834
0.0870523560408875
0.0807401601334549
0.0803960020914624
0.078905568969231
0.0800881618981782
0.0794379560554971
0.0823655567660436
0.0796136702633715
0.081861945483795
0.0779082230923251
0.0785112718961015
0.0763484016398178
0.0780548788981958
0.0750160152864473
0.0810685714135145
0.0760706228989155
0.0797314903802181
0.0773685492202272
0.0831210775071173
0.0857298054542336
0.0919609655927897
0.0780136501905647
0.0859293975467322
0.117854527078338
0.10816654927199
0.0915254236003094
0.081014704503029
0.0814131635354597
0.0768079931415827
0.0786409535282989
0.0807945950973857
0.0883104076677512
0.0812861476787208
0.080608452102225
0.0793321125270206
0.0862138988545125
0.0783925100153924
0.0794914325398904
0.106990911530801
0.121740821784871
0.0956942670043618
0.0857173962919761
0.0800895946784227
0.105259597671309
0.108289884579459
0.0900182009644616
0.0836475108410402
0.0874826603694265
0.0830439722472875
0.0833300523643643
0.0785540195496663
0.0849404553036238
0.0921395332343382
0.0848092531241317
0.0842026420806068
0.0816168486215634
0.0837795399972444
0.0890796728708632
0.0910258949019904
0.0985318022837223
0.0951939731200413
0.0890507865346127
0.0917903588646808
0.0904850759599038
0.08444248341423
0.0872381966576115
0.0859398985467538
0.0865518386000143
0.102520147144519
0.10180601368401
0.0983875753337216
0.108028049624429
0.0978928122440226
0.0882431210368694
0.0937631384746714
0.103243270492098
0.0975861390434598
0.0857561831500184
0.116268962397852
0.113760959498386
0.129437215876477
0.10325468887207
0.0993333599803677
0.087018307741301
0.095659879923726
0.0774474675767545
0.098894718515398
0.106802288766962
0.100627908351052
0.0882531009112046
0.0891547161904599
0.105338310561495
0.105832868647734
0.099484180538381
0.0964124533585825
0.0930506221536744
0.0964500269181545
0.116767286733963
0.0934451205597784
0.109438539947418
0.128661174426018
0.138069362383338
0.127287895399147
0.0992475796488963
0.110772888560989
0.122876864849213
0.110502092209215
0.0992698323388266
0.0988939225568775
0.100128798414976
0.091895203390824
0.121087211472103
0.13597549247214
0.108374463049617
0.103566536324459
0.100311481930852
0.109662010627938
0.128882767255876
0.116808831965723
0.101498240143233
0.108888437467192
0.102968631827008
0.116758405532275
0.158770912628317
0.127233862668086
0.139357271859007
0.135090034590512
0.144272136815859
0.122132541822248
0.127003134634222
0.115460234591503
0.14693038369914
0.138476665036038
0.123131155467515
0.108166188402814
0.153891008362616
0.135087757048722
0.133984434593293
0.123717782317993
0.125572323929684
0.127034096323903
0.187600801430038
0.191839948109462
0.169922630469362
0.129765179463562
0.14786811122153
0.161204198598061
0.145109733842273
0.131608731905176
0.134218085904263
0.134248494782801
0.134553906720498
0.14347113347702
0.152987192440944
0.142866338032117
0.149793057453551
0.135839652764443
0.160412412431556
0.179189307926804
0.24068169729244
0.179256591377325
0.184939919931914
0.180698541474778
0.18940883737605
0.167455708409798
0.160613592238584
0.161354180627835
0.170138249088739
0.168217499883802
0.161169070946489
0.166571943583254
0.198216736110405
0.181741004866949
0.213910767473564
0.18739011249982
0.192280296176943
0.167354021349716
0.255426296836076
0.304165912671275
0.239856645089492
0.205395696565446
0.203053352609756
0.252339543285555
0.260721767942147
0.228228560954773
0.202856963927369
0.211089637065069
0.210470531349747
0.2227833683562
0.231934130586345
0.242037125298033
0.252778546566889
0.234518113924738
0.244606929547541
0.279449815867798
0.349539993820476
0.343243939018475
0.279999356317811
0.273342476859709
0.294032669821225
0.296388109485205
0.282036462702519
0.293481591049733
0.28101159024058
0.344172296298578
0.33769303102586
0.333980897096664
0.30492902273223
0.350243503647862
0.340568454094712
0.351226920406891
0.398928759036805
0.381212609577604
0.368652169832018
0.344487779442722
0.366348043503313
0.353499241100703
0.3843908880809
0.407324423496799
0.411985895280113
0.392788778698511
0.394555145567345
0.395931726579142
0.399025646742174
0.415212619920844
0.404145098682063
0.424076358805387
0.465381976373488
0.501556180093429
0.615839474326735
0.461354144917768
0.446832848879389
0.418363791708043
0.45205242214821
0.465698453587969
0.48430192605528
0.500568554200385
0.47587492738984
0.44969362168778
0.436446042837144
0.449175664564211
0.441864046334427
0.449824774954371
0.443449828358749
0.441783421538899
0.482596749688519
0.449188740895054
0.539334510308359
0.511130455807333
0.481155423352757
0.441919344647114
0.461724994899791
0.435799373655217
0.448525999380678
0.429675456822353
0.480244651795509
0.451756803767172
0.448491963174863
0.424272707747213
0.43927363431394
0.469735789565097
0.469481064173307
0.438052932061636
0.423381457073545
0.418394232628884
0.424239194542376
0.399518372850329
0.459421249856305
0.44578933553679
0.428443821930757
0.39938597603133
0.4050301664192
0.394554901502885
0.402170285810599
0.38684842331244
0.411786606567509
0.383196413857524
0.393410647161401
0.384552497647889
0.389168592549713
0.376562805565861
0.382611158999503
0.383638196906046
0.384161549700608
0.376839228967789
0.375245860556892
0.368404400167487
0.370582659219824
0.368123485255155
0.372610922286151
0.36565719546321
0.371511464772112
0.370992515724821
0.373184343043152
0.360031007218383
0.366506853828724
0.363698680655673
0.361593064420532
0.349030781533297
0.349915046318135
0.353588203716411
0.355757714336396
0.350238373801959
0.343931976600998
0.347383536998298
0.350014097613959
0.348792808656121
0.343397335369749
0.348034922771429
0.339091351927722
0.347726046562511
0.412600891722111
0.3612283940361
0.354068374012419
0.320786931288499
0.339916921172017
0.312499072041176
0.341970076550241
0.376428298349379
0.354799580443145
0.323624588625002
0.315642668393446
0.31034686480464
0.340618554221985
0.307255408422904
0.314297557900064
0.29330371617485
0.305918447958829
0.371618996726547
0.365466142572311
0.466315413232864
0.380658882496581
0.329042464934021
0.275671033042155
0.344712838541562
0.308314185815579
0.295569781414549
0.276682458155409
0.280187986839055
0.324876204128921
0.290084417370527
0.284738353107966
0.262081007749051
0.270405625718435
0.309254422317361
0.310465008500179
0.287045443132809
0.326561353813168
0.301418623714253
0.306848807428413
0.347041771166256
0.378568814786864
0.285882294646414
0.260598031054733
0.261656446287121
0.247155678251837
0.283904993377998
0.310567709598426
0.27019831144372
0.276334929844643
0.237812596319782
0.251172030402079
0.241197973621956
0.290581621710918
0.242158826506133
0.293224278211972
0.266265084015438
0.251711531621045
0.260383269082885
0.281225974571168
0.324035296788057
0.311470265052872
0.257039139774426
0.234547836727205
0.308392873893281
0.282721938837205
0.272316192124868
0.256948165769857
0.224143042192441
0.261783737572581
0.255983786248273
0.23926584723913
0.276240056588862
0.263309299585362
0.299026573037105
0.316867942137328
0.347267810724443
0.30859187732046
0.246805191154831
0.237874289714136
0.225941384054436
0.247894593517361
0.230161757901221
0.23435342350592
0.294516235729202
0.239572626381344
0.277726031743447
0.280819315218273
0.26323133270962
0.249146636723147
0.249797137073548
0.247722588560995
0.268513374328159
0.305881709693514
0.329292147185919
0.277431846899613
0.306029718155111
0.293032352648781
0.291355591202233
0.27675521318021
0.29061718922174
0.281770148526091
0.301050085811489
0.312183927580725
0.312388383716747
0.314084187882193
0.323874244904943
0.317304579391559
0.397635852012909
0.351973165333007
0.3624203954998
0.378026598819702
0.396603102237449
0.445774910845457
0.38395550021551
0.389924100993743
0.379101396532256
0.394123320324097
0.404343591371257
0.394716096643024
0.439752912019753
0.446135953682297
0.433940275677063
0.427923786712799
0.437878182800622
0.438995725286174
0.447085716683576
0.494365872125999
0.47642500072031
0.600437144541304
0.510928405121153
0.516917299973132
0.460508373839401
0.472092793445004
0.479631023191049
0.48651743053253
0.473688472881555
0.45999981115367
0.489480275397783
0.513897928847077
0.481055512177189
0.488225149023185
0.476421931005406
0.48669757299033
0.488424216790019
0.489160775000584
0.494927913669975
0.500207801251881
0.511707081004454
0.500379844274486
0.530924694912293
0.598726086733264
0.542202631390649
0.537741672330414
0.525391943213646
0.542669157355613
0.525442154762686
0.547405460458658
0.571292851906311
0.564102455628604
0.557898373025017
0.552232226220512
0.556555773841855
0.558617684944351
0.589733966185201
0.591629507993538
0.563457443653194
0.580457475716598
0.557368595921926
0.660684034580566
0.619351834172657
0.633780865715584
0.590723323207471
0.601258417516763
0.582993156236211
0.600337990671312
0.582368161502855
0.605426715268757
0.598005077387733
0.59568056703853
0.597346120280445
0.597858962630658
0.59284553531022
0.588348645663673
0.597067726281871
0.624151874061561
0.589386526097803
0.596502639999459
0.583139700999289
0.59392557649941
0.581768082045737
0.627321280659486
0.602014634722915
0.600606282888559
0.585775104272683
0.603002201693354
0.617287499710578
0.605120296272323
0.574560555302672
0.58740417468531
0.573342518129597
0.59739093048339
0.568505201860675
0.61431886734611
0.615670881109736
0.614025287191898
0.594418703611606
0.603422093055924
0.596732060221217
0.61263981107065
0.607092619966363
0.614083396579998
0.612475329189401
0.625553481710375
0.625209598256795
0.631641013672666
0.631765890903575
0.657368432007532
0.658089297509708
0.663169259397263
0.635260655619569
0.639679093690693
0.62842671863171
0.64762794645315
0.639750882717708
0.640429472104163
0.618754022638507
0.63636211675741
0.613103492126416
0.640513608736328
0.65489703168653
0.632181734945084
0.635773076439001
0.611212393724848
0.60455510654298
0.605259592215361
0.602503001811868
0.604300415447278
0.595892891823897
0.596880050460766
0.59146167681613
0.593701579061816
0.588062634969838
0.588939731556745
0.58358234680135
0.589913162555541
0.577021436887054
0.586320663938665
0.576115525507723
0.580711937423215
0.574964318447514
0.575357204253257
0.569916639978695
0.574064157014158
0.59331607958017
0.597979057894383
0.59816560869026
0.577919855878992
0.583815999788156
0.579080572406393
0.565795684589896
0.571651842529704
0.574154428670934
0.571520802579707
0.564435213602806
0.57429404240672
0.570368558463577
0.566496110918167
0.56100642271721
0.559967262974696
0.563143146764352
0.566147631248011
0.560325701292238
0.562150747663728
0.556159268634073
0.564610212700216
0.553949674786487
0.572025549491945
0.551952288193892
0.560503788008837
0.554521583041357
0.55465866213764
0.552005891861791
0.558636423605103
0.560129785126703
0.552345034901741
0.550296735992416
0.553856136035706
0.545506292577848
0.550912340322293
0.540593543798001
0.546531399341605
0.54336345825899
0.545447910110368
0.538082039600341
0.540644297009926
0.539085663362594
0.533817626101941
0.524193127185689
0.525403076903256
0.52153362353169
0.519199313160952
0.512134864839819
0.510642049961977
0.502743768865986
0.502770415540919
0.502021682689478
0.496713488516816
0.485983306663463
0.488264021622589
0.485572722790976
0.489501153498088
0.477449564279581
0.480044309251826
0.472417076496803
0.477281761681815
0.471829675494348
0.473132189995767
0.46651130056195
0.477163878140901
0.470157158972142
0.473727731238235
0.468354267207762
0.474541938312518
0.470317794706351
0.479959855122142
0.473881907904173
0.48130586138958
0.479893614282841
0.483042241551452
0.483564753286536
0.487309806596869
0.487735999745492
0.483671730579456
0.487011034165191
0.48943568970719
0.489657620628572
0.498197064927353
0.493310662349825
0.499853006201368
0.498175778851555
0.497781252606251
0.499247461142934
0.499397830549965
0.499066520526196
0.500863640387777
0.499792589981817
0.498050465007256
0.494342233423138
0.499083409497214
0.495938607697112
0.49802885696178
0.494332962491168
0.494102814300487
0.494914474289168
0.495950411857934
0.493064046748366
0.490184848413452
0.487072193942007
0.48998183093131
0.482478907807668
0.485721332944373
0.479631736061223
0.482536149562021
0.477822580234643
0.482715299388622
0.475203815151107
0.476739003479018
0.475529114883198
0.474581452065881
0.466531933570242
0.470889796336971
0.463940148146797
0.463103463534371
0.461941484883899
0.468487326319779
0.461195784086656
0.464040559164325
0.458234761488223
0.459204391644063
0.456035947072689
0.454338997246782
0.448907522804714
0.45142024391501
0.448149894677536
0.444883709506904
0.439903371361819
0.43853308337311
0.431908042495403
0.435180842452934
0.431422830970564
0.430124534274766
0.425582607167046
0.42551314050488
0.418349632966644
0.418884461755276
0.418140630140405
0.4181630483764
0.418126228878431
0.419753869141755
0.415198911011048
0.417726345447617
0.413129313065065
0.414828221445879
0.41143148775654
0.411481699407599
0.410292452910928
0.403771438556165
0.404245205604824
0.402393951157847
0.395045369643696
0.392727178350782
0.383738285538604
0.383267292106943
0.376096624838475
0.370808579977827
0.365774446886698
0.361350869073266
0.358890058160505
0.35757183869532
0.352614209722259
0.352588919379927
0.354442210804007
0.355163741150739
0.358351270586087
0.363182710880996
0.371220205521408
0.378132935364545
0.385035721943042
0.397436337934432
0.408848436736804
0.421397640754875
0.436795348140245
0.452274178463606
0.467474972622202
0.481685761924328
0.498913752803416
0.518050611177769
0.534139135095796
0.553231550484648
0.568020765475919
0.588210583415906
0.607499350106797
0.629872196134677
0.647676900284729
0.67007096347934
0.683785633226187
0.700740641201468
0.717060588564487
0.747091373161503
0.763461387611634
0.777820192546886
0.791003697780013
0.808171294471161
0.823519280811969
0.83312772339926
0.845810078997502
0.856578365594226
0.857160874122609
0.86372586845411
0.873721495204498
0.872364079691729
0.865749568430221
0.869812756044077
0.869445380959824
0.872946103769557
0.872744484575332
0.862834340839141
0.859037975319913
0.857359134332761
0.854696115526148
0.854090306510355
0.849529311858158
0.852358699495855
0.85649690466972
0.852947834285918
0.849291648797813
0.859500396047062
0.862627115214141
0.868224000041318
0.865090152909116
0.874970997491847
0.890016611354831
0.887884757232759
0.892557952375578
0.908153032519106
0.910728484350777
0.928351635342495
0.954566755946971
0.950374868514714
0.971859781169047
0.970605688571012
0.98187471870816
0.996150930824796
0.981447915348144
1.00412000634962
1.02015409025902
1.0105876682739
1.00090147212906
1.01950870428533
1.00992006681629
1.00644849055409
1.00128517204403
1.01110228280854
1.01881671243159
1.01344610484577
1.01210763170048
1.01057451195254
1.02559265299788
1.02701085085125
1.03223686853604
1.03892793794602
1.06225476944421
1.05496586030019
1.0883922274347
1.08736601934001
1.09589805908263
1.10258666443408
1.12045341532133
1.13123432964362
1.15711793244546
1.14681788706334
1.15780690412068
1.18279839600656
1.2071326601611
1.20071882390064
1.22039638751322
1.23391660969575
1.30907756982289
1.29359853095776
1.3187195598234
1.37516140187201
1.38844380457177
1.44579085455891
1.44450907958334
1.45497093462654
1.51901167964414
1.51635891583596
1.52042906578224
1.55562471659682
1.5325379760521
1.58024070074947
1.62022736529288
1.59407620175837
1.64971978501838
1.58784396032085
1.6119014012709
1.61260972179974
1.58613631845426
1.61062546659241
1.58947726481244
1.61588608322582
1.62086899087931
1.61315646743964
1.64790169674728
1.65358732168597
1.60501981955688
1.66716380022089
1.63717457843583
1.65980810690604
1.65445612727758
1.63168164614392
1.68271932564878
1.63682550238266
1.7233282314894
1.71998044781807
1.79956484884561
1.73786060467457
1.81806179075086
1.79294113066942
1.75697637109587
1.82027937025639
1.83877630715088
1.85185664631023
1.94879998718766
1.88899134409286
1.91476909629901
1.99899287920058
1.9163237368254
1.96275651016423
1.93692703529422
1.87840023180216
1.94869754590869
2.06936128634081
2.18612305638533
2.08086352166998
2.40872476730745
2.03374436806919
2.33075897351993
2.00156033882762
2.07732265219082
2.0104481043841
2.13509555683855
2.12845144989575
2.09711405952223
2.21553422681602
2.48627559654371
2.34680415132936
2.41933123074477
2.35863787832183
2.35471512783413
2.24595389274439
2.33977680844564
2.76427090294859
2.72519518648023
2.38806242576031
2.43666602479824
2.15816145999198
2.21751867554885
2.20391877227071
2.16363792671875
1.9248317059092
2.19736402303302
2.00988923729835
1.99640103106993
1.99411717705084
1.94645837237389
1.79230568011762
1.97982307210529
1.8402802088297
1.86710219123363
1.80000343067969
1.86185010955342
1.78237525226675
1.93147984146148
1.76468408058693
1.77325240814203
1.74095697778925
1.7247695015843
1.73159224143067
1.82530626121648
1.67743070074355
1.67212237684981
1.57191519368415
1.64417356559963
1.63572608201229
1.57317344301085
1.43646602750585
1.45701806443397
1.43307350853581
1.3496899405931
1.31701367458068
1.2798211745153
1.2272873546995
1.1815095632003
1.13968650086922
1.07825539455531
1.02588183353113
0.986424193398787
0.928855003990224
0.892454287840654
0.859529024860643
0.828957465037947
0.789586345587022
0.763876524904874
0.731304795490058
0.710755325452855
0.683527303542065
0.663525173461307
0.653479876700818
0.64134365028858
0.616191895416971
0.614886044716815
0.60444432446075
0.600117614106563
0.597669316561758
0.583088073786914
0.574751907533507
0.579144756982801
0.570743579313377
0.576004429028079
0.565428959596425
0.567565722900642
0.580925589088426
0.572267428212112
0.582749083744596
0.584402314624464
0.580952872866827
0.586856868620172
0.582350252241506
0.594761763826335
0.589060632722404
0.586119770533537
0.591580504913299
0.59193803803112
0.59046497559833
0.58875433499726
0.590943063669627
0.589511503047521
0.579649306969166
0.58351281580683
0.582234803980798
0.590758335219641
0.580382836493829
0.584229566188754
0.590228595244593
0.592158222421045
0.598569981209031
0.59452559093878
0.59392276134901
0.59967057212056
0.589561375533679
0.606184599153203
0.593150118745802
0.600503880996523
0.599857334918006
0.589725369070218
0.598447952296482
0.602336888817048
0.599714623815287
0.592570704148924
0.592374541181124
0.584764103846972
0.595646200889628
0.599085347254088
0.586160534122608
0.600765980430941
0.592719089911215
0.576507388088296
0.590721547137005
0.594469097571539
0.58818700759845
0.5999169262747
0.595039469974619
0.606705315858783
0.609644779121945
0.627642548850297
0.637983110069145
0.65057734445318
0.657187376597152
0.685735731430734
0.695855671207596
0.705936649059427
0.71795439921659
0.702203069227941
0.711833685585355
0.705533826573202
0.686289698949148
0.695073957289152
0.686182727112817
0.690678260446713
0.664771821824609
0.662796196852854
0.657929975648582
0.646481925758373
0.630293786732279
0.63709921290563
0.633279871628673
0.634628478073433
0.625495529142683
0.647049323349367
0.633376133620637
0.632188165079717
0.635511449162326
0.647233475244162
0.633361474607072
0.628878611005254
0.61747671167017
0.630285840975367
0.60791956369943
0.620334983597012
0.60424346376931
0.609023213578074
0.618718086852377
0.601958528660546
0.609915310120821
0.608672274708014
0.607027186685749
0.603290375173108
0.59538996832865
0.610022372226758
0.59284472285399
0.597009979334049
0.586112336394448
0.581986011326383
0.579919347884248
0.602893601444904
0.588051783618036
0.583231951493471
0.591209813579003
0.57895618691778
0.57088218366909
0.583236817099596
0.574751513376805
0.580707923050449
0.563761295468843
0.568122456244058
0.562209458864768
0.57139068168568
0.559727895062038
0.543463639986306
0.535679164685286
0.542667992475577
0.544376725841241
0.54965912062053
0.519273958213695
0.539089660194187
0.533451063850176
0.527062658339624
0.530490251008456
0.522074925384322
0.504376332896224
0.512994924640846
0.509885260640593
0.512672334214558
0.505811446841476
0.518481510534319
0.518214074991191
0.509443999458656
0.512180316453344
0.509678375133051
0.521874368488601
0.51768697816043
0.511253945610379
0.533612559246983
0.538696051193337
0.541772962125644
0.524626404595955
0.529757548625683
0.52288118489455
0.536000336920597
0.535908633647078
0.558134421024333
0.536456479533362
0.548230768478413
0.559506011862125
0.579854998429493
0.563201408501428
0.560443485856614
0.573544867688285
0.580821771059268
0.586759147137378
0.591797682060366
0.599618461424869
0.610422687517477
0.604987322213894
0.645727914717917
0.643467264590085
0.673588785626334
0.666662331645978
0.651398262517668
0.697640905220172
0.745931033846745
0.733787357701013
0.742725743115036
0.728896662120217
0.792322966463935
0.784122792461287
0.808434708202534
0.811941779556157
0.820064644226079
0.836069386982431
0.826985860189853
0.810146287281451
0.819709475661926
0.823970862386139
0.834217501167846
0.817504737328344
0.833668768496571
0.793739353759928
0.831452012926282
0.835718935569261
0.821642777176079
0.795566886651733
0.854020971085811
0.808771753045193
0.826961045328892
0.799477146185048
0.84826002777974
0.85570606241527
0.871233524424402
0.849709977916155
0.870580513929494
0.819047648511801
0.855267127823314
0.854642922036233
0.795109577204386
0.843028988347354
0.867800643858396
0.792098937028082
0.839959130725633
0.874366928638961
0.786817633939332
0.750824469905312
0.81361452352199
0.798438160846189
0.774241061414096
0.7838223609798
0.790984699667627
0.800278921037494
0.78082502058099
0.745976651231627
0.7999481227135
0.835527974596802
0.786025802920408
0.752499312126026
0.839964951004955
0.787281836684085
0.798167544843697
0.798418353237712
0.814900229371057
0.832920061675575
0.842625257077904
0.780710850601026
0.802413953832723
0.770838394918269
0.827798132271191
0.811855484575035
0.80286139826873
0.793612176602558
0.860454338849256
0.791735339388444
0.81300346540084
0.787105531622932
0.842476621631125
0.846681377504102
0.923026684828228
0.799604079803797
0.908356754834615
0.874266420707698
0.864142675015937
0.824047650140299
0.873290358182918
0.853841817052638
0.881566126512629
0.92104037399123
0.895722789610416
0.906734147596632
0.948913677007701
0.906028996452272
0.979236453506498
0.882255191840652
1.06958016482992
0.982871991563414
1.10444764336238
1.17623787702844
1.13358665351478
1.02845913675194
0.937962395034272
1.01406480451761
1.21257526699597
0.854025510288658
0.983796796322315
0.993489731959761
1.01920254642303
1.02647742899913
1.03576192055728
1.09506557355886
0.923322308058921
0.973203977257751
1.05090060033444
0.883645149831499
1.15047440794464
1.2054490340614
1.03072491527192
1.11300720885512
1.00888990547061
0.96015611207221
1.31394054104399
1.06948234590206
0.802524772248399
0.802513962289278
0.905250959540241
0.819706407698511
0.98665936417812
1.00050486763495
0.908531964582728
1.09438360209766
1.1174552553205
0.947134655538184
1.19627898505273
1.22030651482776
1.39727987525901
1.24263030156282
1.01585810451367
0.904941714141764
5
5
5
1.07153139464365
1.12034594378212
0.883012796527661
1.01350147265104
1.02661831696624
0.915609323855552
1.02858566003623
5
1.02695436600495
1.02062231830349
1.25060878222828
0.859544281051999
1.52152680640851
5
0.904885204542255
0.691262880416135
0.717651653380115
