3596
4000.36533379555
650.420452594757
1
2
2
0.109298075275091
0.109322182853557
0.107014331212429
0.109260060090112
0.10975019076683
0.110389715187196
0.104171258990048
0.104360168927232
0.113144630177771
0.115882109725244
0.0995979379372137
0.112958769357621
0.0956449264942041
0.102951231177482
0.109341636379813
0.100457468419203
0.100495381994053
0.111257020102222
0.111167294350233
0.101081395062335
0.104881699667045
0.104870034850959
0.101396798633846
0.110321203758487
0.0996132131045872
0.105494412294071
0.103989767861547
0.101846982069897
0.102381447200522
0.113554362827135
0.101292523936898
0.109131108406936
0.103853958445979
0.109670400163983
0.106567573207758
0.112287506958425
0.104671731732641
0.109996168977464
0.101865572345462
0.119812605920009
0.106369742132841
0.0998050342148259
0.107770336116249
0.108842203307379
0.101166906554562
0.111015096926077
0.100824835653044
0.101000195617787
0.108010196509821
0.104105238674528
0.103078901590339
0.103693093644287
0.122849910745224
0.11680381968137
0.108538757112312
0.12860230657397
0.106404344831614
0.106318010737545
0.0952527154820818
0.111819993031278
0.128755182797741
0.118096093893881
0.103701010139725
0.104814094806393
0.0974559977089754
0.101172607494979
0.0936789879262005
0.103910531389596
0.09305145944786
0.109335722274394
0.100154647093267
0.135306494917348
0.112997031522785
0.11214863886688
0.107908690126502
0.0999492163940233
0.0981115870125987
0.102332636002017
0.0910079771060629
0.116190394123883
0.111430019284792
0.111409046992547
0.0905115576360217
0.0996481507068991
0.108346086184683
0.122811743260172
0.0931437039294395
0.128549337739537
0.126227783326806
0.118876371877795
0.0886087565844325
0.0991537693093249
0.0903584446833914
0.105047356235781
0.0939319225021351
0.097769105435426
0.0878866527468714
0.106763088840035
0.0835500527695143
0.119477575302654
0.108281912093534
0.128343959880351
0.13261045152042
0.113320956609508
0.168129733833406
0.107011104174875
0.118674322141548
0.149247465290195
0.106875848801722
0.101659723664656
0.0909862167334135
0.101543239086124
0.0964424613839666
0.118646001880297
0.0819192552684718
0.148485028487942
0.115444718408387
0.113335659777982
0.0981401010667608
0.10660511645675
0.0839166155092833
0.146966820375829
0.116141756484093
0.114095680295653
0.111923417329039
0.0953679529526027
0.104404821581218
0.162304528694556
0.114842460393518
0.101352107965919
0.0896039881422953
0.102425590478576
0.0831905598481036
0.11059634381294
0.145524290550491
0.107661334427987
0.099976441002627
0.0920179865596126
0.14386424728663
0.160822987279404
0.11456973103199
0.0997697824490616
0.0812570339350961
0.121819277068064
0.14534910642774
0.109196503666269
0.0879524569960637
0.121336410490836
0.0981813477895514
0.104983440244509
0.0865070696818617
0.096069970487064
0.114448746261959
0.113530148138636
0.0700495634670598
0.206292540472943
0.147944921170614
0.157063679813254
0.148244589904405
0.105315467164847
0.109364780948654
0.091466511079455
0.0935213800286317
0.0883510022043336
0.0998785916073319
0.0915227258107702
0.112813918218125
0.130979340465183
0.0960924762207482
0.110552078042367
0.136463430583458
0.112001949890937
0.101904831434028
0.18008983862262
0.0923069857611396
0.101291543015928
0.128408581066749
0.109749542545739
0.0796687973228542
0.127077501486817
0.120698884621464
0.0950203088834018
0.095068048353798
0.0959885875553289
0.10724238712493
0.12148900975563
0.0937216853082133
0.100028459540643
0.0966264710589848
0.096668378655217
0.130116353003418
0.166466912168659
0.123085189367843
0.104644703674123
0.0984026807236988
0.0786450356130941
0.156894933869603
0.128373323414709
0.0987991504573322
0.0970602424656915
0.0820319405303568
0.0938721284848981
0.0792853231779185
0.0943151602862403
0.0802162874600543
0.0948778090232777
0.147974581247414
0.0986252044530903
0.103894498603604
0.0962605906622084
0.10213600097764
0.104914167365946
0.179136000801567
0.123205547932289
0.10018988955853
0.104703928031462
0.0919291167049848
0.119286167665817
0.115096296952267
0.0923572666725971
0.0952320829464137
0.0914294674517487
0.0910232064625758
0.091393294362498
0.0868627969731252
0.0922005541659508
0.0914894090577421
0.0950653209404655
0.0938550822474718
0.105605990361937
0.114428829046535
0.0934339207823857
0.089077929038879
0.101902927861441
0.0794746550472661
0.119106280800306
0.118520917651368
0.0986811630556937
0.0943477651476632
0.0948990240194998
0.0897692312794052
0.0963326918041476
0.0934340441163255
0.0975740082958791
0.0954392578115364
0.0942739458123796
0.142469973634665
0.0906742456363049
0.103193011245677
0.0809970868273171
0.14252009613878
0.0987343514311558
0.105667214315765
0.0895413207462234
0.101895213712057
0.0817775999476137
0.114426102791
0.134917988959319
0.104613963638173
0.103092828649293
0.126279345608902
0.096581898436951
0.103751767443905
0.101090626872515
0.0986367061370712
0.202101829909225
0.107450988109021
0.126683516032531
0.17123760136095
0.105563459524324
0.124845411136179
0.105700810201766
0.123023569329091
0.245677294912976
0.146102905677212
0.0966402969100767
0.11671871844762
0.133356489716153
0.0944310681060492
0.124201790615671
0.115489499197919
0.14398094636108
0.136487030686992
0.185084517436953
0.173325849371216
0.0883204762239091
0.170647364544952
0.12792734153357
0.111424347711604
0.0959911563611349
0.106284369045244
0.107665308006215
0.148294602195862
0.126954612971019
0.139835147246837
0.114278826698004
0.119781172369862
0.152098648483103
0.115298322552897
0.108410622937537
0.124081956837446
0.119216032135874
0.0964949701808458
0.113496205306577
0.102309523415296
0.128703437013527
0.0928640964507192
0.129873022086963
0.181062797543803
0.124178825630524
0.128279863668795
0.155375446344291
0.114428397983844
0.113831287549601
0.106864718886142
0.111670466050673
0.106541258086079
0.108663080088648
0.110314494645365
0.157459960105922
0.106908014098349
0.116839855117867
0.102213603796864
0.108073740353675
0.110335834646172
0.118886199952111
0.114578783000206
0.120401430326059
0.114507080360589
0.115290068416859
0.148632951472553
0.15664919641047
0.105390583253754
0.214301131001187
0.143856185765546
0.12300982365841
0.119724628374281
0.11629819194353
0.125629842223482
0.120297944701446
0.128832292209331
0.128700010094275
0.130546504853201
0.147454985655684
0.136676080345421
0.142285536885218
0.148685634925046
0.233308583747409
0.2084208607972
0.142732756160887
0.138138779918062
0.119245609456497
0.199156641567174
0.166018086150113
0.183165426394708
0.170496895463629
0.137710423238516
0.153461331903839
0.137847276429386
0.155834243619129
0.140273770722017
0.160733964514359
0.146264082171779
0.167256992436934
0.147705507237706
0.169041923318923
0.143037480333069
0.176613244227303
0.196394969660187
0.168958364664384
0.159114337573562
0.170862527198248
0.153057042509396
0.239386507568648
0.197854408624355
0.25961278937069
0.207345859777022
0.240687089564892
0.234684230374904
0.177532831937065
0.185122586325789
0.178832420932824
0.1918636878074
0.191331382040857
0.185735556908618
0.186166353520606
0.189117741904838
0.199504446993359
0.203447155530397
0.204408072341501
0.199893620431764
0.20001542312157
0.231188560116007
0.212221463039773
0.225103447269481
0.208986462070771
0.265818404988543
0.294181632490306
0.277036672928642
0.233542313129297
0.235594151731854
0.230110003526802
0.229521895728694
0.233138109904565
0.237454989843248
0.255046717479955
0.244516147831446
0.304520303666331
0.268448165236262
0.286877251497829
0.267612893573718
0.248040551237318
0.295953539767158
0.278158877940329
0.272853622314168
0.313276697874179
0.280513359775928
0.263652750356956
0.322156574557556
0.305425681440069
0.289360598515879
0.315330534565959
0.281835121810946
0.281746219296443
0.280160577144767
0.310953000991236
0.292397861160655
0.320910513899139
0.335583203143232
0.333662538251384
0.312001174887382
0.328333913208405
0.323017761705513
0.369655793765366
0.336148906966296
0.342932293246294
0.325492497238266
0.336361212294394
0.337315419226403
0.348787522144879
0.394457890930369
0.399744293761914
0.395394276780102
0.386914490917599
0.345699452475532
0.384305856191559
0.36175067699133
0.390031591296649
0.372432332509606
0.402332670355729
0.388952365737178
0.409931587068392
0.382007113918297
0.414274698606668
0.392815895625374
0.432481100006814
0.405140854738333
0.419575835811864
0.421943278380102
0.423833237679542
0.432137785905538
0.444404323435723
0.472449786206763
0.511881749768989
0.51089716015999
0.492525712472494
0.458085068470585
0.499956847524717
0.449997007673723
0.488305761487854
0.46523470741804
0.50841118677696
0.471857631421525
0.507495928395898
0.493079235815737
0.538144000373604
0.502086831586002
0.519111402323817
0.522712125927899
0.569468735412887
0.52774336308375
0.532476426037174
0.52144001206493
0.554968577384894
0.539000337499326
0.585687484321786
0.559900616443461
0.577660090221164
0.552880670241084
0.588610070914362
0.578791935163374
0.567653714085459
0.563068441113007
0.603457016828423
0.579522968583329
0.617194705579347
0.578727866954319
0.624830979810794
0.640199045198336
0.628871492968688
0.601181003108477
0.649214572147796
0.631464803415739
0.67001381155468
0.649451174999823
0.709183152529753
0.633047873346341
0.685399351940835
0.640780442632535
0.689623592027649
0.651514989925524
0.737292329243088
0.697410315783572
0.756220268446963
0.665716594873579
0.711740888720897
0.71008546597539
0.725666939006757
0.72141583295494
0.760734102087783
0.692580030959571
0.731774616742871
0.705376439388978
0.791816560490021
0.790830993525735
0.798675067567155
0.743414646283351
0.77057859136972
0.739375344328182
0.796166388671988
0.778443510767325
0.805815698266302
0.827879345332136
0.802709828760947
0.777786075914338
0.847622995358411
0.821899724964982
0.865270036809669
0.780188403295197
0.874315959453503
0.817620920884038
0.849763009903685
0.78769770273585
0.874489313708414
0.878783476750662
0.853438668400659
0.822292116838194
0.884344872893115
0.931091235139231
0.886539669178707
0.872131204932414
0.937615357071431
0.90071173738353
0.920178182273759
0.894519813172721
1.0003145482754
0.896587381548676
0.952816545238718
0.897879322635
0.970126198289034
0.914706735427611
0.996096275499395
0.956301086986423
0.987493770955246
0.915231356328574
1.02260677690475
0.936268283118425
1.01008466588592
0.899880038464139
1.05940475579821
0.949758295744347
1.03451356657292
0.971947318214459
1.06856090697643
1.03216258274476
1.09752017689844
1.01398893898652
1.06362942267265
0.94470250816855
1.07589030359222
1.05745097912925
1.17181717208042
1.04734340782169
1.16444859397781
1.09462851837623
1.06022474986413
1.06716439458563
1.16768226775565
1.10815714730347
1.16107166696572
1.12840373849992
1.18477926744169
1.1030607086809
1.17157557713662
1.06958813181946
1.17906714050925
1.00852035324947
1.17242139712403
1.12731418607416
1.22090514157531
1.15709582566585
1.18019007222044
1.09395183523143
1.10939397387677
1.14324458049624
1.22504278775024
1.11925072315711
1.32863379946244
1.1972343481216
1.29217616823445
1.24257865546842
1.27733272680765
1.18506978333804
1.25366557108485
1.36224680605878
1.2919509417283
1.15096699214547
1.30043409154317
1.2532664271731
1.38376775871278
1.21030651498565
1.36811377387239
1.30783742655088
1.40069143610172
1.22772865853091
1.24294024517302
1.25656784494963
1.33628669593451
1.19934027812673
1.33319462534741
1.28326150094802
1.34107133480901
1.21346366958154
1.24034685210663
1.2795484156209
1.54054367708037
1.2989477430931
1.41461119781823
1.34723557356488
1.45961302149029
1.36033074240541
1.27480114660089
1.25924665553752
1.48493303232274
1.41468822525574
1.47315174120107
1.29586694422888
1.43918990303397
1.47821456038735
1.43935449163857
1.27316434469071
1.62356772330639
1.43683083893998
1.40180323113495
1.3842261455821
1.45470256627633
1.53342883358858
1.77318266080251
1.51124951983766
1.48359820479074
1.42998132900909
1.39821960111533
1.36230086354477
1.46682099231773
1.38947571130768
1.42129186196503
1.4965083301896
1.43839388621241
1.40341510168425
1.32702840200241
1.51608534446847
1.54033938618264
1.39128411951315
1.43637762233227
1.50674024450418
1.65469607647125
1.47898375791674
1.54119719949913
1.41923179886805
1.65471205367586
1.58823029810999
1.41153744540044
1.69196918016855
1.76663046332338
1.48192253171123
1.59668345522958
1.56312501863317
1.65960301659738
1.59871693767732
1.63985437765725
1.42728477169989
1.53961622072442
1.43443996855676
1.58795270952453
1.4633267538248
1.53518412111832
1.52761678982608
1.76850951161473
1.51625553304164
1.62882524755335
1.4843750338381
1.66590246594148
1.42575887010843
1.57743047129724
1.51089850179456
1.64715408374818
1.50642350412839
1.65031752294953
1.50155894076441
1.57774720242534
1.65875455813614
1.7673584278479
1.51323695621206
1.70596577698965
1.6375599425917
1.56249048861187
1.55858610689024
1.61491843934525
1.53393307620874
1.51860978299331
1.58599670773077
2.01064256787662
1.66451800074714
1.59940630711091
1.4301889274591
1.62168450941692
1.57008763596648
1.57064897228744
1.51154477868702
1.64443482131702
1.57690263966938
1.6787676801474
1.65560991871645
1.53496746832394
1.49915295675754
1.62258575046297
1.61233213507004
1.65190844252023
1.56213638778703
1.52849998888317
1.53710217345019
1.78952016597601
1.58029761026563
1.69646169564331
1.6920859429418
1.74363438590277
1.51794002691386
1.58455672904251
1.62487649149022
1.89161550794395
1.73964976979752
1.56829876337644
1.55904849511117
1.6669715090293
1.57020456969862
1.50475276923548
1.48997186878022
1.67605390340488
1.63584341998672
1.61529523266764
1.63282629252692
1.64891097201905
1.54810397705494
1.72925631683713
1.65087397629652
1.61665686130106
1.40918727461167
1.6403740626419
1.61844436608063
1.63047398447895
1.51723009884045
1.54524385182519
1.61474897865356
1.72273937864164
1.48686597302398
1.71729036497208
1.65845553755171
1.60003345838156
1.6957534701308
1.55369122573769
1.54357931177997
1.67523014003827
1.5233816966258
1.57704721448766
1.6034379073226
1.80187741007836
1.51107613635679
1.56868370089352
1.56508651667981
1.54653898219093
1.67116361822783
1.53879886816346
1.43642636392892
1.72823523348403
1.64788742147707
1.63636641178598
1.47710762816416
1.57097337363796
1.50710201861648
1.4681794845433
1.58590903444038
1.62239855679033
1.49339692789324
1.51314777569445
1.6155496376068
1.52212053944973
1.45132123338011
1.59206959846246
1.43972866628317
1.49022188778613
1.64252310393125
1.57570913090143
1.63215476349928
1.55093326891456
1.51658548763461
1.57251316148348
1.4842040997095
1.488084002334
1.49671497515967
1.4411592454882
1.37925542138243
1.47756915663147
1.5033585589385
1.50517167824127
1.46847423298504
1.57373570882611
1.42256996169038
1.52556802592774
1.60844577418374
1.50449302100706
1.45916111771886
1.38649464922479
1.42841983970947
1.37305768121548
1.3968534559945
1.57501954512411
1.37898996915358
1.32783335212725
1.43067250582716
1.44442167243894
1.51023938384182
1.4867540703957
1.44524242251634
1.46927841536602
1.37068832556325
1.38230161750042
1.38187976294922
1.44376725381484
1.46832599804584
1.32695349608512
1.42525145127232
1.43220285100528
1.3374424989285
1.35092039160106
1.35243169150261
1.39539385270478
1.32006587651173
1.32701602130284
1.32909946230473
1.41858838332617
1.33776206132768
1.34076806744163
1.35750019830625
1.30009405558166
1.37045448053405
1.33637858320837
1.31476236030097
1.34498911586027
1.30943463002125
1.29691729927957
1.29371388111632
1.31013130040877
1.31910479148241
1.29810855468705
1.29561147948056
1.25928132388453
1.25881493583883
1.27707940621482
1.21016710316814
1.25441592227293
1.25712818981735
1.2121072907824
1.25812235872334
1.24690724674528
1.16323408555958
1.19377050796882
1.19726688410246
1.1553158431592
1.15001999048363
1.17245685375621
1.1643130693773
1.16872542127038
1.19064285350574
1.17616375212297
1.18013594595605
1.20124626721991
1.1478385437831
1.11700688460813
1.1242960303036
1.12636055716983
1.1454365963907
1.1590742559283
1.13560338856043
1.11173095316815
1.11812608166833
1.10318999144206
1.08855596565764
1.10491314597214
1.08012026902654
1.08436573047421
1.07247053632083
1.05533882421276
1.04921184156055
1.02905601782516
1.04208476379314
1.04914925462671
1.04971518569336
1.04417844648906
1.03399673102609
0.99121558130185
0.988653740131409
0.991866772072578
1.01746701466674
1.00247242921173
0.987120939291294
1.02970352660928
0.998930711205438
0.990924471995449
0.982670362200511
0.983606942932137
0.978207573066829
0.956503117004684
0.959096723996842
0.950213437040469
0.94970826079979
0.940784265019764
0.939394585935279
0.921738218167422
0.950227174023176
0.946135170391925
0.921217989620403
0.911301724700677
0.884909436411368
0.896223630778291
0.88128846943235
0.880577668834012
0.892023720306553
0.863287263964454
0.875479045493507
0.873745814313231
0.879111352188612
0.869823455790544
0.856645449117969
0.854587881357563
0.843481539626123
0.831326299126384
0.815822480271025
0.830686399489378
0.833831026752006
0.814395221123772
0.838768994737994
0.824025898199146
0.809141830702894
0.811734170526331
0.812004382128294
0.803603206871199
0.808789643855543
0.777930972696164
0.77869349134787
0.789685348200101
0.774110656670589
0.773412208424077
0.77844123891799
0.763067465775958
0.769278711335359
0.749540375376292
0.752108731895253
0.758056873902672
0.753180179986093
0.724501858096677
0.719271397289353
0.722964428005945
0.725599941587556
0.728044913661977
0.710130142230951
0.712798281663648
0.711972691123876
0.702252579473237
0.713729795549856
0.683613454560677
0.694470205268007
0.713761641082473
0.695553551103383
0.684718580688244
0.695295692727619
0.686215030558792
0.676808013987909
0.675142567037961
0.672363402583407
0.665408814134936
0.666474053857663
0.657226849666765
0.654264395891536
0.652133607289128
0.645375932499477
0.634501055521032
0.638102284944776
0.634093573432002
0.640362710009303
0.632566522851736
0.63057044197076
0.626438099154278
0.627548044394572
0.619395965283885
0.615026487467875
0.611354916767891
0.609405828256418
0.604767007040478
0.603592228340642
0.598639909031201
0.594079455707359
0.592516507554695
0.599151437091674
0.591787501304094
0.597137719875215
0.587534883760779
0.588611658767989
0.582771227438791
0.57511595472713
0.571891726003573
0.566309506309342
0.571600619450547
0.572005061212389
0.561035496903559
0.562127972672791
0.554080903462294
0.553424380559803
0.551256925218904
0.558584333803212
0.547071478148733
0.537796403705782
0.535068928207071
0.543509425526043
0.538257812759214
0.541330869056018
0.53009936487998
0.520436199322001
0.526467516426467
0.536784859627401
0.524061829370763
0.522460987504405
0.510130753477401
0.518485092599575
0.515557653524056
0.513082550596905
0.508947990694946
0.513374199415352
0.514115908756899
0.516193764073035
0.507683815933351
0.505675568293856
0.500903968130656
0.498337061661636
0.489669263189446
0.501721305310674
0.503253545668964
0.497175629845475
0.489111208326179
0.499812950005875
0.490445249546992
0.497575239722745
0.497100471230262
0.485521176832929
0.485635330981803
0.490475123589922
0.485272018717947
0.48997310773826
0.482280658477923
0.491932683654211
0.486987315610073
0.496120106086457
0.496856624117972
0.492133427671158
0.48689939549991
0.50380770983454
0.489344841214569
0.495216858536164
0.500240832711371
0.496608483709097
0.499016390592811
0.504968214024902
0.503996274073243
0.49798923160889
0.497614509227333
0.515305375385531
0.510436029535123
0.511275873315046
0.509329566939313
0.515038756928591
0.512294738066254
0.523946424029217
0.516113439584287
0.525309046564507
0.524461177994619
0.524238868252957
0.534992686396438
0.543326993396202
0.532905755026483
0.530742959107395
0.527165265050681
0.532737109176395
0.542646800680749
0.546568268158956
0.537429951076062
0.550095808219141
0.540329627901107
0.543753495054309
0.560980074334355
0.562260043808616
0.557967576233718
0.575787293915542
0.577134429333963
0.576473990069234
0.570009541823538
0.592625020305441
0.581418602074629
0.598110296813364
0.608571736043937
0.607364778405135
0.601341772316145
0.611027571647853
0.613412719111558
0.625825091887429
0.626587503794364
0.636825580435218
0.633633893926058
0.654973344653389
0.645993710823684
0.649724532134417
0.649187893412704
0.665149095462953
0.659444853824203
0.661086478054214
0.661676887132111
0.672987725687195
0.667266881237709
0.685968785058855
0.669870242716828
0.683834747136185
0.680646955227957
0.682706589759756
0.678890318792376
0.693258745466342
0.684756183452835
0.690973274794803
0.679389458725957
0.685709670763423
0.684566830288252
0.675042810436343
0.669529533951498
0.669449251143706
0.670304736954856
0.683886184958666
0.675779383837496
0.685062975222449
0.662030083069482
0.679588283558237
0.668350043499364
0.667744408592365
0.661386947653499
0.653858456432463
0.649101393657521
0.672112159363678
0.655589768774614
0.673479376122492
0.658349962854663
0.657536942543968
0.660894933909421
0.668267967136715
0.657726637141972
0.646934292783858
0.643541270850898
0.662081982566647
0.651365857595572
0.669940278642179
0.655906557939818
0.668537100938917
0.650086996436701
0.659633508154114
0.648280896462555
0.659787351690846
0.648891410971847
0.659485059832312
0.656006346834479
0.667087105608228
0.655223183727247
0.653119444706796
0.648941716359373
0.66096647906301
0.641007623124206
0.649056219486736
0.643321183909609
0.648833297250372
0.628456921184684
0.638843868092835
0.630694700236201
0.635056872323633
0.628007803502965
0.628335858104897
0.619829464939283
0.632520368511788
0.604705698237359
0.604651925406424
0.607970002361291
0.604553295391308
0.600886440317924
0.594115199021111
0.592671899529867
0.592396384024945
0.580872268023452
0.578920355768645
0.57304607863994
0.57345435189689
0.559272568836948
0.568097612379949
0.557716368058451
0.55809816268534
0.553309548051205
0.558432357372961
0.545696845806887
0.53977564720247
0.528651040265691
0.537865912194155
0.523985586975144
0.522148873687653
0.517069571158237
0.518512501333704
0.507609224302167
0.515892483759389
0.512842053806493
0.510768000615138
0.496396346163449
0.502778609718794
0.497315096465957
0.493649116642002
0.487624819428965
0.489327714176802
0.484924060578359
0.490060913221311
0.478343668236793
0.475494522668789
0.477033528652066
0.47460608933854
0.467399490025936
0.467042716348459
0.465846040966146
0.466765710645392
0.468500437862433
0.463839467567545
0.45337601359018
0.454823012078173
0.448992381716723
0.452940266262332
0.44459995038604
0.452534559944172
0.448270653251824
0.444978121792138
0.434246491645186
0.440690983361467
0.442668141766803
0.448179682217471
0.438232965628391
0.434806457259613
0.427024595469672
0.434463118769117
0.424083351305427
0.428420104093493
0.419661880883982
0.424612633159206
0.415193915430013
0.417081232213899
0.412315919538041
0.413146495963754
0.414686766152784
0.412615862741223
0.411493609443832
0.411379838916449
0.410128638224469
0.415787804596114
0.399894930227413
0.398575947990877
0.400889204629945
0.403738031458766
0.403165461219091
0.409422494046523
0.397047308502012
0.399639785752509
0.393073458914167
0.395015826347606
0.388496493661806
0.398968794042882
0.389706890682084
0.388515442462975
0.38639355203083
0.385233398507658
0.387488683931705
0.389442179666014
0.380446400838017
0.387205434247674
0.383685432293802
0.387676980195648
0.380235710756664
0.384010891771723
0.380410072379759
0.380370866528872
0.375884298754128
0.37919466905481
0.377117274383307
0.379923498326843
0.369011097638529
0.369980613066338
0.372012657273053
0.3765282919773
0.373374038587962
0.374687168400171
0.363116302025379
0.371570624270748
0.367534207003541
0.366265528342133
0.366515630194459
0.368552738912642
0.365124916607491
0.366411883994878
0.364494876397473
0.367290256693741
0.358888003800985
0.360154702635464
0.35545112963192
0.362511569970756
0.356459978912874
0.362669618151009
0.358687383581157
0.35831847328435
0.356131166340658
0.356385311035376
0.347607899474696
0.351503055546091
0.348219984432762
0.353971747814502
0.34461620810647
0.355238000971586
0.350234099240097
0.350324492167899
0.346899834887094
0.35262198651644
0.345337961433523
0.345940980008158
0.344590538652348
0.351751743106247
0.343558939764002
0.351520128343217
0.347332769246751
0.349542711385403
0.346177156312731
0.344900585904627
0.345546251034089
0.348741785600852
0.344712596361312
0.344549569342468
0.339212987157103
0.345802081572389
0.340453888797821
0.341366949713665
0.336933328976873
0.345769103774824
0.341392544743491
0.344267234919065
0.334714819541325
0.341626888195232
0.337701332394192
0.335774915909831
0.337049720223515
0.339282801744091
0.332968839963218
0.338453419665861
0.333303479197878
0.336040715638475
0.334237246618473
0.329736637400677
0.330878114467497
0.331945841615573
0.329151352393119
0.333462916334355
0.326394070425336
0.331329324735156
0.328514903947662
0.328643171853883
0.324154572511719
0.327945188530104
0.316009905564201
0.327756015099784
0.319453771790509
0.315852181337655
0.317237183139035
0.325743422725781
0.317318265206511
0.32161840544444
0.315516239901405
0.31499985376791
0.317047819147302
0.316372731217286
0.310810783065097
0.316818154850564
0.309635835178098
0.315555660638138
0.308297935944514
0.309793466565812
0.311312604027144
0.315339493458221
0.309456838327466
0.312134615598321
0.3054414450328
0.314765399829871
0.306115396565
0.313889797794704
0.304546071626741
0.308863586290026
0.306460413677656
0.309661185226646
0.303490556025916
0.309676120537827
0.299556971031834
0.300776742471183
0.299288334858377
0.302138737475928
0.298736390392841
0.303470698089532
0.295779980917323
0.299008047173641
0.293955053515836
0.297657263315415
0.293345567736996
0.2938215971954
0.290269814598057
0.293132227917213
0.291905079379629
0.294264369187662
0.289907071333165
0.293846840533214
0.283184184130715
0.290719105148743
0.28576006844539
0.285338309852221
0.282730967172344
0.287093219087447
0.281192909314168
0.280591591455377
0.278724670370504
0.279993439057106
0.279376823465826
0.275679213935931
0.276873775456884
0.276993612056454
0.276031535137123
0.272490596558088
0.269704181331554
0.27388072788131
0.264600877655434
0.270084948166363
0.262987996007344
0.270830611913811
0.268761699216533
0.26411657144853
0.260129012316534
0.268748968991702
0.265958184432483
0.262341216993341
0.258492119630265
0.259771802363658
0.257071721314247
0.263961747910535
0.260104176342982
0.263102045296098
0.254401955914918
0.257601668254855
0.25796004762827
0.259949761024979
0.255771696836829
0.255782402923617
0.25466284899111
0.252878472702127
0.248529055729955
0.254485903148552
0.251418288471193
0.250319498960842
0.247458077933357
0.252910356127694
0.249391796491684
0.252611849266161
0.25131354817426
0.251114596150905
0.243985620637475
0.25077377107028
0.245176511467901
0.247392969647801
0.246576755758141
0.247016800408291
0.243956806627912
0.245392291174847
0.240286853770321
0.241129494190642
0.240906740960404
0.242420698678529
0.239546642138117
0.240545294062836
0.240495397327755
0.242180783120777
0.238167392243803
0.241331550098021
0.230998158563048
0.232913002308141
0.236137759452225
0.236488335023914
0.230079572496684
0.237040588563403
0.229181594496663
0.233807486505707
0.233105747345415
0.230876507567492
0.230542718132752
0.234132608177468
0.233510710868427
0.233263885304576
0.227384558971181
0.230298429737455
0.225838587525969
0.231160985918824
0.225721168654226
0.232193071925683
0.227718295057762
0.232530353453387
0.224114975805637
0.227633801320411
0.227718092795189
0.227982254485233
0.224645017183695
0.227935830258376
0.225826409619856
0.225555586331819
0.223224757913281
0.226066824659288
0.226267234582919
0.225247441849272
0.221127679956899
0.224155422020664
0.225267246434331
0.228013369112839
0.224038909611646
0.223048597449621
0.223849338788149
0.225331251644086
0.219011464104113
0.219669718244719
0.219133982077485
0.220120248740421
0.222052960760225
0.221494718264875
0.221340949793288
0.224205046391986
0.218666990534699
0.216609382250006
0.218548162756227
0.221277357326229
0.215748443664361
0.219612505267113
0.213022859555819
0.215585948746421
0.214984872170307
0.213433405758755
0.212426708605608
0.214223127374698
0.212061036887814
0.211120391152681
0.209051343764144
0.213471799635485
0.209797181190076
0.213568419047326
0.209557070135715
0.209844073686344
0.210312108313696
0.210384858506639
0.208007898509861
0.208903116114199
0.206490363382886
0.207276599850242
0.206845006270238
0.207321217843944
0.202984408672402
0.207934862846991
0.201614057891044
0.208051799887843
0.206023002180786
0.2059631182402
0.20511827304632
0.206140800456249
0.202481467398556
0.207625719757213
0.205207842194168
0.207185256581161
0.200115704368953
0.20212609566341
0.205049936911645
0.202496335018941
0.201128735886629
0.20614157437251
0.203358063933774
0.203711439562073
0.20225608886083
0.200118864734229
0.198389540239908
0.201535235268904
0.198018098527418
0.20031262846633
0.198331323738018
0.200132770152716
0.196465592403626
0.204292934808778
0.197959870733469
0.194455103548344
0.196521849010745
0.194801165598127
0.192874999412666
0.196055622696962
0.195130453812049
0.195540175376076
0.191910997344976
0.193784788346705
0.187250902474614
0.192207134215999
0.192445963273434
0.19223208319101
0.187906138737218
0.191377925530411
0.190141502277953
0.187940201191931
0.188327494656335
0.188566636040359
0.186286078001445
0.184874573310244
0.182125026451095
0.183970123863462
0.183584437050897
0.184618936808186
0.181059657501246
0.181754762015401
0.181861067984417
0.184014911815296
0.180135105998422
0.180166403132279
0.182714731682784
0.180605878958249
0.174107992319176
0.18134151821299
0.177254284964821
0.178362144767377
0.177978123378313
0.176874961656742
0.17306030703581
0.176061703842314
0.176349161011417
0.176565051383385
0.172340018871695
0.174521010912108
0.174371156285133
0.174282288240594
0.171749726674064
0.171918651678784
0.168887437104457
0.167381058885783
0.169578070165255
0.171072184780254
0.166102512844885
0.169839360890409
0.169062239527435
0.167775295694713
0.168519745534556
0.167296598435751
0.164726220407685
0.166289850182995
0.164585809518887
0.164068220548087
0.164903307997435
0.166569167623495
0.164324426952357
0.162741806662819
0.159044424433034
0.162523376483872
0.163543742434606
0.161156002701956
0.160398020260733
0.16045612544503
0.156041155218343
0.157751195157305
0.154592337170033
0.156033953476948
0.155306953998857
0.15478717625179
0.154733669086107
0.153298998731979
0.155016064469874
0.152838888968152
0.154708721624603
0.150402462239401
0.152670867736755
0.153161651687463
0.149539489208472
0.151402179104774
0.149671177917096
0.148867012154614
0.149045137231136
0.15321342010849
0.147884852663185
0.147362676200108
0.148232655380371
0.149721852920913
0.1511538448905
0.150591963034314
0.149196115181189
0.148727363642104
0.149484256080779
0.148199094859503
0.148741843739658
0.149536351039767
0.150365034318051
0.145686362095595
0.149968216499219
0.148254111358685
0.147805257656053
0.150403044239519
0.146895620197679
0.1462654244383
0.146642314692541
0.145826979597479
0.143285135931213
0.149249824004297
0.148010017492763
0.144319984253057
0.141218455355088
0.1355398335605
0.134999591383657
0.129991765048757
0.13995458427065
0.142042740699461
0.137850696011545
0.125921044665079
0.12853031198087
0.137595740123287
0.133658774301806
0.122741602700902
0.133560073327692
0.127187384079409
0.127757939422501
0.130111755397372
0.124769982946925
0.127102003470633
0.126470339967391
0.128078985771539
0.136297139105596
0.125707972627505
0.139299892366918
0.133662773652079
0.134294540953846
0.126911356068893
0.137546649519526
0.127904621718671
0.134419008981684
0.120439974568014
0.13349714757304
0.120644788517635
0.132962613772552
0.120302765585023
0.139003673647838
0.117180124621073
0.13774159978272
0.112193955859616
0.136755431239002
0.111585473758125
0.134147548613347
0.110470427338372
0.145638295320809
0.113378818164669
0.147536717860848
0.110889448188811
0.14091802743215
0.104536626758765
0.152204341954534
0.110916566602295
0.148229417324375
0.105724118288057
0.148640559401178
0.118238225372309
0.149057109079497
0.116336309474212
0.137149699927463
0.13518378207948
0.124123446867855
0.133011985686178
0.125728371305872
0.142413015842224
0.111533443117851
0.149283878497761
0.115717691558448
0.143368880228173
0.118061657369931
0.142100355912294
0.122564409386224
0.135205527155965
0.125321027645411
0.126829839194705
0.130995444996079
0.124756506025205
0.124811314081848
0.129204988148963
0.125716029848975
0.128549036544254
0.121994178293001
0.131610212902033
0.119205443944005
0.129470053795193
0.121148535592503
0.126214724299881
0.121871398163707
0.124841443590257
0.124788592874706
0.125402016311089
0.122894510281887
0.125885617298501
0.119948944748054
0.125282153179038
0.119998743867751
0.126868410963761
0.124138350700486
0.121739173718971
0.120140943664548
0.12426318421892
0.122876263423198
0.125651933025148
0.120913788356656
0.126683450135633
0.12009948684826
0.12452260027521
0.122660195442954
0.126946114717582
0.1217578908766
0.122690599518074
0.120881669405371
0.123477760841782
0.122182917153382
0.123479824674308
0.122127672353815
0.125739517021363
0.120701763197005
0.125456123794288
0.122408723435858
0.125430050812087
0.123942083824338
0.121437902118639
0.121168849189459
0.123431759158198
0.120178441496525
0.123683554876437
0.123449033268032
0.1253445672769
0.122430359985269
0.123044747277041
0.121296647653709
0.125457052534576
0.121358595195465
0.123378829015207
0.120031459169293
0.121358052980984
0.121092225248727
0.123490640176359
0.122378328832525
0.124427525782777
0.120745434259114
0.123773882164981
0.120949289037631
0.122476632433898
0.122659599952836
0.123637330886134
0.121551725608774
0.121746013071347
0.119709913533117
0.121510146554247
0.121720627499414
0.122452515605172
0.120583688065948
0.124878768269887
0.120059442140469
0.12406697959219
0.119691753551898
0.123481690546676
0.121990108344938
0.122065878604291
0.122919062185236
0.124333932683257
0.121354359704663
0.123748141550892
0.124891568163302
0.124461292440551
0.124472791798222
0.121909721539777
0.122847734746805
0.126052584201768
0.122847466133004
0.124637345715563
0.122691390049648
0.125165400059703
0.122766309171007
0.12446955040563
0.123647283590428
0.125946607488887
0.124774682406188
0.12433455163953
0.124768060558383
0.126861435811364
0.124525957137496
0.123117871430817
0.124787532590087
0.126109243069838
0.126882753146212
0.128918860274894
0.124913772233444
0.124541072289843
0.125357085232692
0.127660975857054
0.124255972015577
0.128200668696896
0.126236239608406
0.128046170519918
0.126183327567254
0.127356804560454
0.127171490698606
0.12539239128123
0.125102386547201
0.12797469576196
0.12736727961956
0.126748087645717
0.124562622142459
0.127063888848163
0.12656684244779
0.128857519057272
0.125610480893217
0.12702230580022
0.125911169224009
0.125681464783955
0.128114578986919
0.129682939025589
0.128709735512361
0.132056513430372
0.128498046075801
0.129006029466306
0.131283317310041
0.130308009953917
0.126663833954319
0.130426521572188
0.131571087858803
0.130934427545468
0.130170385283397
0.131257069211876
0.13111541554411
0.133828031199698
0.130986413662796
0.133374930179818
0.131092958731643
0.131743310506763
0.129567000439587
0.131506646655349
0.133139157236149
0.132527541980751
0.131108182737648
0.131339714938792
0.130680715716796
0.131875541052286
0.131758306102966
0.134258749410746
0.133907851295737
0.1327212827393
0.132197136284066
0.131791821066376
0.131084932091491
0.131787305655362
0.129824805432135
0.13255322648298
0.130122002924202
0.131477876900739
0.13128060681055
0.131588860440573
0.128851610957666
0.130011052775245
0.129210023081631
0.128771103413438
0.129999940614806
0.129522709255987
0.127845055553607
0.126815689028602
0.124913689177693
0.125853361791042
0.12449615064087
0.126491679751531
0.12782058044192
0.126855698414801
0.126465821873147
0.126313478642857
0.125548534541393
0.128413561167004
0.12627081362732
0.122941470556725
0.124197461122537
0.126767803024538
0.124956605876695
0.127079892805368
0.126236067945149
0.126218069744971
0.124857795183198
0.125241643159106
0.124731403869321
0.126878039022002
0.123959278918739
0.123977257172519
0.125335209458968
0.123314604919882
0.123658977604875
0.125850128348995
0.124918677458963
0.121836498225077
0.121984467680042
0.1249693235088
0.123462017431401
0.122373766071514
0.124473705196252
0.120414166838979
0.122343425792987
0.123023021601454
0.122004624798178
0.124022048947277
0.121814117722232
0.121650959589419
0.124829519993713
0.122260866908509
0.121085999100703
0.124066095247637
0.122706506892762
0.121874356716004
0.122518101991532
0.121014487428959
0.120467470123133
0.121379338174034
0.119690827397532
0.120750276933014
0.121518811488807
0.123266866257202
0.121859201006367
0.120333170863255
0.121349415406322
0.11905518789775
0.119449638558964
0.120138649321542
0.118811935084146
0.117606130718308
0.120217718540152
0.118254936651545
0.118708603746313
0.119729936105314
0.119004237261852
0.122987142644716
0.121748322416418
0.120031692986221
0.117747795620265
0.119491163976114
0.120056502964054
0.11928088881059
0.116609159618023
0.116755346060586
0.116680513790043
0.117700788798472
0.118710510215008
0.117964736649346
0.11697596670885
0.117782501476653
0.117162313607812
0.116322185419513
0.117842891536871
0.117800065420476
0.114855916912301
0.116423498968781
0.117106388729154
0.116026435161721
0.115804360927647
0.114653711136014
0.11663821015291
0.11812239179927
0.115028818322424
0.115919306571133
0.112003576702637
0.115548055664833
0.111478544435957
0.111853178287561
0.113834599300131
0.111677709297299
0.113603565173555
0.1115701765631
0.111544064600292
0.112701353122281
0.110743742595145
0.108511031779619
0.109280754588935
0.109506839134294
0.107181686547501
0.106871052695584
0.108986051740441
0.108067527027776
0.106556543400949
0.106431372165705
0.105538528297597
0.106048523186101
0.10985012921891
0.113738311010682
0.10793404322792
0.103856578647659
0.104611752243582
0.103391089850552
0.102294654676416
0.101040951681737
0.10236425414
0.101120748189396
0.101016850029537
0.102100587756118
0.10104733792668
0.0995169485000381
0.0980404059977527
0.099959863636459
0.100503807507599
0.0992438598542384
0.0972472666637889
0.0978805939417698
0.100202398485534
0.0991316083493642
0.0961891443769105
0.0966705808088437
0.0970082781358997
0.0967622389651777
0.0971436709735868
0.109408373489508
0.112128332798497
0.0987279450460076
0.0974190192495554
0.0998537451677499
0.0986484809310067
0.0955982602791799
0.0949132733352386
0.0977737852339052
0.0964840962314241
0.0954919381471753
0.0964570172668408
0.0943648898531824
0.0943887488529224
0.0938232757541271
0.0943925741972831
0.0950301063838886
0.0959158958122646
0.0971067916194458
0.0957436539697414
0.0938670837136927
0.0951985518334862
0.0932928631702728
0.0925677048840504
0.095119040151669
0.0937647718690258
0.097161534335195
0.104149672917735
0.0986699470619878
0.0962077734697488
0.0945899117754901
0.0922984629180786
0.0931597657364959
0.093840887360654
0.0933519505677561
0.0904958935684131
0.0924865215225735
0.0914915439293448
0.0909695718375764
0.0910558498421196
0.0913897122498156
0.0906052604128934
0.0893432805089433
0.0913286674871572
0.0895736705671727
0.0897559019640423
0.0891908920519117
0.0889981790669616
0.0905099021918549
0.0916949645884039
0.0929790547175175
0.0932625811321315
0.0882745721548073
0.100576557071023
0.10903645214845
0.0959809079650573
0.0905553399148395
0.0908761750156613
0.0856767654547366
0.0880333874937566
0.0881340932077076
0.0876199498899857
0.0870594248485194
0.0878146836988122
0.0875516695700198
0.0888217480586322
0.0887713774957321
0.0907493390400536
0.0863726847361784
0.0888988264379467
0.0882202431474528
0.0877004032417922
0.0884379197165597
0.0881068529307445
0.0937791555170539
0.107022665382066
0.0928224509241995
0.0892810470062482
0.0867763523756594
0.0930708256319743
0.109754704954037
0.0976120699023721
0.0879811951088565
0.0930834427537351
0.0844378433797516
0.0868591482114351
0.088244755779882
0.0858303068593961
0.0920249847473421
0.0920859623009563
0.0906037460769834
0.0925879872123889
0.0865353464691794
0.0841429441767836
0.0871223671978148
0.0848689082056699
0.0835094704838115
0.0851459837079405
0.0856482614140057
0.0866848443873456
0.084487177390346
0.0833634389350541
0.0833732984422229
0.0835889337704434
0.0921979045244296
0.0921274592825661
0.0852945272061896
0.0855951126981361
0.08226230007874
0.0806799577986481
0.0996239005626018
0.100115963259066
0.0888939377829608
0.085131755324684
0.0858305634451321
0.085797053902897
0.0891647487105132
0.0826931208976781
0.0834035396453563
0.0839131543632568
0.0847989637805801
0.0852356648694913
0.085459135862548
0.0846049014473403
0.0818898632886859
0.0851558540995049
0.0855522698561851
0.0860929435731101
0.0815076014284954
0.0848513652033762
0.0830598489244931
0.0917734447085352
0.112480407311207
0.111612697041834
0.104054945558952
0.0985925433025486
0.0921455990754754
0.08382962171044
0.085092093197301
0.0830514294002465
0.0862995640574764
0.0861073994662956
0.0859618699063868
0.0858130076796027
0.0880506271739509
0.084131186773493
0.086982005351096
0.0831032790792967
0.0824497137673003
0.080363133553305
0.0858244495601002
0.0792739159855025
0.0844666515896205
0.0818137742550056
0.0878760428102849
0.0910544433360994
0.0978251835833355
0.0817640034037434
0.0915376423821419
0.125922360076145
0.110704183021652
0.0972961887858876
0.0874396175905292
0.0866750767186848
0.0812985598007015
0.0828024446909918
0.0857901755689544
0.0928310896810317
0.0835176273865487
0.0858196443464354
0.0867252274212838
0.0912312221626656
0.0828520886572669
0.0872601980362961
0.113321081487194
0.120734840844607
0.102265816897757
0.0910404467520304
0.0838722520934617
0.113866263774725
0.114732212875966
0.0954814599906624
0.0895975371222553
0.0933688458278419
0.0884415873221737
0.0869772669094551
0.082454892252318
0.0886792802866621
0.0974550428375564
0.090865453797428
0.0889545303817565
0.0876172340446333
0.0891121603753154
0.0916984382414351
0.094220657689448
0.103312272510714
0.101840338982099
0.0957921513225405
0.095673468237237
0.0961271858066632
0.0890674653241891
0.0912422298876688
0.0900665239775169
0.092114376012363
0.10800141762476
0.106671501241125
0.104508554894519
0.112987823310843
0.0996744991813211
0.093511910969415
0.0988032691531485
0.108508594645346
0.101736818362831
0.0936076127211794
0.125101731054304
0.118882687404484
0.135062741230541
0.10791548731134
0.104971425847054
0.0919891407640648
0.099564983308957
0.0846132156300167
0.106654794453435
0.113493844788066
0.106966472883717
0.0946060350104708
0.097156523644277
0.11214783099609
0.111237960047205
0.106733027138287
0.102026995709926
0.0973109914919398
0.102581837478613
0.122015692673809
0.0995811871666693
0.117314273506483
0.133956094365496
0.14285523913633
0.136773408451917
0.105244119777612
0.120266305980037
0.129533809072461
0.115829554262587
0.106635874190459
0.106260529239922
0.105916218204728
0.0990060590960177
0.128902661469741
0.140081514347134
0.114963712673152
0.112646666452484
0.108741747210426
0.121374126249386
0.139890072720872
0.123278647222847
0.110968314018006
0.118647481475261
0.111377470612224
0.132468588051162
0.171519687800308
0.138401944676141
0.153482050484661
0.146457225705142
0.156040329693692
0.1359156308458
0.142986871481067
0.128561340558859
0.15757838357478
0.152791674074396
0.136205098349675
0.123694467206671
0.169250412607631
0.145395259866688
0.147566581482671
0.133648232081178
0.137516318517223
0.144753866932625
0.205592613658683
0.20065003026428
0.183111248774085
0.144954645043368
0.165275510623515
0.174568326536401
0.157768282939456
0.147247420998714
0.150890049645487
0.150750792290306
0.1523298842794
0.159129477107004
0.166285868966521
0.157441521659223
0.16611124794122
0.155556859083052
0.178789641760953
0.198771972350798
0.263965576997767
0.199402821883631
0.206466987236099
0.206216808148452
0.207653492912143
0.185523535496387
0.178720380161863
0.179954623504789
0.192116457074135
0.188795857992108
0.182920734168896
0.19318500424646
0.222812767612006
0.202808077906055
0.238764154905781
0.205262177990793
0.215257869130635
0.191812680012349
0.281924776775036
0.313782223149763
0.259253840873167
0.231453100056392
0.231511506563712
0.283072807050328
0.291222872400342
0.256015006512851
0.231222668024705
0.240016647828577
0.240105417864514
0.253730743063095
0.263886192209458
0.274290029180961
0.28266742652522
0.268020429203497
0.282958595037348
0.319656440924437
0.399672503688601
0.386341178895354
0.316745193582114
0.313861738232572
0.338728394066589
0.335473289815592
0.320904048127705
0.337612005159282
0.327076322658093
0.395171785307097
0.391188145765699
0.384878764689638
0.355564122245785
0.400664901008619
0.389747704493183
0.403897267299913
0.45020459229881
0.431237056069276
0.418242992605634
0.403370120736247
0.430546287272939
0.414196666364475
0.450841299609089
0.464458992090272
0.474732358834427
0.455441520945711
0.45968156907279
0.465367265514215
0.46490054555035
0.482226641599104
0.470554707249022
0.490414369734846
0.535809549560718
0.579674763404036
0.704625626730385
0.528265479957095
0.510937599369974
0.478792742993925
0.524788386126777
0.538857701759547
0.548078121143933
0.570949150762711
0.547676214343631
0.518236013499392
0.50571184265695
0.516017264143749
0.506495873293713
0.51408624215088
0.501746137548558
0.515489154923651
0.545825719409695
0.521930352215802
0.617663225814446
0.567506496191711
0.544610639054803
0.490415559944694
0.517559746462817
0.492042418888349
0.506052894888414
0.487538839980053
0.527740469064312
0.497812930692925
0.498742877168272
0.474436933879087
0.482317942835984
0.521673463599179
0.5087443795489
0.481349904676766
0.475535898494498
0.457476231196707
0.463517914524166
0.43927448535163
0.511916624369328
0.467172499673561
0.459920405288413
0.435044557996525
0.436815393822131
0.421881957304581
0.429729110390597
0.411471208723136
0.433698960854444
0.409663819804693
0.421621418073824
0.408883931919092
0.409756856046281
0.394351724425811
0.403407676076413
0.402771401824118
0.398960919901003
0.394868074200897
0.383545810466037
0.379980103177657
0.381637736622608
0.383666053210479
0.383922206021363
0.376756590804217
0.380726064197548
0.377642133125772
0.375311510089727
0.367303692511505
0.372325359321335
0.369164162948358
0.363566210080083
0.357542201917317
0.363362624416131
0.357604871415164
0.359320464417833
0.353424195543011
0.354705537761502
0.356519089329955
0.352667936826928
0.357262986655929
0.345902421292302
0.345111942795843
0.343859747032905
0.358868264327352
0.425801371555919
0.362780294098289
0.359176064377085
0.326911035744455
0.351495650098376
0.321109798375823
0.348056377484346
0.391592333021252
0.363915006105595
0.338709083743921
0.328137199121686
0.326399210096887
0.358860532476045
0.321444834675573
0.335983622709849
0.309317789566679
0.330055233593461
0.398400730515612
0.400550389148116
0.485734268730003
0.404807224499765
0.352972089892203
0.306853961198377
0.37638330900195
0.338998101994618
0.325096374118585
0.303214452846384
0.312884995657676
0.364591756347672
0.32331306346937
0.315234228610856
0.299703801284164
0.308250300004101
0.344375989684001
0.347737953766928
0.330251614444106
0.362946991586376
0.339107786861817
0.346065958531692
0.386427397179634
0.408025706002813
0.323346723642339
0.301030980295125
0.299796944814277
0.288710137421743
0.335636834931266
0.341458882874487
0.309283129227059
0.315498782444368
0.276514628532325
0.290585396388872
0.281614425704776
0.330324627216052
0.280916381499531
0.334368239183332
0.304511011401478
0.289763384148766
0.299491230898588
0.313677650986543
0.364355427627442
0.347249390537909
0.287068677953534
0.272465704272661
0.349717989730003
0.317794534537118
0.303173898384241
0.291560790840536
0.257975184799919
0.294442600808522
0.288947610642172
0.27188435169655
0.306025058994897
0.292603543594494
0.33150999876259
0.355965138782117
0.38725954374743
0.338983474483905
0.27510784104074
0.267640407564554
0.258117654822405
0.280679672667877
0.262483275557788
0.266938136759792
0.324030761460264
0.265442074799889
0.301917972704064
0.313441020469422
0.290903948148942
0.276283138079723
0.277578835823082
0.276648309064013
0.298401969208793
0.340543483061428
0.356364589058203
0.308628679435002
0.338042400564423
0.321460381832428
0.319667516188549
0.308380754970207
0.321907245775784
0.311682443641976
0.331642393938677
0.35035397817337
0.343833096382851
0.342475590239046
0.355940111189794
0.348947311026604
0.42456990563392
0.3829540872837
0.398185688863725
0.424653705712064
0.445328624799908
0.48977428006083
0.426912127300297
0.437222467182908
0.423791514135654
0.441075129712198
0.445640804383911
0.441254671313859
0.501089456715556
0.498715228154548
0.488108909327735
0.478548468908792
0.48323996543117
0.490018611267941
0.509868160935007
0.555531449347819
0.53193912149045
0.634198734075944
0.555180939533082
0.577064488596792
0.530431320254986
0.533401793973044
0.533394837389249
0.543521251555918
0.535049557659549
0.530497456288309
0.554074804065274
0.581675004040262
0.543958615521375
0.548260719534901
0.54059864229347
0.555293484052963
0.54544425140371
0.559343024748566
0.562992974986765
0.566669888208506
0.568819217180328
0.560017761786931
0.597503568818688
0.658796799784073
0.604813804668708
0.605992817169986
0.585240988612039
0.608217529216138
0.583031555621985
0.614448100419295
0.642900626902157
0.610781976058184
0.61159980606256
0.618699089471831
0.616351395271252
0.610595525849173
0.649955654554576
0.652592988287388
0.634359590545
0.650717258131325
0.616100086522655
0.739273201328808
0.677045415141334
0.697882385416342
0.653080747024734
0.673920428161743
0.64452590244802
0.666815918591523
0.654784263548763
0.666634571850331
0.661213648369069
0.658066925619442
0.658290017782747
0.656364815108772
0.657462724023237
0.645133665420098
0.659482296669415
0.683953911492101
0.652122595952888
0.652779378376082
0.64208337525238
0.633543800649242
0.64145073961585
0.682958695971656
0.664783700656277
0.662933000526828
0.636042899538101
0.667380009311904
0.673007067070425
0.65446954361065
0.626742218894393
0.634462386598581
0.625800774172574
0.648025046204664
0.621782905946452
0.665126409562034
0.672226927702234
0.664693802289292
0.64310786090148
0.661119712843815
0.649600205770021
0.668127668848539
0.667230619000661
0.674782296654433
0.666344630180011
0.689342010837725
0.68592380329421
0.684241680009071
0.686467883865006
0.716355356753732
0.719560377306462
0.722713777535112
0.696902889297525
0.706311179696655
0.69411528106327
0.707302896266165
0.69616551566155
0.705829329088519
0.6833012886951
0.697584117583329
0.674687416090609
0.717417928309098
0.731183052112527
0.70211152061877
0.705966401906311
0.680200005835164
0.682326173364489
0.673951789530936
0.678257318968524
0.667786882045316
0.668514494972122
0.676092559796166
0.65271041074711
0.660874621417693
0.655094466553533
0.657970055712144
0.648071173810328
0.660774832660905
0.653218347162142
0.647216847913492
0.643251218761239
0.652671575675887
0.639159218116287
0.645323561680377
0.647031988457181
0.645409871492786
0.67129440824814
0.669576153546721
0.668291831985146
0.654236131083175
0.657089525432715
0.646792965594992
0.646304938638953
0.646109379672986
0.635481072810555
0.638518007270878
0.626707326603369
0.634809239249544
0.631294220792938
0.635790395921636
0.621999550047737
0.635189728799255
0.624511087951939
0.624581677170739
0.623441492735991
0.632080365657819
0.616188242769391
0.626322887196863
0.612312585635687
0.632821133869196
0.614836305584186
0.624398778220853
0.612813591513853
0.61446645307742
0.614606550627195
0.617295437991613
0.610534640303473
0.608720456887994
0.600401103404983
0.606442974944737
0.604880714874756
0.612397018667057
0.598931299873698
0.606414468604902
0.603853907497038
0.601729025555269
0.594038402214953
0.589736731172316
0.587450251172961
0.591871124682995
0.580650147766372
0.580259943822625
0.577820653112664
0.573908001164006
0.566436039690113
0.562724165656288
0.5534372259715
0.554999399923718
0.550994752522768
0.54723356252763
0.542646500314315
0.538322644065937
0.540126689343191
0.539892351972489
0.52878570305366
0.532330262749719
0.523775440559566
0.527447621705762
0.520186072168366
0.522465127542704
0.520182270558458
0.525005581250258
0.516207184162792
0.520284879286364
0.51873544203041
0.525213794809867
0.519982571045157
0.532119234357438
0.520291519242066
0.528901487062555
0.530611999969529
0.532976537797675
0.530701349175626
0.536653439316424
0.530191212598915
0.535593633144552
0.538011349617677
0.542327987496708
0.540675151270082
0.547260857124729
0.548035352686663
0.549852275798282
0.553432539796971
0.551610810145993
0.547876155116286
0.555215337947036
0.550515168707483
0.553154549873578
0.549834615861038
0.553094752327987
0.554135077494366
0.558380154263756
0.552051742259572
0.549528435587591
0.546213143521316
0.54656542701896
0.547867449108321
0.547220724561811
0.542516127578657
0.545757350443355
0.539949378398763
0.541726374052662
0.540607589185767
0.540673690924659
0.535795256886992
0.537065489474402
0.531520848018215
0.534131009345451
0.531613841113374
0.531651451247648
0.525056701606328
0.530092200454993
0.524621596488506
0.524964327186911
0.523044121920155
0.522466931744718
0.512346977744565
0.514900604356382
0.512074596066397
0.513613634569353
0.510538832951635
0.506519978951189
0.504428802609068
0.503724336653991
0.491941562125544
0.494197956719442
0.488939529857738
0.489458669219493
0.480669184190129
0.482603850211337
0.477950453494638
0.475923713983425
0.474588310448802
0.474900069084116
0.471761981625074
0.470255924074526
0.468013721988788
0.467982730633409
0.463720124523723
0.463288868993955
0.466201767481027
0.463588016414157
0.463968638487616
0.465104626125561
0.461288642747264
0.461467581674664
0.461176589125916
0.458546373135667
0.454174498016767
0.453199913094001
0.44983212162729
0.446174242197926
0.439083293848294
0.437835621169413
0.428537017274326
0.42421238926259
0.41553554233016
0.40845926493307
0.403714054067937
0.399639636858321
0.39316800425448
0.394885200064685
0.392845913253517
0.391243916712973
0.390027899354387
0.391656444217867
0.39463925341673
0.403114890767108
0.406493043851873
0.41700405831324
0.42095507859937
0.433110266843959
0.445710772622675
0.456569353912609
0.473447528478152
0.490648415966019
0.505011849779676
0.523436444827088
0.543553747784417
0.563073163358375
0.580932761946681
0.606350084449938
0.627307219436611
0.651005323131706
0.670037492276595
0.696472857197328
0.718315982793183
0.749804378273631
0.767802813333897
0.796047905583964
0.822208674310684
0.853457048728192
0.869061174974163
0.886899700105245
0.910893725085986
0.943171411293105
0.948880907569647
0.97802252340853
0.998450595647422
0.990645661408213
1.00811156164773
1.01454964362828
1.02335124698315
1.02261475060289
1.02719517613842
1.0237669315061
1.02237924753977
1.00630211734459
1.00859512690246
1.00029000483208
1.00182973892545
0.985781586383779
0.991266669181733
0.973068658241212
0.970876279115501
0.969050061771244
0.956036425943202
0.96370319641228
0.965842772579846
0.963024190754074
0.970189920731586
0.971834692952434
0.968233605459561
0.998385854733234
0.984548085285406
0.998677143488128
1.00780254536674
1.00886318154608
1.02282441500652
1.03761806173763
1.05187901445042
1.06040907189443
1.07015442128785
1.0894856994909
1.09618439414327
1.10418796645219
1.10764317255326
1.1040811059402
1.11691293159151
1.12573582634213
1.13144721879958
1.12628125920284
1.14284517424887
1.12920405541351
1.12234693684031
1.12426265108611
1.14720851729727
1.13936029596091
1.14407060268804
1.15805836353458
1.14483233036622
1.16742675856178
1.17914400208908
1.19199807835399
1.20015611355688
1.18422139477702
1.2104112205708
1.2112937982368
1.21567810963566
1.23961742996613
1.2509347001532
1.24604633782869
1.26105937592976
1.26918418250697
1.28648564080363
1.30609809327201
1.32525090168036
1.35107149763942
1.36936869522284
1.37707931316745
1.39266055930792
1.4318309230938
1.52378551096154
1.50226479166609
1.5731811672945
1.60225992015547
1.65117171854724
1.6359336589881
1.73561321654251
1.725807301501
1.6859814064009
1.83342783055348
1.75777094361837
1.80550655230435
1.83874847823312
1.8412618739135
1.78349974369488
1.75722515112207
1.79274346593711
1.77857070918752
1.72994266082207
1.80894893143559
1.73318329020841
1.74210393555982
1.76784169673736
1.76318178794243
1.80188880789298
1.71356976145417
1.80059247332081
1.84721964965939
1.78438871875102
1.79230600947357
1.80532774804684
1.78955173914125
2.05978517319802
1.92478089223225
1.89948654299035
1.83196280685501
1.95964752644423
1.93599697029783
2.0367428647877
1.98404499586058
2.04321111424322
1.88464116506708
2.19104891882214
1.98177460021548
2.15332699171797
1.95498325132557
2.08866454410337
2.15607394631672
2.31705272733131
2.21821111840003
2.34431326734218
2.20068601103096
2.38704366161087
2.52692111391245
2.54132223897163
2.34919922735498
2.27818544749322
2.21088095974038
2.77291710776096
2.56408728930326
2.68178975079111
3.13521904837793
2.71884806435607
2.58661299997192
2.89472448563089
2.33678372752945
2.38502027060984
2.3993118170835
2.47017975502413
2.43196121715111
2.94696805461627
3.02685581230277
3.2252101305232
2.29867658646252
2.6022366520803
2.84428276619995
2.59650497583584
2.19178146324105
2.42857206714011
2.58356975710348
5
2.43855436841529
2.5025360914594
2.17605841670264
2.54915657128246
2.11767213114325
2.17733745294247
1.93104248977017
2.25186081409906
2.0707420256787
2.12239624179942
2.34300945990399
2.62307384750907
2.01226946407307
2.19162004738569
1.99154633614141
1.99733135440465
2.09382857180308
2.21832757418985
1.94169098846206
1.92781959246782
1.80781371237077
1.97499663209974
1.93761048025716
1.82526522464011
1.82293351313556
1.81460949227778
1.65377449681467
1.68579130919574
1.60351497301442
1.62093988825915
1.49610117133315
1.49559849300199
1.37878181026408
1.34091363725339
1.28839417761843
1.25413612605731
1.16904812398416
1.11357847048072
1.07444411792945
1.02366255571572
0.982450826575625
0.934024579991226
0.90554571557853
0.894889404970305
0.828531289176496
0.815910231518901
0.786244026870459
0.762781348176367
0.735032650506378
0.719248130389112
0.704941946533518
0.693044221496277
0.681658148384772
0.675404253589666
0.660959100320762
0.644855113367623
0.643332718468214
0.629880930667612
0.632865793205149
0.628830583188995
0.624853900380209
0.628022688762646
0.634738786805371
0.628744268870639
0.638212423137882
0.64844094538858
0.650373369513959
0.653372671142076
0.657239673254562
0.662166536200393
0.660149772167981
0.674829855465522
0.67575718347522
0.678851109828381
0.681743501098702
0.689447642813992
0.686448664877599
0.684926150420934
0.680177038597604
0.683906940797551
0.681241494877581
0.688313106075217
0.678564326493647
0.678388377680171
0.687416335116714
0.688557880238548
0.690601655201992
0.693200346936005
0.684912985782676
0.697642210669881
0.699325764743074
0.69486268909418
0.681619094302465
0.687638674704877
0.681889675371015
0.697549958639053
0.700032548141384
0.699375733649191
0.678260396771045
0.686376952003259
0.679745770916164
0.677998721769496
0.661426489387472
0.670325789934059
0.670482717274483
0.6681457149479
0.658390604815416
0.651775728185197
0.662395511260369
0.68504762245668
0.669992207629183
0.67001645532269
0.683127437536628
0.6847211053271
0.675014693286395
0.693767350626203
0.703905931447373
0.709390002646875
0.721113125036731
0.725330169399142
0.73429334643788
0.76644367695384
0.765571130015738
0.760491391501759
0.743866658394674
0.765667529938724
0.743462894852108
0.752423663288693
0.726684618449388
0.735009290880725
0.71544763486208
0.700624572688041
0.687722135660554
0.672655765760523
0.679375456235227
0.680874060131733
0.669952060144122
0.667764547001447
0.657207540656403
0.67550105545177
0.671768987949508
0.682268415975165
0.666319637007898
0.671459575040879
0.669741820706153
0.672694495063917
0.668421266985112
0.671215021405985
0.667283658120072
0.670739028567831
0.662603146385359
0.666150981182891
0.652170056266782
0.6610839170964
0.649211517361475
0.673774332169489
0.675796990583661
0.657753926219274
0.657919820675795
0.6778312442009
0.666118607092844
0.669938233158602
0.690099623462987
0.668368328498813
0.653082728088478
0.641968953948981
0.645367337895404
0.66396749064702
0.653151395817523
0.638383186910455
0.648014054944221
0.668009421389518
0.652368458602734
0.648074944317944
0.645609170616633
0.65422104570871
0.626363270597507
0.633474001503773
0.625215405993402
0.62257218352003
0.609192272615267
0.605811055946464
0.610265907548001
0.608979695898305
0.583595303575933
0.599210049876683
0.587174797352924
0.586281064657704
0.586376038184254
0.589870836041128
0.57487333791777
0.579296542446547
0.575165970594179
0.582256751385148
0.570158884895985
0.57767026553048
0.561414114101899
0.575362559096768
0.583397193226084
0.573389871249085
0.55898004093612
0.573483060736226
0.563714663599425
0.584890842006273
0.588432296191
0.58276685739578
0.591468187645168
0.593926234018526
0.570075855750079
0.593844658537356
0.596148733010495
0.597984155551409
0.593391827853459
0.601753406336238
0.588707762211056
0.619292668987642
0.621303441788553
0.615577020897659
0.618228484148974
0.626901788629328
0.650399659903524
0.68420631225348
0.669368687836282
0.661255986464184
0.670581726802961
0.702732743263657
0.695556239984214
0.725619649095427
0.72711276483941
0.757143600405633
0.749283308415854
0.773726076276307
0.773178430324202
0.813977232182487
0.847713439931749
0.837868505253371
0.833834627065756
0.890817210166906
0.888617175415513
0.898174388187598
0.851368839476136
0.874262485446587
0.928140681936707
0.858387933519842
0.869625400776104
0.937373132049685
0.884285091989562
0.931878306388429
0.909691758192275
0.899043989590339
0.891115823056885
0.992500661563884
0.896036020774666
0.904559949961397
0.920676747643501
0.951707825282497
0.922418968440315
0.974206792807339
0.899460972548193
0.926155198138649
0.943488726843175
0.899010313259151
0.926739042909235
0.934283255949105
0.909467174778877
0.924052866293322
0.857277383009749
0.912924381162751
0.895928033683396
0.963715146808743
0.966219207226763
0.961228414877344
0.857328618411818
0.88603584488965
0.866742661437791
0.831973269394405
0.876656483670176
0.915264976675988
0.845206421811447
0.770618111322917
0.80097942920841
0.895340653149529
0.844210222998122
0.884762549978856
0.837958199596184
0.818142027291255
0.801903907063745
0.881702944334707
0.833462928297876
0.88960063154339
0.950782315618185
0.98427445833377
0.917516152927434
0.912198551852857
0.886654678694352
0.903411266893924
0.802217178189838
0.914630032012271
0.947780015175316
0.862216286144808
0.836196910952132
0.927854769317006
0.910169428577585
0.944397868944426
0.937035985838499
0.973525556266486
0.990918398883812
1.06683479403805
1.01459284375938
1.02678065570992
0.917692604607567
0.990875453091036
1.11410238424559
1.02096061027288
0.950125636973443
1.34401543041009
1.02826613420605
0.988214276229458
0.994697289985749
1.08749378232113
1.12861908348124
1.22686941012884
1.15097174523411
1.07010225766664
1.16764672985776
1.26436225410604
1.09059979449303
1.16326897893731
1.26676138533532
1.18214134586677
1.315817956582
1.31817898859358
1.05123206002988
1.00169127294131
0.968047379896031
1.09064632194195
1.07999452052719
1.13636867817178
1.37409460169122
1.24519720010561
0.947645032334916
1.17989669499685
1.32289433334933
1.73498229039676
5
1.22612218845692
0.96990785047432
1.28751026463585
1.02813649162082
0.76674044494824
0.829948243305895
1.33164631641826
1.08613453168891
1.02787992174416
0.895540342063849
1.05971880252849
1.21507220069112
1.2441232806848
0.837322091581263
1.05931537255384
1.27676878526369
1.93032746167183
1.37363074535763
0.953108659372916
0.888372081819047
1.03219649555815
0.908425282206964
1.30848129921418
1.06000526411793
0.908883379063647
0.781792417413362
1.82831735323269
1.60095668101803
0.884105517573705
1.50588700086938
1.07151369249221
1.09672188926147
5
1.55723561958276
0.930518681510683
5
5
0.608067262498604
1.08755136985604
1.13097288967394
