3596
4000.36533379555
650.420452594757
1
2
2
0.118194200823133
0.114834791803523
0.121861060978013
0.122221385171976
0.112142043759527
0.120150742969473
0.117795733813079
0.108377031164012
0.122406104089899
0.116511307223037
0.107702706161681
0.113112886599294
0.103964313388182
0.112520602802311
0.117471390535207
0.111496702818093
0.109768464370514
0.112392442158689
0.110410416884802
0.107077676644024
0.110902948948766
0.112372598121793
0.10895370097275
0.1152506380166
0.114968902616396
0.116122942759896
0.106916877656696
0.112308783972789
0.120163296178731
0.121541554245141
0.108517981281656
0.118256218471068
0.106143688443178
0.115942549131176
0.110999583674307
0.120707969391682
0.109090315307036
0.112383927236626
0.114590333038929
0.12437771496094
0.112307813562064
0.111933701289325
0.121826757243024
0.119227298785521
0.117190709826704
0.119254287766646
0.113681017365817
0.112991946594186
0.113278207402671
0.119910362774361
0.118984941299927
0.118408668438672
0.136787601066008
0.122117145732068
0.113937652449824
0.137187524484599
0.120138040176424
0.107205799865045
0.109294061037802
0.11692152086338
0.139461041976744
0.128617643479724
0.106771589470509
0.107971840359245
0.10298074877248
0.113971557454549
0.105860143963019
0.106758647465065
0.109393528730666
0.116723226196908
0.10395003977087
0.143566052493602
0.125059624551863
0.122135380736619
0.12181424766673
0.109283244915568
0.104073868982376
0.109925243574197
0.0969813833516489
0.127270612442072
0.120317097511377
0.118228024366397
0.101005189684736
0.101683873784837
0.123756777347277
0.135168378734357
0.101339133975679
0.130692523223153
0.125679248463397
0.12102714046156
0.107174984149911
0.112401431671451
0.0994263862334488
0.106680160848437
0.104907482492494
0.106958754863233
0.0928884099363379
0.113811450352795
0.0922386699439809
0.134571116814564
0.11893273964569
0.154272170733759
0.142270641482278
0.118200608186139
0.192038627941684
0.121958686175551
0.126308257165876
0.156935616899026
0.118687517453461
0.110518296285394
0.0994230585839924
0.109272154370595
0.105514072438625
0.123009545258729
0.103646594965462
0.153353307361555
0.13201460862712
0.114224852081932
0.104131241642734
0.121913807583032
0.0933404036595968
0.177798120675037
0.127341333391679
0.121413859064713
0.118326542065383
0.109215366334422
0.107856335993059
0.167840181367816
0.117747137328565
0.113718936596611
0.102024182138215
0.102627906635572
0.0855213529959518
0.128863972443593
0.137545416920521
0.109834275074123
0.106075159350166
0.101846937261851
0.144650191272081
0.176069050397386
0.117384410753786
0.113515017240445
0.0916563617719287
0.131792034972025
0.153761973421637
0.124849443029303
0.100563731509619
0.135473068558469
0.106343906349384
0.107285294099475
0.0935003616969
0.103463421182566
0.125065715250791
0.121528728403063
0.0838291394966312
0.216451559305633
0.157039588955842
0.148446944119419
0.159492933418131
0.111947472054711
0.122831615318486
0.100936506227622
0.107755790017215
0.10034619072918
0.114054263849839
0.100197921902083
0.125456135210472
0.13976246801959
0.113863438259518
0.119810704576187
0.147133220549122
0.130395233422624
0.126610706896201
0.194059939857247
0.102525838208878
0.120178708924927
0.137644733292843
0.119946935027009
0.0919292642607513
0.133766959221852
0.132575459298262
0.101171034543996
0.102453733543963
0.103834343184978
0.112011543307672
0.136617551930752
0.0990203071469267
0.110558018626203
0.107484587538374
0.103743643386078
0.142306248095576
0.183384213664271
0.129744753407836
0.1187774001155
0.108918344608478
0.0834979347302593
0.179565899819821
0.136829363938559
0.112129848393501
0.106249880251316
0.0966708167964457
0.0976048010144735
0.0905250667601751
0.109254534287085
0.0879459045695282
0.103523307876051
0.156346533286247
0.112142126884043
0.112297806479157
0.10469106425336
0.120435924594267
0.112811548066495
0.180291538221312
0.128778788131387
0.108184846373733
0.103134525402487
0.105810172500924
0.134263223537351
0.127449947075665
0.107502394519581
0.103881018186903
0.104633295222532
0.106874403948692
0.101203784727872
0.101632631471657
0.104635468584426
0.104739587020085
0.106316674243948
0.103022943678564
0.111366224152847
0.113973996535924
0.103822104700908
0.111341170356094
0.106864532750201
0.0900174649222939
0.132424124077594
0.12716824312821
0.113634272704103
0.103167200752959
0.103571873129297
0.107793249744877
0.100034421656503
0.106739067379672
0.109476792999016
0.105500923309831
0.11099556312169
0.145293605721825
0.108789901827875
0.114960821307252
0.0970924462830198
0.155494063235154
0.111303461015331
0.112742240241849
0.0959695612926525
0.111600739417807
0.0931033956122322
0.121377647274696
0.15213986571126
0.117134769953809
0.106219206872626
0.137742290087513
0.114744220497474
0.109345547288184
0.111538919849855
0.120458968939659
0.217325522135969
0.11227644952774
0.150747602749715
0.182617315701206
0.124344824353703
0.132447012037637
0.110444093212722
0.126789504539246
0.289063955748372
0.170352125949834
0.111510086147448
0.127042560357092
0.145634670015559
0.101899831101135
0.136927688538277
0.120563482063745
0.161014339649427
0.148563536331708
0.194529200069143
0.191399705118244
0.10444525703873
0.178327409035207
0.131123484962399
0.124034943970103
0.109481800149337
0.117919898485399
0.114221131080197
0.15174756744553
0.138876738952152
0.144117126966119
0.11908518792194
0.132362100696087
0.166031210284377
0.126505947819518
0.117539278831585
0.129865038031352
0.133614474888934
0.105318955055069
0.124678348176961
0.118146886728768
0.127107600758533
0.119791856482993
0.143991498665206
0.189309393652536
0.130547131247828
0.141752050258138
0.165314895603527
0.117773221134487
0.119219751430397
0.113242164491524
0.114353056565372
0.11286927560906
0.110076569876557
0.114310181642845
0.177352417967014
0.111941502661095
0.126545966610798
0.116956063538555
0.115434169335516
0.115336370428287
0.12682373712914
0.119179251320859
0.1274422664766
0.126767962505594
0.123068873072022
0.164758135309525
0.162291670467626
0.113222040551417
0.20913516135619
0.150553855140445
0.127513573918553
0.115314445633695
0.131545590800037
0.122921935862673
0.121106309127954
0.129325948345063
0.131640887287608
0.13220056622651
0.147236158168851
0.143809958556249
0.150330470953827
0.160946058729574
0.23120785250018
0.220399009122704
0.141619381455619
0.139982491552477
0.121380938127194
0.211590454440502
0.17253249746018
0.194861680935437
0.174018920145547
0.141572276293896
0.157579313911732
0.135633767877286
0.148230163371462
0.140487565527468
0.160206169526024
0.145249917542634
0.159004939326556
0.144031440490846
0.161782775041625
0.138400032072799
0.175716626956398
0.201432167491336
0.169319819833947
0.155951897146794
0.170168985601203
0.149859619587776
0.227329701094337
0.188346824040089
0.264223304546359
0.202853953027553
0.233549977315532
0.226054679140648
0.171170863024864
0.178214013237118
0.170552287370835
0.183038326471809
0.1905627630946
0.176554361052926
0.18076944106859
0.177929654481796
0.198043399660686
0.189598617108122
0.192208878758075
0.196007217127679
0.202286071554878
0.221082136102124
0.199663703621876
0.208113051667797
0.205801626785734
0.252476899312836
0.275873368666325
0.266063541083145
0.212014777573529
0.233735523222535
0.215949719136256
0.216397142595934
0.223110366622339
0.213656927516929
0.23501450970778
0.235563416738197
0.286537109990984
0.253341725491857
0.279719244592888
0.25202720748341
0.238464321716635
0.273871062367568
0.256886780700901
0.272345241514976
0.29175510791977
0.258306492138961
0.239726563353934
0.291514946670093
0.292317536466793
0.281137356341996
0.306116808632072
0.266401012822013
0.269044295603309
0.25900343495391
0.301014783362241
0.258606991458062
0.302495405657045
0.287110426573295
0.298299010401857
0.292507193115314
0.313808720340931
0.296462321338947
0.331490882519294
0.301864721683054
0.332205468011471
0.320870250582775
0.299121052292543
0.306429161617682
0.305157156909806
0.35482984841887
0.345374086968174
0.367105810441181
0.367548292280815
0.325144913449982
0.346606031328976
0.32126677325811
0.349931136328398
0.335668864477458
0.36443587203403
0.358535638102854
0.357363053168685
0.354210180732443
0.370923896480649
0.343713164168164
0.372722517091808
0.372686230342259
0.376321275525003
0.378706205096324
0.402809420897407
0.390347307931943
0.400144847266169
0.446944917925718
0.447491512960773
0.444036519588805
0.457832333695978
0.406959591091858
0.432278574067756
0.406030085521235
0.438894538279258
0.424343027752273
0.466006128429843
0.43316400936648
0.460064459241822
0.433499214167635
0.446937748638137
0.429438840375626
0.438818263797728
0.444318672260024
0.469783285927834
0.460859129260177
0.478310503672864
0.44205270482151
0.488515093425292
0.478237172263704
0.492400965045645
0.502751451741738
0.527178769226737
0.476005986768296
0.521476953653899
0.489270573244437
0.525392123722604
0.479988222078543
0.528838216874614
0.530205079203168
0.518810867136342
0.5139120348584
0.565496169216475
0.541555634630819
0.533430162882575
0.529267282718396
0.588010312590381
0.542054136800568
0.574736088380927
0.54596566460139
0.570175815160278
0.569198894664398
0.58308481104341
0.564663396884031
0.590440680331745
0.597356041867014
0.605538340487023
0.578984344310338
0.644079093541862
0.607698560458963
0.627598015867193
0.605574735096074
0.643292207361215
0.587153920585848
0.630960224706818
0.591315378911498
0.627700297340261
0.64557889702107
0.649161924904901
0.650569518476245
0.707085514318379
0.647766010749641
0.642443607592719
0.630616457498157
0.68091832158136
0.663684500570171
0.69151844328579
0.668328223310377
0.706253317667246
0.677794386789816
0.705076091971937
0.672134383993385
0.700503253477317
0.690761579551819
0.717378878872963
0.693964508644237
0.721865550171803
0.721806859412841
0.744174458816439
0.720462438465427
0.769522043155264
0.730398132222513
0.774589711032359
0.747118750527354
0.763879080045361
0.734318729793693
0.770141117874751
0.711983416099312
0.788207800196189
0.744890922859136
0.786035073422829
0.774718075990746
0.788578467871738
0.724340359800447
0.828235990359823
0.784367679031963
0.824368307870267
0.763327428364839
0.834977407186061
0.758140652128889
0.804230532391078
0.773347294539071
0.832920042456156
0.772645638164836
0.850686623335775
0.807914345085382
0.8525206451744
0.858222376308278
0.898364241532451
0.899187920341874
0.892149376130471
0.837074306236031
0.876671074067985
0.849656336811533
0.901768845418051
0.87157878241902
0.924122043698187
0.843550746794229
0.941602324133639
0.884431198087776
0.84884055597761
0.875333262058601
0.935434160051419
0.883409382989574
0.893034165395522
0.889303617298905
0.934641839558169
0.948713726906644
0.983739453527814
0.879983722082624
0.958554776583279
0.904222157683919
0.945367417160777
0.930944545906743
0.974406667705876
0.919403996717792
0.943762160751674
0.95854826290047
0.960482257965322
0.942889856455286
0.933657894775735
0.931623158141529
1.05670085632787
0.941158493017459
0.986650459720229
0.986150419800843
1.04096477861806
0.984915262169054
1.01782896757446
0.975950991799854
1.04395582229813
0.987163175788771
0.991829380901627
1.00510920634589
1.08909923974353
0.979789975194747
1.07352146889079
1.03840663668505
1.07090021009667
1.00632818914014
1.07228115746635
1.02746659256683
1.10539045461343
1.0217135432381
1.07683426122421
1.02480823740326
1.06394034355245
1.06408406611215
1.07668300518426
1.04276505177041
1.07913217956953
1.04516988410262
1.07813593787148
1.04057888046663
1.0793741718319
1.03273305247406
1.14893867299468
1.0259963089527
1.13789337345192
1.1202106763334
1.09463109889124
1.15528786608972
1.11519677041615
1.05811271268946
1.11908091804125
1.03769312290863
1.13402566702296
1.09177553638465
1.1235323173116
1.14210715560389
1.20418826625739
1.17306803000758
1.16616316757544
1.10795434928819
1.20079312053946
1.14816274040891
1.13565226056036
1.10332027742249
1.2482006601285
1.20603088929366
1.22611948027236
1.12520679739105
1.25430380988758
1.1421410948161
1.17147885590067
1.18242946142295
1.19514541619052
1.08861853290448
1.1640589395419
1.12628022121507
1.16606714210252
1.13987013805192
1.2307126479919
1.16952684449292
1.20256555291108
1.18862622081581
1.3410762182637
1.19438063471299
1.28301868613057
1.26213632026604
1.21562895326325
1.177005443882
1.29707803774427
1.18822777134476
1.30219780792382
1.25096305747893
1.26519146930517
1.17001155484378
1.21068650533059
1.15793705828889
1.17962911688437
1.27623623173376
1.2986291253908
1.21644349306074
1.30191128910707
1.22825134792857
1.25748025692502
1.18966115712419
1.26160121831231
1.2378116284964
1.28413741987629
1.2222984603214
1.32433452430479
1.24131821899976
1.23705453130827
1.22911199289237
1.33268854783125
1.35092412312019
1.33486358168432
1.28673004078264
1.28417037370622
1.23864125685565
1.27447648527815
1.22676422036985
1.22202195674334
1.21556194984697
1.29159782633928
1.20237220440305
1.24686530589019
1.21109009136142
1.24584586550033
1.29417536891468
1.32587711650066
1.28267513084495
1.29744135727824
1.22291771145517
1.25361549091927
1.24299849227916
1.24180975746201
1.24033498124742
1.31158230577051
1.19827664300362
1.29957624307351
1.22716591346664
1.2734641705094
1.24241230335876
1.29772084044434
1.20492769615757
1.26994723386018
1.2969581870962
1.31987272409087
1.24506652756801
1.34823387199283
1.24538551933758
1.27069076148534
1.24606396474858
1.27907444497536
1.27971398077496
1.23572115406324
1.23409623418263
1.31304722482339
1.2728287561441
1.23766916873297
1.26423992782142
1.26774237701746
1.23726873762032
1.27655395371183
1.24357437755144
1.28332474981948
1.27067427669366
1.32707723383976
1.25422817431964
1.30516504011238
1.26948188182576
1.27745557724677
1.23288537952018
1.22574080487258
1.21028865005112
1.31754920148885
1.25382104110535
1.2890153292637
1.29510311579672
1.2619448437458
1.26511690178286
1.30404536782137
1.18677680753124
1.24863056754845
1.30432811897053
1.31021053154197
1.21278641973148
1.20958041743233
1.22448318020276
1.31113970257243
1.31580130315233
1.27931930198649
1.18817965388405
1.18983319382896
1.26176894508725
1.28809449064244
1.24075047237452
1.26833011671075
1.20505245189744
1.21384139209943
1.19375567165292
1.23605909439293
1.2478035137946
1.26923639812293
1.1957015146982
1.18666848225172
1.26213329234146
1.19401408400106
1.21196217695478
1.25406887204463
1.21855551242408
1.25556240116682
1.18903019146557
1.25421338710174
1.22033280888982
1.21384234520361
1.17284541810845
1.21620566176031
1.21007180738653
1.18580739399947
1.17767864822588
1.18429316580825
1.17565787290578
1.15871769037339
1.16697272095555
1.18786882415099
1.21979161473594
1.19621005238872
1.21443411995125
1.29307558946668
1.18941344234452
1.17497894900751
1.19807058730533
1.17836041942481
1.14338277177363
1.14171922480536
1.13579726866622
1.17472241134469
1.1302331781725
1.1776265048057
1.14310411552181
1.18404999417769
1.14036659070389
1.11979263983025
1.14786992575357
1.17316981156939
1.11714064542143
1.16594111466267
1.08230593900942
1.08112982738908
1.12929251414168
1.10042658380601
1.08590263528129
1.11865183560191
1.11479031647181
1.13445851425576
1.10899792245832
1.14421278393381
1.12789459923117
1.10367737872662
1.09738978388194
1.08585142677931
1.08267725678156
1.13316052337327
1.11031830110598
1.0315582924327
1.0483973543931
1.07379358353624
1.05876286692664
1.05662220230856
1.05032086847876
1.02894018329394
1.03510456351103
1.048809858601
1.0245814041263
1.03870160489669
1.01563795750156
1.04921626533968
1.05195923462033
1.04171136282424
1.02863977409557
1.00572432403319
1.02325426585985
1.02899043163159
0.998435595435866
0.97466709886178
0.996381189304744
0.999520447019694
0.979477640212395
0.979219767769122
0.959651375766276
0.996837021932777
0.981144255667395
0.951640792494175
0.963921778704492
0.962542104136231
0.936788839185766
0.950968591055398
0.946607657889973
0.953006058111848
0.942739039404978
0.934464336416387
0.942231197986824
0.924143066120655
0.928222007651436
0.924942375150487
0.917114340805242
0.903276446978054
0.887018910211618
0.890108809916233
0.894461086944507
0.901777566104103
0.896371688221531
0.878827999552789
0.8899552550401
0.886851406709723
0.887080362113725
0.85707411929293
0.845987525270489
0.876789865302541
0.865617649675414
0.856063707492455
0.862761647461921
0.849707694279387
0.829856936066859
0.823393739988851
0.824159993133728
0.826221650463057
0.821475728143493
0.833492346634256
0.810935049530346
0.798547954510179
0.817702633513193
0.815933834158467
0.794013847288836
0.784033979964591
0.78396041382588
0.797277681996234
0.789584354944777
0.772867539878076
0.762557074345574
0.753140910798549
0.746205815546441
0.747133211606969
0.754411175716943
0.744111812000148
0.74096016534787
0.751558438902397
0.73503070020496
0.735593719337648
0.739188382562817
0.734681285922203
0.734343832108274
0.714640910791538
0.716762835019493
0.718879732124551
0.711839318889355
0.710346725722131
0.70249865071224
0.699720841135599
0.703134030299563
0.690964570159386
0.704320062109402
0.69511342565042
0.682128108038146
0.687601695627759
0.674038215645302
0.667728209821609
0.672659659029313
0.65875837910181
0.663642612217809
0.659950244567752
0.658230620088737
0.648172615271994
0.640735588845252
0.644607404041647
0.63667338634569
0.639864402851926
0.636878497764269
0.631065523295519
0.6295835813518
0.620021477728477
0.623206611118814
0.606238555098319
0.605370582730835
0.62156072070352
0.615565098823
0.604707096463735
0.609662087207234
0.603648205314298
0.591150382906839
0.595938602451574
0.601646813182171
0.588996083016186
0.580163376193299
0.585207539613414
0.586195524754474
0.569115997588217
0.565891593036298
0.576331728953971
0.566400108590739
0.556711925192577
0.562379317850183
0.561008094982031
0.574196514129299
0.561644685258028
0.550823534764234
0.558043502980486
0.554959700028387
0.541693192623712
0.530723031575463
0.526251756829768
0.542387301734773
0.531929812971896
0.53261090616103
0.537000176135779
0.530304877660494
0.524190264657601
0.525492507668638
0.511992489776564
0.514892199684661
0.510135591698366
0.50993553644579
0.501680774337906
0.496225097280925
0.503113996022099
0.502677421690156
0.492747973287511
0.496901228899015
0.498606436301183
0.487463974717378
0.486309444034143
0.499427468499761
0.482150623268188
0.477636872591037
0.488072183346907
0.484086710380578
0.472425321632985
0.472126464397806
0.475517864265006
0.473676908629901
0.465378863127847
0.472786658318303
0.464915532246406
0.460728838378038
0.459981758161279
0.462904350665496
0.456402734945088
0.453926843790283
0.454025826819927
0.454084842240021
0.453370196390863
0.44682375334767
0.443802271941556
0.447098960001406
0.443298554049244
0.439909856148758
0.439522491738652
0.43572327650031
0.436197502820013
0.445709410906683
0.436755213624565
0.432015789663953
0.434486489675734
0.442915248965225
0.432096689884128
0.437784593856346
0.435427655260692
0.424286178702126
0.427638405521878
0.427714201122878
0.420693542359954
0.421398064660856
0.423149740455188
0.429357419610992
0.424102846145665
0.425037703553278
0.422408380221645
0.432464928221659
0.427683833807614
0.422489008892843
0.420181337354642
0.422632871898187
0.424137805478798
0.426244498497224
0.42228263819884
0.422807159283298
0.425208230538074
0.433983779197122
0.430231518934914
0.426514375543024
0.422844596722805
0.431690912159433
0.434653675096356
0.43576798587177
0.431492165547611
0.434786140295733
0.431969408172331
0.437938300508738
0.437104566921326
0.441740183678376
0.434705904262076
0.44830968190317
0.448771924065488
0.442045581486596
0.439801830419933
0.450052429746384
0.453774054558488
0.448592500037478
0.440985505688828
0.453855240276137
0.450570361043435
0.44898801544388
0.449122162983424
0.45975535422498
0.45926365227521
0.456386996658794
0.46362239004097
0.471475234129344
0.465164239143926
0.472059497128524
0.473036202497452
0.490920054987551
0.484828611725335
0.489910455485378
0.488292015298433
0.49960789738927
0.494796198530929
0.508172519665741
0.506717189373649
0.5088946682256
0.508965736951243
0.517765719123715
0.525283349157192
0.534175142698082
0.534150138398919
0.537134409810687
0.536059708816878
0.544047792442979
0.545439118528668
0.548834304882683
0.549067579036104
0.551961969037915
0.557925194845591
0.563304552746725
0.546261900452166
0.569333168059828
0.561169686740411
0.569178175894205
0.573464495976616
0.576919180266338
0.56242181005093
0.578661803855939
0.573965853140065
0.57017003103518
0.575764175958889
0.577039137066347
0.57279767017409
0.587658231481746
0.569562137115203
0.559467625572315
0.564860218385264
0.572308567214506
0.564222691430409
0.561836952733453
0.561007325542874
0.564554917858951
0.552353805946341
0.565650684128562
0.554604993794395
0.547059964280397
0.556213915487577
0.553066692968489
0.551457524259889
0.55396784403519
0.542599736695227
0.554661749739817
0.551202114939229
0.555847557630668
0.546764741104541
0.554094294502871
0.55156803761679
0.543314439999515
0.549031799607067
0.550565159136049
0.533265862432607
0.545684316141398
0.537996351338116
0.537115721129904
0.540818010214698
0.555021809627465
0.550037063254077
0.540535026154434
0.536338430720812
0.550419422303871
0.544091630361506
0.541758227481811
0.534177457293823
0.536574783278403
0.530943089266538
0.538196257664193
0.528558545255292
0.536079888890105
0.526786348907624
0.525762941668063
0.511101892227769
0.526131197057758
0.520994253952322
0.515751418288227
0.515980560852174
0.52775048795949
0.514470219455693
0.51288728396619
0.496153362782134
0.498712794324012
0.494812171425016
0.492593797521821
0.482959995817076
0.485246708776714
0.486329505796577
0.48554856047613
0.470859519022843
0.475017530498755
0.473663458296403
0.476655048554311
0.46229617636101
0.468279347198666
0.463452113094143
0.467076164116263
0.453750091466458
0.459005217178676
0.453211505217848
0.445493036481026
0.440727857204352
0.439002070319745
0.432004735683844
0.434634453028551
0.435233148321079
0.432068660657776
0.434049373594648
0.431764308645281
0.424062676615209
0.428474011008343
0.415581941839661
0.421933194449139
0.419065953969765
0.418794656569433
0.410424877569051
0.408283031192337
0.400760533524216
0.407344104138641
0.395603483663593
0.397223624032618
0.400863709599824
0.397286103163846
0.391177721806122
0.401640389836609
0.394556517655226
0.390240757754915
0.392407593145439
0.395109842482344
0.384769044678511
0.387068128250931
0.381557408669767
0.394508347955969
0.377639000076017
0.381746833952163
0.381297099146619
0.381410856707162
0.380838667970839
0.377324004056926
0.369807050547465
0.372733656701146
0.372712384469613
0.373833505982664
0.364932741074101
0.367822939019462
0.363129494990631
0.364305816039403
0.362853351043603
0.365230273496122
0.36014572500147
0.357353052040183
0.353036905094687
0.353949884066256
0.352525521776439
0.358286370635027
0.347307751792894
0.350282404871255
0.348546256298272
0.348700613903549
0.346622741051021
0.349469706949676
0.342168243880831
0.348721776865045
0.337705855285132
0.344629846042189
0.339341066705217
0.334463585444026
0.341264801450772
0.342906118609533
0.33749100319162
0.343971166091382
0.335824463535772
0.33635255178351
0.331016240608702
0.330633362049997
0.334759712501885
0.333869807804327
0.32842421459673
0.330797534499489
0.329729743267097
0.335983865680743
0.329302237951589
0.33292423651722
0.331234618915955
0.330616065822531
0.319089067529873
0.327064945071249
0.320314998963938
0.325528001758755
0.32070527533677
0.324472265436214
0.317454492016911
0.325723209877996
0.326393670763243
0.325195509258315
0.319405549130296
0.324029773950059
0.318870141369933
0.318264208293387
0.316697414712962
0.318877570389808
0.316760770995985
0.318727085279431
0.3122179713231
0.318500973404336
0.315188634684765
0.312642070051571
0.3097543970761
0.3169172224613
0.305850769814164
0.313337450527763
0.306508075142572
0.311625573311104
0.30927500522368
0.309942016420867
0.302917405999528
0.309491868872066
0.304294777215882
0.307170081412881
0.304336794690035
0.303593629988997
0.305469165628255
0.305893072753922
0.304980339233651
0.31070759808137
0.300883996441937
0.305842983802347
0.304384219017784
0.305116899731661
0.298284839418694
0.30719764138476
0.300054016193596
0.303547458499867
0.301971117979478
0.301804255707401
0.299639490673206
0.300571755872792
0.298362525085007
0.301764441908779
0.295508586868565
0.305429607475444
0.294264074331246
0.296989981083763
0.297359833629162
0.300150263642976
0.298839203623445
0.300372399779785
0.290079666912623
0.302278022833777
0.295311547236657
0.295425696235646
0.296617037210545
0.300113216070542
0.289572403631878
0.290304436465349
0.292151212224032
0.298862122088916
0.294154369043929
0.289206934641802
0.286182925107112
0.290129862993683
0.284964081083914
0.287368561791918
0.287683760894464
0.29023127100514
0.289754298520368
0.288381078842012
0.287165474031218
0.286833042908594
0.282386930951613
0.286821201465301
0.283758924172682
0.28311552231238
0.282525249137124
0.284283967201245
0.283808216780829
0.283489119103492
0.277754516153295
0.27763152273375
0.275099819999524
0.279212217517025
0.281832049480838
0.28275170940456
0.277003079610281
0.278076643459816
0.273237153863428
0.278326936525024
0.274204064853376
0.281188294627617
0.276224266642347
0.27764503268276
0.271431124631241
0.27781927390261
0.272449337667872
0.272402209384758
0.26759527839367
0.27033472824706
0.271938932075182
0.271464916706302
0.270834621472381
0.271899147376378
0.268523515611879
0.268624049355056
0.270511088645928
0.272170707559281
0.268557664173783
0.272403954065058
0.264015388736794
0.265741547717668
0.262651711897872
0.266559190492847
0.26416612202296
0.261251911604694
0.258680984963167
0.265416628514292
0.260153358866026
0.264650350537871
0.256450763789993
0.260525457911503
0.25934313142015
0.260957696927455
0.254141670029158
0.260127659618498
0.255889022836723
0.259350873019328
0.252266335097695
0.253126176858536
0.249999683920825
0.251519791505406
0.252794535028743
0.247863273372669
0.248952736549298
0.252285253414507
0.249105983660373
0.249301151838251
0.242086398804443
0.250765425794032
0.246222598742487
0.247522982067027
0.242749964274117
0.244294331472029
0.241789431925209
0.244201409888593
0.237418893153446
0.240231844158877
0.242666045708394
0.243348937125899
0.240892911738736
0.239560258837014
0.236139940919901
0.245258898758524
0.238562735810068
0.239197496086904
0.234579114469122
0.239854535174349
0.237797219998091
0.240350229321752
0.235085591169967
0.235811538765671
0.239647891917413
0.233365104281598
0.23071016845624
0.234144723968516
0.230467283004767
0.227625100853339
0.229889820592109
0.23864102361095
0.232197363664753
0.231989323860248
0.232859724460814
0.230801840368624
0.231235977407031
0.229889415100532
0.227041763495531
0.232024777114438
0.229484836492625
0.230312624879787
0.226271114563541
0.224642283161285
0.223198150756145
0.227909404848325
0.22401062482248
0.223572710050731
0.223207384742541
0.222976760091651
0.222781053114047
0.226343987191339
0.223670025729611
0.225873481935206
0.219885295253867
0.22213145989554
0.21999882693238
0.22240713812638
0.217796743904793
0.219668156295339
0.213674761486161
0.218886809275042
0.215528384554057
0.221006000864197
0.217610986093397
0.220974525890927
0.21828277982296
0.214679214393364
0.217267417524722
0.215462770767945
0.213710986757706
0.21538770406049
0.213888551698429
0.218691704907274
0.217317097174621
0.215411104421697
0.214522854426032
0.215250170468411
0.211744917587058
0.216249810307472
0.214021761999896
0.217476291572971
0.210368776540195
0.210080246280239
0.212242102119891
0.212029562367204
0.208443522352428
0.212184462905384
0.206999311714237
0.213528595049979
0.212261252457303
0.213595812889911
0.212778861504835
0.215342907305314
0.210334796499037
0.211070836979821
0.206435590010876
0.212424250011564
0.208793840504504
0.211200102120807
0.206401789514143
0.207693171048475
0.207957860479049
0.212379472289683
0.209585795615959
0.205572555482861
0.211593300336565
0.208512138473655
0.208029578815052
0.207987619285008
0.20318717686337
0.206975985762084
0.205931871732682
0.204899170334955
0.202097694426851
0.203972523288067
0.20184321445334
0.200668883014062
0.197832173662925
0.200092323288955
0.200795016960766
0.203779467722031
0.197861492086389
0.201262976797865
0.20300971350831
0.199286426555266
0.201026649804603
0.199491219432279
0.196548852143307
0.198510834683892
0.19951444644645
0.198583026225288
0.197023729033963
0.199402205368877
0.198784366384092
0.199150926946888
0.198782189915203
0.199958646190418
0.196718108360714
0.199373189016804
0.196624029557481
0.199726407044426
0.197177443172926
0.197071987874777
0.19413154819998
0.197092881462622
0.197564981277492
0.196768070723169
0.196287622342692
0.198724534449695
0.194328864393418
0.198451852286202
0.195235238579405
0.191816867783885
0.192612657371496
0.195093492214116
0.191490763487788
0.193192571818693
0.191972652220788
0.194308635413753
0.188958685298768
0.193441913241373
0.194086490792016
0.189636904173003
0.191372113662063
0.193271542136831
0.190550032968116
0.192477952546317
0.191036241907466
0.186987752727932
0.187355197278524
0.185339663892328
0.185156007543722
0.187718565130946
0.186988789388076
0.18584921885525
0.188889664500904
0.185894696010184
0.184622447898544
0.186552266952025
0.182282870118986
0.183889311551685
0.182287633775982
0.183736256455534
0.181260710610214
0.178595679768675
0.183096859997637
0.182067711738941
0.177632195549234
0.1794088478297
0.179901174192092
0.179310253814763
0.17861616790784
0.175980711068628
0.182602108789974
0.177782084533878
0.181056827081007
0.179071921872802
0.177602390075537
0.177623906299187
0.177390916367634
0.178143799705745
0.173353731612674
0.17480428350502
0.175262042528695
0.174379055655965
0.173554912230938
0.173595219301314
0.171995751690646
0.173475141420836
0.171238567073068
0.173132666544703
0.17297479366236
0.170391222167048
0.171960650301483
0.173433056989103
0.169358055809206
0.17015619681737
0.168803334630051
0.16992934914902
0.168916346086823
0.171548616247491
0.169006386065053
0.167441058206922
0.166794331465842
0.165814637338476
0.167974670603372
0.165962026845165
0.167221424468434
0.169319849717595
0.162501153220563
0.165815009803735
0.164198584722104
0.161163288424592
0.159430526970891
0.163170443961742
0.162605578860229
0.160880875242061
0.159331068150032
0.161157734415177
0.156111176143924
0.160148809366663
0.15788051563828
0.158911627209724
0.159944539617406
0.158754922901787
0.158928055594388
0.156958524277614
0.154144866845813
0.157643626200959
0.157643433794789
0.15420875958295
0.155843922250416
0.155105786439761
0.155315131711672
0.156095502320352
0.153981585347684
0.152342432467476
0.154837442503918
0.154321491723528
0.154133610016749
0.155245747936489
0.155072227982657
0.152276147493296
0.151778668343227
0.153494549735065
0.15659241374642
0.154553103517684
0.153660348998887
0.153548389411061
0.15459664362266
0.153395730413224
0.159396685598307
0.155765377343383
0.155126640792176
0.153211415407278
0.156044960988217
0.155766081021821
0.150139717904213
0.152125491158603
0.156142299088597
0.15710237786303
0.149598178303048
0.144279620891785
0.144163883537963
0.139158976291056
0.148329511233853
0.149917320365401
0.145995652792054
0.135553695632632
0.132735678770372
0.139791498020908
0.139490452718781
0.134392890923424
0.143061308881831
0.132741040010623
0.133504900568829
0.136921507261759
0.132929082898907
0.132269258997996
0.13438843754979
0.136964900564001
0.142483557003234
0.131098945888329
0.143370894360461
0.141231794025712
0.143574511174247
0.139266446992927
0.14808632456634
0.134763398856589
0.147394607357582
0.130538362899107
0.143285903187319
0.129870014746758
0.142399184473986
0.12564551719509
0.144176316174777
0.126693012461383
0.147216255245119
0.123991191031015
0.143002647629648
0.115802180511794
0.140969681454156
0.117482461514785
0.149357118647654
0.119428861424335
0.160576107971612
0.117323004333918
0.152476895768862
0.114170274693842
0.161149865189793
0.123475245618605
0.159360249183505
0.113253116954581
0.157354338602241
0.127187562900829
0.159459589841865
0.123198638873014
0.148194298324679
0.142149589362106
0.140216114069021
0.139850146846545
0.13448577234488
0.151511943480105
0.124673776700571
0.158050352913614
0.126665503190888
0.153428875288517
0.12669443961731
0.152826950400432
0.13325516605991
0.146454856029862
0.135937347150935
0.137176297074105
0.139690432032819
0.137607440025392
0.137968531334323
0.13795374781916
0.136582721291041
0.139567012154813
0.133306437571411
0.14153353256164
0.129763179773877
0.138417439162468
0.132841055811616
0.138297073232955
0.132171392368618
0.137112642471273
0.134294459095472
0.136457921678637
0.133730393284742
0.137315450742454
0.131427574210081
0.135143053799706
0.13306238380127
0.137779279452913
0.131503481047277
0.133752067183483
0.132679379101845
0.135737668564229
0.133561737733283
0.136828055806554
0.131980808321073
0.138997879489066
0.135661983785317
0.135712053722303
0.134107069246672
0.137533747037548
0.133239118890277
0.135024442304587
0.134678068545439
0.13444631248736
0.132907048122381
0.137346257344528
0.13272456226781
0.13746060417241
0.135772013152672
0.137170689106812
0.133709461409827
0.13639103393605
0.134271459959741
0.135291359853394
0.134714774494913
0.136719020860283
0.134580249878676
0.138608563647446
0.134960437480628
0.136584486012734
0.133381718675867
0.13663467623326
0.131665176607969
0.138543158078497
0.133983881310778
0.135992267700351
0.134904334309625
0.135868773948201
0.132777753528053
0.135549865385208
0.133394484732104
0.136571631365758
0.132745986838334
0.136245908686042
0.136446550821087
0.136186068717351
0.134307008633879
0.138563228313015
0.135997264068384
0.13592708661812
0.132110851983616
0.133834448439488
0.132836864047663
0.135683795747974
0.135048334048748
0.133201230933093
0.133380341500438
0.137559964849766
0.13577604194434
0.136177776597369
0.135199066792977
0.137101208257921
0.135390745863478
0.137839864458363
0.133285680681161
0.136201660400689
0.136137382599316
0.136851129588201
0.136679626936848
0.138091511727585
0.137836982755264
0.138821501998964
0.136461267678936
0.137565233346012
0.135650696883809
0.137714881886024
0.136282198961415
0.136782231560099
0.139317685925429
0.141684009277317
0.138968568177991
0.139514834722806
0.137587699999465
0.138801786930844
0.140054706906178
0.142056772455939
0.138057815572739
0.138304385000947
0.140096375952415
0.13911199417337
0.138648852978152
0.137677116919789
0.136149066370517
0.137250149556371
0.139872713497536
0.142261121393409
0.140327833440057
0.139140664419639
0.13842630518822
0.141902862520286
0.136839818539283
0.139103645270708
0.138425475346479
0.138905502540127
0.139016660960753
0.141940456048938
0.142136662656504
0.140447133154474
0.138056943042128
0.14190406221111
0.13920675834124
0.139863252309056
0.140288340956145
0.13872721525123
0.139729806799171
0.143352929762394
0.143189287846138
0.144526152857956
0.142144285779357
0.14291551185295
0.141435633294132
0.14080740599534
0.142060446859661
0.142998796768499
0.141099230954863
0.145106105564313
0.142879673591404
0.144534656002567
0.142273101683059
0.145409576134665
0.145122107420633
0.145284526979257
0.143680365690772
0.144865254925455
0.143067715726633
0.142889054770612
0.144819881925837
0.146383465282472
0.145180977561744
0.144077524949259
0.143593341449424
0.145752255373122
0.143056564854231
0.143654584983052
0.145012713525382
0.145247354231198
0.145785476477085
0.142489258841835
0.144127175851649
0.143783104185721
0.142870162790132
0.147163855208318
0.141526670634518
0.143750482186145
0.144828570643785
0.144302263800267
0.142718044122537
0.140976941888411
0.142708783003716
0.14285315555294
0.140585907504511
0.144613880656076
0.142393323672576
0.14222598723623
0.140256495598016
0.141177922328098
0.139431794125316
0.141554753576961
0.141112966553466
0.144472351339851
0.138216086284839
0.139092043212365
0.139315633491042
0.141162733367754
0.138972324481778
0.138697473452828
0.139829512852036
0.139746179576127
0.138495393421715
0.141767319382933
0.140425414172559
0.139438891600106
0.141077141680393
0.139748509417818
0.140011531395585
0.140884816784955
0.140091573757464
0.13837905080986
0.136023558694716
0.139457991515003
0.137661794025633
0.139289595954086
0.138936357750808
0.13949170735734
0.137117024770834
0.138125129362459
0.138823758083558
0.138927035422609
0.139266008714946
0.137732152311334
0.137235529851513
0.139751698192115
0.138704457491799
0.138110025946979
0.136896150639139
0.138174318387008
0.139638037297187
0.136792994695546
0.134793713377616
0.137235438241412
0.134596685332057
0.136477840103275
0.137991364042214
0.136935785372513
0.136348430034081
0.1381081905753
0.134080460428331
0.135119215879451
0.136917299605971
0.138608055159902
0.135206287616197
0.13487168435593
0.135156748721507
0.133112418448582
0.134320593521041
0.135134952385686
0.134885407462442
0.134685382498785
0.133658707730939
0.133437058314191
0.133328933955431
0.134718387500503
0.135027363363213
0.136453535826531
0.135600331884229
0.133828371090538
0.134084974405154
0.133567895770437
0.132868924956484
0.133268956187164
0.131914972414511
0.131482512350153
0.130544733741678
0.132606397140774
0.132998118235387
0.132444078137883
0.132442397055463
0.133682723778254
0.132056819527427
0.132931182644922
0.131072360909057
0.132176276342533
0.129697133427748
0.129756661338327
0.130183300876237
0.131304316374973
0.130895799422381
0.129162050809311
0.131313904621957
0.133395140400865
0.127594711051771
0.129234029193796
0.127910343553787
0.127661332474236
0.127217434157675
0.127705628687805
0.126798746553762
0.128570179451796
0.124594699353753
0.123705337488856
0.125133049274936
0.126120718290287
0.124608518139268
0.12327306100714
0.123835232342138
0.124747613886211
0.123188116577927
0.121039958833025
0.121340545963401
0.121166136263697
0.121423696098255
0.121642267235617
0.118792058797894
0.122576324510528
0.124338698813904
0.128084121197508
0.124092043951308
0.11958669993477
0.116933151660182
0.116072873373055
0.116750914914526
0.115722489498687
0.117111878384496
0.116060789608768
0.115601513176485
0.116681154361549
0.114035166908745
0.112016743900841
0.112476255398202
0.114458889077726
0.11456862824476
0.111989269751784
0.110633128779084
0.111850636681708
0.11405201973977
0.112946646846247
0.111094293484172
0.111439694271305
0.110788582879537
0.109935553844922
0.109224704807509
0.122893866664009
0.126872339220399
0.111732311102711
0.109718439085329
0.114391095421152
0.112661313516247
0.110828310057754
0.10877578475705
0.107460179847521
0.10966047338354
0.108903357134878
0.107877086723765
0.108113856772647
0.108374398845429
0.106864392378726
0.108562918032914
0.110146968926115
0.107324034204679
0.109225763611
0.109840572069525
0.106975900753034
0.107353208809364
0.107376100556291
0.106590616126754
0.106217953628254
0.105557578119746
0.109568865094454
0.118340616753576
0.112944706756524
0.109715738156114
0.107789397103177
0.106397469869329
0.106297821073287
0.106122967191873
0.104708213846872
0.101744710558434
0.103529104429016
0.103337308108895
0.103505987241593
0.103501851087842
0.102457085723264
0.104128459330457
0.102961139343438
0.103537534601764
0.102323001051741
0.102599711469331
0.103064391738491
0.102047863220849
0.102252067191516
0.103027051207716
0.104080686229778
0.104821488818608
0.101490651227477
0.11449944109934
0.123360253705211
0.107745089713271
0.10154774908773
0.104351778762673
0.100350615124033
0.100924451947022
0.10066250591404
0.0984068763359795
0.0981241310507662
0.0986067743187753
0.0990020793235794
0.101404693926097
0.0997471760615434
0.102274879233541
0.0990266046064514
0.102265167009896
0.101064737252056
0.0989849808899885
0.100226652103867
0.0983515950166452
0.105104100094153
0.119002374744799
0.103439556549884
0.0997305217711335
0.0983260972924954
0.104982552724422
0.123735866477946
0.111096106184781
0.0978638442169322
0.10059900812002
0.0956632138205791
0.0982210595912769
0.0994795239252242
0.0938368212611807
0.100065799222597
0.105677683888187
0.100128099921697
0.102848548002873
0.0981725934994719
0.0954602782524399
0.0973160787969614
0.095360413143139
0.0968449769644036
0.0953480040852025
0.0952753004310324
0.095767928968763
0.0920366716999827
0.0928096007914119
0.094310455556372
0.0934611172589726
0.101798400643887
0.103645443265485
0.096004040228164
0.0959018129023443
0.0935369601961057
0.0904010581547759
0.108348885639939
0.111178122317346
0.0976556728566446
0.0928712269309308
0.0949371171747131
0.0943852873624569
0.0957581172189486
0.0921429377180504
0.0929451046817649
0.0920679547738472
0.0923613129012858
0.0940701081966778
0.0941673814702377
0.0932458185943797
0.0919680375791442
0.0922271570566332
0.0927170543866911
0.0938560904277712
0.0911295798608033
0.0928968682669571
0.0929316844318948
0.101076505618339
0.118797682155933
0.12142687129162
0.111587935497713
0.10666710071643
0.101090110671684
0.0929079702112797
0.0948362196587865
0.0928406119682252
0.0944177371715119
0.0937942330504111
0.0936238539336462
0.0913496783314223
0.0934258601226432
0.09109394002392
0.0914712653601015
0.0881681716584645
0.0895742270919238
0.0870665422909815
0.091703081555116
0.0887135568561287
0.0924890629303804
0.0872296679275914
0.0950064757728864
0.0992902912117369
0.103345824772503
0.0912018228689674
0.102182588134931
0.130854397178473
0.117809567394107
0.101678114870847
0.0914497927062267
0.0921902798248681
0.0886884882904915
0.0907260071942069
0.0929488192483177
0.0978873634035164
0.0914403443460221
0.0912331859088933
0.0912932730813012
0.0961964840662077
0.0873327153203292
0.0915115711443683
0.118818986027917
0.130012934975442
0.105801273092954
0.0942531853865244
0.0895892104710534
0.116086738509688
0.118608881418444
0.10073461994429
0.0931952431776355
0.0945363163569421
0.0913588951648849
0.0920091286657199
0.0887736058266702
0.0951522512064996
0.101219920458063
0.0941745196034
0.0932306499302627
0.0919832164507154
0.0947911637579548
0.0964835111222517
0.0985487089261351
0.10880447000533
0.103009093607197
0.0973762136401454
0.0984901438798299
0.097927060512984
0.0939046097641682
0.0938685436449999
0.0925249674739441
0.0971154013311295
0.1111152416295
0.109163519825587
0.108261320667602
0.11541001739198
0.104453601499683
0.0977128094534499
0.10065036166657
0.111071814260855
0.105715961712923
0.0953723631951138
0.125994466920281
0.122247231985006
0.137395542926027
0.110728820199535
0.105593201025873
0.0937168091069423
0.102297168353493
0.0865772215251007
0.106620175683901
0.114554184764094
0.106077248097784
0.0944618656954788
0.0990056592207115
0.111460161125157
0.112854866962992
0.106248558891623
0.102646484537495
0.0980669413419159
0.103808063641035
0.123210737304995
0.0995375979496213
0.116328930492035
0.137960627426283
0.143500569744136
0.134428625688627
0.103795591661943
0.119321784620488
0.132450787859082
0.11773491009527
0.10562446674609
0.106042125261937
0.10583569109412
0.0974623415170751
0.129767539113116
0.143939633991827
0.115218053192407
0.11197218940128
0.106508851697039
0.120652676650834
0.139453679916951
0.121817745644073
0.108322611518524
0.115465095636651
0.109432910980663
0.128398495574343
0.165305239429065
0.135237290404619
0.148896962520452
0.141418780929794
0.147616860171292
0.130244739463744
0.135395237396911
0.121836269995698
0.151332486609456
0.147041108479345
0.129257010882463
0.118015114960028
0.166102681893684
0.14152624139316
0.139887876412375
0.125680373987668
0.129961263632651
0.136527980146154
0.195914279366118
0.201850559513441
0.173644565615005
0.132624921887469
0.154712608855411
0.166951734237466
0.149425145072043
0.135193669613575
0.138865039942496
0.136283646210549
0.137341602711866
0.146805818903311
0.154714670942641
0.143610310445328
0.153506331272267
0.140903834321616
0.163025445477414
0.187981330085264
0.248877810881255
0.184753645972684
0.188604622687626
0.184901780681775
0.188978741889827
0.16989709002656
0.162362691423333
0.164195814335613
0.170989303711069
0.169118413603221
0.164102133944214
0.171071362109785
0.200123337420215
0.181689257310221
0.21685029300444
0.183872761909579
0.191173356384529
0.16699337590551
0.25844959779546
0.299760464963368
0.236089912541222
0.200369774959619
0.201834574677738
0.259228775088334
0.254285473327672
0.214412361677282
0.197141554862238
0.200501308440989
0.196287019906226
0.212281119790896
0.218509284055198
0.225101321437526
0.237040467394016
0.213516351363843
0.225452055649873
0.267610245226044
0.331512163308166
0.323262786328425
0.248171920829524
0.247214354885837
0.272070867762149
0.263981662628945
0.24868668094703
0.257144650553811
0.246970240952961
0.31454241608759
0.298508304823561
0.295994411234495
0.262651929888807
0.308341642479718
0.293808521986171
0.307635365637121
0.343177087697362
0.331610812300986
0.312723035301862
0.292532451428054
0.316108113641035
0.298286940049705
0.328201862834305
0.352599150057588
0.348814484725943
0.334820749587139
0.333168702914483
0.330351277692033
0.332717763205327
0.349031863840651
0.344041264452134
0.362992172212967
0.393350616552881
0.470840167302894
0.537824206594593
0.3977335150516
0.375090865979403
0.347495933379438
0.394992795313055
0.400606330457595
0.416743066467772
0.434409273278403
0.401186639521155
0.37513493862777
0.367681040172944
0.379470843059059
0.365040355014806
0.379284838018581
0.367375725821976
0.381107822046613
0.400229050790288
0.379612168334858
0.48605436887618
0.428794452985529
0.400961989448011
0.356421347006465
0.379221637967577
0.354972213017103
0.369869284760921
0.346484409327991
0.393668137866467
0.365456003084737
0.37461369130963
0.33845567259752
0.353336950275984
0.381553355844617
0.373734298311925
0.344229029198492
0.337028377475189
0.332655353903004
0.33733669530479
0.324942991175888
0.392084595446452
0.351378908292199
0.342344768091503
0.307744751732084
0.311689592986451
0.305394502838902
0.310340951818814
0.29721827019421
0.311271667393455
0.294821749761569
0.306504845849483
0.292335687984814
0.294756802948237
0.278190775189659
0.287837973261839
0.282901938446623
0.283123563561388
0.280975345231503
0.278397952349368
0.270665808237482
0.27302316218987
0.267331821603756
0.272854192217262
0.261962153611459
0.270965335886944
0.266891460675511
0.269193652546176
0.260650221467885
0.26356869986263
0.260206938476131
0.254907380208157
0.250453413523176
0.254573342746963
0.245929084297132
0.248139356776198
0.24212111859705
0.243019052731376
0.244449586691282
0.244037723146059
0.247713780762688
0.238024708410568
0.245148569394604
0.234002410478482
0.255747540120195
0.323010145337734
0.255606588745205
0.250707239979132
0.220124495244581
0.24335179504715
0.211616932696464
0.250919474448381
0.281300893040508
0.254092045377223
0.230346448213271
0.222193769940343
0.220701985838075
0.25517963400805
0.220311527427104
0.232027898185587
0.207128626901881
0.235167818458811
0.285730952321989
0.29585873437595
0.390817282735765
0.29722223420516
0.248839417069981
0.196350087847616
0.268153519201529
0.229527746638099
0.223758818925837
0.200180122141585
0.212293257168138
0.257059729447049
0.216499706423073
0.213657467240342
0.191006828963748
0.204730063958878
0.248495379805762
0.246050710727346
0.226582266116379
0.262342412044816
0.239621453013106
0.246506657878774
0.273242995499782
0.304104497977804
0.227619012444127
0.203644367812335
0.20331257463436
0.193151430611857
0.239245317867288
0.251523926356935
0.214804387327746
0.220601508353815
0.184385255998198
0.201718495796824
0.197344860160946
0.243245479010163
0.192299485531861
0.252105175820189
0.215470028854992
0.205364828107081
0.212575734801243
0.243004999081395
0.27871845212195
0.267013707050386
0.212230884796066
0.194277202660939
0.270856515847713
0.237773961738814
0.23266177939126
0.21556427610061
0.183867882922199
0.224111954259935
0.215540802488057
0.200946448795826
0.238624327310403
0.230083450872707
0.266746403180921
0.29314294183323
0.324780850220399
0.273038039450457
0.209137090271954
0.203237204442447
0.19631256834966
0.216483547155544
0.197768061654432
0.202197238533133
0.257389661306202
0.201940498947732
0.246531609548373
0.251481194873824
0.231910393431167
0.215171312053729
0.213270417818035
0.21427504825191
0.23611105523252
0.276988604905233
0.293916062442289
0.244051269179179
0.27477294943561
0.254559159797492
0.258186103292189
0.239704597148286
0.250752614466284
0.243047802932845
0.265200185851304
0.276130028313352
0.268799093058762
0.271211418358952
0.282040495056659
0.275959456944661
0.356998402484758
0.304454227811821
0.319213976931556
0.336732225270124
0.362588827915027
0.401691139499529
0.337853663722014
0.344660216932516
0.332838609549636
0.351200384245292
0.351436078048249
0.350171349817438
0.401073934218686
0.396757840675028
0.38617171931206
0.376669492799324
0.388568126911283
0.385002328414059
0.407941711749226
0.447501012144901
0.445692389819883
0.531241020287203
0.454852862592034
0.469324421952524
0.418466608264572
0.424799287894744
0.427073058037893
0.425386373958709
0.423100514917325
0.41361390483005
0.448257690442567
0.457816323272882
0.424742554407466
0.439011759096243
0.424183624953399
0.433186360170385
0.426093592239277
0.441508002380726
0.434175948894341
0.439794857364342
0.451080963221156
0.437938450642353
0.481892001212091
0.540763843161903
0.477302562711691
0.473043258640119
0.454840612652099
0.481074933818966
0.45538646557837
0.477475752439061
0.503701022813492
0.485015094548271
0.480808061272627
0.479575681902697
0.485720642830598
0.480757009904711
0.519019914231612
0.525901690713794
0.492339137183222
0.505885213580407
0.47702151778421
0.59720285087623
0.530205678069082
0.551525977162551
0.516584447460112
0.527116196807819
0.502689043636663
0.50988829411219
0.500889627252216
0.516198073336371
0.514694801444111
0.512819976536604
0.502113683440387
0.501988273797279
0.510509353467197
0.496729109929186
0.508438697388983
0.538685312790555
0.499470866374873
0.496109468597307
0.499675872039946
0.499832913952099
0.487055848083929
0.534008187575669
0.503456330714358
0.508224247815829
0.482733723068497
0.517376755017474
0.515208615221264
0.503039215433709
0.478129407887232
0.484830641925835
0.475839170152881
0.496725898985017
0.470522516707003
0.518339727014374
0.516932046266972
0.515112208758221
0.490528474987337
0.504807817312288
0.494084344673616
0.508900180127831
0.503022787421221
0.511568305925235
0.510474875148754
0.526857162234398
0.526002668290143
0.529192932298985
0.532034403490796
0.552879867822928
0.570305776941516
0.562868515924642
0.544066249310267
0.559822457346431
0.537932617865331
0.556321770985484
0.558280566762591
0.565732566615018
0.546846484425814
0.55558347073203
0.53368562932705
0.578493234294799
0.580026227836937
0.560853564340328
0.564933843470417
0.544894654669663
0.544042963120044
0.543049721889333
0.541471291549359
0.536306000591473
0.537870893337311
0.545009987568613
0.532491708554633
0.531289286369133
0.523417365821676
0.53352127283533
0.525173523288601
0.535909159479456
0.524265523694567
0.521320481901685
0.516148622283357
0.522468712527086
0.513526032437985
0.520260573629731
0.515762994231223
0.52398364933586
0.539068148300918
0.545298669725715
0.545957482423653
0.524930700603972
0.535491924073266
0.524610407761564
0.521964496858321
0.519596765150684
0.516441447119663
0.514979879709087
0.508891810112219
0.512631681717772
0.507389629098227
0.510705615095851
0.504748806449759
0.512365641275317
0.501753580647211
0.502202430084323
0.495175922000452
0.504603453286177
0.493267110923297
0.496450921214358
0.485390638178134
0.503986006385447
0.487558846226662
0.498055049998045
0.484071110528168
0.489224000092442
0.486357977682156
0.486362086104482
0.484550947735878
0.480630156569097
0.47352056776845
0.475150463052981
0.475744356102407
0.481301078260379
0.470726054583009
0.471882763198232
0.463281666636005
0.471611653304866
0.463822117613259
0.470543000742756
0.467305351375242
0.465021025684036
0.457487968717752
0.458848513707062
0.452993849178143
0.453185231910326
0.445982065993398
0.440713548887037
0.435914282051389
0.437122452684526
0.429568663889693
0.430855429685041
0.428660780477592
0.425965581767732
0.42346256181142
0.424766202158351
0.418151444789666
0.415048887062283
0.414773544517927
0.416868343137904
0.413131445095799
0.413122498435826
0.409917079667429
0.411846351781198
0.408528038300214
0.416917291776438
0.410487433025897
0.40959867296943
0.408656294748728
0.413552793180091
0.405633351300969
0.416521134233944
0.415540257586904
0.417973914455073
0.42050526203583
0.419201033682214
0.416873098113684
0.420323416740655
0.421971202423648
0.426170019627478
0.423306566138976
0.425157778506572
0.428029088698896
0.430155177908634
0.429343605737639
0.429959323194173
0.425629502854807
0.427625559916864
0.429430050725555
0.431277363607971
0.428276525251039
0.433692258702206
0.428173121594092
0.430267557055169
0.428700053807035
0.434870394493726
0.430380013745313
0.431277107100991
0.426423544804331
0.429633740941666
0.42319541252227
0.431008788342547
0.425019612605332
0.427490601222604
0.426617674246563
0.42315026436375
0.418501940860541
0.421407191576775
0.418172088004462
0.418899513328511
0.416931902604436
0.417939349155006
0.417378820016781
0.416042129464393
0.409683929201133
0.414882280110827
0.407304217652268
0.4066238684257
0.40492365028979
0.407070244395968
0.402229848376529
0.402237352875812
0.399380904381161
0.398267157779935
0.390198269930145
0.389452976487395
0.386538074794745
0.380939931270197
0.379939356764866
0.377371479899975
0.376177667706288
0.377778126555428
0.369071741128401
0.372242183659257
0.367547514573508
0.371931888054212
0.367054405881186
0.365986390828538
0.36375957986848
0.363547212798089
0.367762301504347
0.368686373068548
0.368560239957796
0.366566502975969
0.366124233792931
0.36797650246135
0.366868601820065
0.368055575026918
0.364916386617917
0.363680223164061
0.361709536592688
0.358293356767876
0.354255968116424
0.351155372284021
0.345508836684617
0.342726946175718
0.336926420245848
0.336120217621325
0.327897940856512
0.322544343747617
0.315947936862311
0.313815920981991
0.307229401354164
0.308654336051506
0.303894301893999
0.304703300815361
0.301676272275567
0.304002143088377
0.304939136850598
0.308668902990299
0.312024584173034
0.315603006860135
0.319268723886618
0.327541135313246
0.337183688005411
0.347190382135705
0.357235658804837
0.367848178290893
0.378428883898823
0.391826461490998
0.405927802133048
0.422516397703507
0.434001962859926
0.453277383535899
0.46686901961785
0.493893147633856
0.50888015958957
0.537900126371559
0.557294229827351
0.579229178433314
0.605573171641409
0.629370605292601
0.652042134654922
0.68154604846002
0.700811413518377
0.71683109907147
0.738776683790108
0.764783262732623
0.774677823967748
0.794000860131973
0.811804390112959
0.82192142388527
0.829350760209454
0.838800654927942
0.844476669632333
0.843345115067313
0.850471490152298
0.844411270595929
0.836036743780996
0.838038369950174
0.833319342959474
0.823870680630387
0.817106569664662
0.806687865119593
0.794844575521355
0.785666866424843
0.778770829578066
0.77430790631503
0.769786040563618
0.763652650580935
0.756283772671828
0.758093269721327
0.75856827753905
0.757432842602142
0.762927871812249
0.770466025109272
0.774282143268763
0.776395252080774
0.781315219471886
0.784476467364728
0.793220973169619
0.805892086826288
0.812669219817149
0.818624921524926
0.828457070424604
0.832568383547714
0.852067080015221
0.842862882433449
0.847390164402447
0.858557796451652
0.86165559572746
0.869533905393787
0.867373097794895
0.884114782911009
0.894227150867578
0.890963503116159
0.888930233939859
0.885982155784765
0.89687961530212
0.897266182244463
0.897512510077847
0.909665306387156
0.910565458755767
0.914607581463282
0.914951622628345
0.930507862472658
0.929984899597722
0.935772095891932
0.934153886823409
0.945040935769211
0.943379664487768
0.947580500544838
0.953269613989866
0.95493171230392
0.962324230769531
0.97879518713002
0.970913814084709
0.986040638685683
1.00741825606899
1.01222735783724
1.03832275718804
1.07486309020142
1.08709784731778
1.12437262464195
1.14478827076224
1.19041521805292
1.18983022912915
1.21727632070322
1.26946831315053
1.27716396338919
1.31943221330425
1.32245625571668
1.33028061765761
1.35926118185636
1.35870779687741
1.35267098400433
1.33840561761673
1.38048834547471
1.33998174794007
1.33917700954119
1.30367013780633
1.34178729675479
1.32755871432565
1.33225196450396
1.31895941350301
1.2960337326646
1.30927438808792
1.324768077866
1.31951600421489
1.32129576704619
1.34711976328574
1.3517750780103
1.33082589331465
1.38562418849194
1.39169868721818
1.39305842016079
1.44064811265699
1.45551794973249
1.45638030200165
1.4966965958354
1.47458197661057
1.47361668510495
1.50623086552899
1.59853053534241
1.57136284660032
1.56625252696179
1.56779629964814
1.54455397331549
1.57924093601237
1.64143000529461
1.64915979323752
1.7309570669849
1.80686198895627
1.67797636498491
1.71403045356928
1.76970393489441
1.79501052888584
1.9416785632023
1.86097372893145
1.79409608561762
1.83850735667634
1.88250158878875
1.96237907267921
2.00928690273724
2.06615775285313
1.96684533170935
2.23996832316966
2.1151052951178
2.22327207636747
1.86707205843093
2.10713114151397
2.23493576840476
2.26796128396214
2.39043901027936
2.16853944272321
2.25347549990986
2.17764895341884
2.18210123356967
2.29848270953958
2.1730638108895
2.04270616457917
2.17190817515568
2.5003208014514
2.25730994251232
2.2294570327037
1.98996455302079
2.05388862197848
2.07417041668741
1.97601764000591
2.05971804274752
2.0915635309088
1.99643293180987
1.989566784274
1.94761252654223
1.95589872863849
1.92184727357308
2.05511938825217
2.00011555870651
1.88581198862091
2.02224828052134
1.91734237141478
1.84444406844478
2.01486506501682
1.80734837230626
1.96878563598698
1.77367387308742
1.71661870550416
1.69557298361309
1.63607887105308
1.64185895269565
1.64530797009252
1.53239059577874
1.54486854574835
1.42022940163103
1.36844067125448
1.32419617406642
1.36302036567725
1.29516152370857
1.29921454902866
1.25382364392405
1.22000129431569
1.19277263585746
1.18418431656452
1.12863535845518
1.09099530724887
1.0600916032417
1.04248081788975
0.994197722826029
0.959102376701203
0.913275584938627
0.896163550193004
0.852815219360426
0.819725874255052
0.796525638613094
0.772310831745529
0.747416582130256
0.725196831090627
0.704592485517454
0.699648517884267
0.675264273558501
0.661458497485224
0.646434594881692
0.643321186603921
0.6290195626921
0.622234583464403
0.622337251490717
0.615146288025059
0.606930850570317
0.615245670274008
0.615913033706166
0.631803923244863
0.618768371972902
0.615493133603061
0.629126510591118
0.638668742999386
0.637056344600933
0.648530044912955
0.646106574859797
0.652471497741788
0.660467158657368
0.662740340962201
0.664289679070851
0.666635668824639
0.663762960776459
0.663047597966932
0.665049527608747
0.690953983798035
0.676869348031574
0.669369431903018
0.672373147813427
0.690821174132942
0.688704609420766
0.68883639291844
0.682578133210867
0.678901396081826
0.660742077955979
0.669083045532249
0.676127820541343
0.666050872107787
0.670521707421335
0.668855233097608
0.665164194603741
0.656212530219917
0.655601418750752
0.650551609591719
0.64532144892288
0.628155636968357
0.62964845547074
0.633838747360149
0.615683222461314
0.630954772876445
0.618516294508094
0.612763133820135
0.614699959687569
0.621289848686033
0.611217895370694
0.617101119854321
0.610878135277155
0.619019697601828
0.607344383560306
0.627578093084875
0.624941006188309
0.627225982516238
0.632167281332382
0.652212596354767
0.662781251611163
0.655732104489672
0.642957675661549
0.660077113265796
0.651641376046044
0.651482893250407
0.635815264672555
0.635640147948248
0.629251385457825
0.622399159700866
0.610202390905811
0.602529477600948
0.586647577226729
0.595542183273388
0.589367151473103
0.584698520899167
0.584440295318708
0.569512535342007
0.570799709007209
0.574145112691415
0.572982362137345
0.584238435635453
0.571821951790423
0.59152505083839
0.583596415962351
0.582003397758683
0.582172854533437
0.588100632470616
0.584310050268788
0.602931276528165
0.587632660725332
0.605365440472784
0.601179989651452
0.603566471470411
0.609586283521351
0.611380464433315
0.605710720600894
0.614146224289263
0.598031832274842
0.622938598104212
0.59805106261895
0.59210158250626
0.60500492319376
0.611313044626836
0.621743628427888
0.617862913223601
0.604877891065227
0.599796314825986
0.613061957783835
0.6097159876075
0.604544924247518
0.616193621748752
0.603547329297205
0.611870794717561
0.619300805888781
0.601498308312288
0.595333430812969
0.596273360743252
0.600301113963812
0.599772992074282
0.578789553811495
0.596970977228368
0.579380150777763
0.586273393240491
0.600739839241196
0.592400225431741
0.551149869592037
0.568821653071234
0.564004791339217
0.568881415675865
0.556362359360214
0.551638982613057
0.538286547637264
0.549254721636771
0.54861134677899
0.544316452345459
0.52989552113808
0.539334464635014
0.543114815332847
0.528536079308505
0.538589481378698
0.550617819659042
0.540196972549239
0.546805385981706
0.525781496060923
0.561766973588632
0.549229455184121
0.557197291595153
0.544597180946029
0.55558555244645
0.566093574790003
0.558933711482584
0.561556919240576
0.574435612484581
0.574313850392737
0.569860734258171
0.557567025296777
0.583598705704059
0.57368979572747
0.590710661879483
0.609502174638138
0.592712234716619
0.58382135183325
0.626905159460343
0.605556061649917
0.614267977819079
0.627897757397202
0.644455324087263
0.656374107316355
0.656064415003849
0.674117417079956
0.683350307058455
0.670351000870634
0.693213822481455
0.705384637434487
0.703085707518683
0.693825926556269
0.731039859565939
0.721017901096335
0.746472878536438
0.774748541361005
0.751855802326586
0.727870290339342
0.756435629365451
0.783680151959043
0.770559349532956
0.714938657508305
0.769671614209445
0.771933986084296
0.79120089485511
0.793945251572539
0.799787218306125
0.767753133436567
0.787632401690014
0.743736033191142
0.762394882931009
0.817640144985942
0.823186825486613
0.810145364127007
0.843149211518644
0.807409118283859
0.869349419914569
0.876518402629001
0.818949539614835
0.799190985927596
0.794594979894863
0.776523356876795
0.794542396000807
0.826739135798292
0.856093110803875
0.790978971301739
0.83393846528266
0.805980958209776
0.838939433135982
0.808822995177401
0.792997564415382
0.78020097539817
0.791415759939394
0.749067177759933
0.782946946136779
0.762273036855571
0.795544101075362
0.788793452777721
0.812022658057711
0.784408262230691
0.808040628639184
0.766833488080974
0.824393274429988
0.800166937002433
0.78990802815128
0.758623005722648
0.80953616686308
0.832766671985509
0.79346357774471
0.722064251523541
0.836738867997928
0.792147746002938
0.856529608626532
0.807732796152128
0.785569122691195
0.76775762904126
0.763182808946793
0.816741212481636
0.821394315569076
0.868351210196062
0.814878389271983
0.746093047205456
0.816247728821204
0.778040688694768
0.860325327980658
0.853278733744674
0.84304289750764
0.857789975934318
0.895903937172435
0.790311595899028
0.927360808601883
1.05037351559813
0.995371720113063
1.0278640823512
1.16181064079827
0.902032635214344
0.959095702303942
0.995296139615338
0.925856592614256
1.00211299815043
1.11891871573605
0.990569757090387
0.992842280524369
0.891794639739196
1.03463837876933
0.980254531403865
0.96116954367537
0.961234696321725
0.919571343859281
0.919934183567901
1.02763054619261
0.878090535865414
0.994632886171414
0.986138572210036
0.953791730387328
1.0808867612183
1.19060735211975
1.1403660149925
0.859790690200981
0.817078605369244
1.15193666337654
1.08417467859808
0.98286414366593
1.01102396497892
1.11633305441569
0.9350274257977
0.949859405599836
0.988071162773393
0.990031496100344
0.907264112420059
0.97690277814566
1.64071513017018
5
1.12212861129634
1.14893464060312
0.915283581194292
0.851549504503744
0.927561122458486
1.06637204218733
0.991989525986859
1.289337259056
0.952729664623042
1.00692604479436
1.01338158626356
1.63981683927759
1.02166953733548
1.0965190989093
1.3376772745147
1.14824367829262
1.95165966271689
2.07395277452909
1.79349839756269
5
1.60478042963249
0.87433948008566
0.769573804584498
5
5
1.27144858904905
1.43330116879869
