3596
4000.36533379555
650.420452594757
1
2
2
0.0872373295126534
0.0903016741646114
0.0789693453068309
0.0832708766780749
0.0809874512923229
0.102141481642116
0.0771372295049905
0.0837503555607766
0.0856152727719759
0.0933471389793024
0.0852593098201629
0.0840114949520198
0.0709932520127334
0.0750315021894725
0.0854386059293772
0.0792477749542395
0.0839404043544667
0.0869505258488917
0.0865924469417508
0.0792701994629453
0.0832267055467381
0.0828581969725954
0.0730781051349267
0.0836264311890225
0.090868619752221
0.0859661956228612
0.0893160111520016
0.0808622133033764
0.075189292280526
0.0941527390934393
0.0779101932564483
0.0846075314072433
0.0795705141672954
0.0892600806974883
0.0879313851426649
0.0895859650977946
0.0758567120626995
0.0819702056590541
0.0806121452807641
0.0920289050071113
0.094578022263162
0.0820177788191599
0.0920926038037134
0.091441705038686
0.0847510336383834
0.0876686487605045
0.083210885525419
0.086676064740304
0.0859745675351732
0.0913471470380492
0.0860389377526957
0.0823844256591066
0.101474621965592
0.0963857304360433
0.0809005009419929
0.103979627437381
0.0878775913682654
0.082025595605324
0.0848793256870694
0.0819619379777483
0.101376896530416
0.100100218140958
0.0764049627914517
0.0894569666911076
0.0753917610082058
0.0900413338235944
0.0689628037603754
0.0874877530612066
0.07027415670185
0.0909839619541105
0.0755727884729199
0.103608129064192
0.100382310294375
0.0947669745796671
0.0871989686827798
0.0862596166415576
0.0801644837672654
0.0799801627062619
0.0686472149373364
0.0969590660537427
0.0903751760150161
0.0946873274886219
0.0841187534922077
0.0736234975288515
0.0786571184787266
0.109460226700575
0.0728562622520611
0.0945392921753251
0.0962008939558807
0.0951046250365647
0.0846822752566138
0.0804985884292087
0.0731090668058138
0.0778699943662092
0.0811936537001497
0.0836249540036164
0.0694295332392573
0.0836883767805621
0.0731589678843982
0.0922981141489051
0.09615050176708
0.0849012460120543
0.134832128156849
0.0805601006669028
0.155897633005518
0.0970464061859429
0.0875831753418696
0.13171202407496
0.0836900336572809
0.0949324359223996
0.0735279389678339
0.090327244675911
0.0758680583401923
0.104914165418999
0.0705300344106551
0.128072891748251
0.103500140470174
0.0864729737124582
0.0824160855052723
0.0922559357821855
0.0627826873964584
0.120779408591686
0.117657503014129
0.085195523616752
0.104232366469035
0.0809252914150874
0.0839304106653505
0.1321977338627
0.108716348613609
0.0729849295243581
0.0813525929827993
0.0773282427797765
0.0768616704758998
0.0731066162591417
0.127809805824457
0.0859894727903888
0.086934186135704
0.080061172582369
0.114587490741356
0.145121165926849
0.0905697931855781
0.0847809381670844
0.0703858770606019
0.0981174845916097
0.129344002870487
0.0940552501696181
0.0765443906318849
0.105704343905905
0.0909359542014733
0.0778660171124509
0.076647229795213
0.0721306299946269
0.101425543790966
0.0951694225496306
0.0503456218692922
0.145238718914581
0.167825087784291
0.0979092853143133
0.151175907992
0.0724349216912819
0.0994607652697373
0.0733043849958182
0.0804221456641645
0.0690146224603606
0.0901816849456782
0.0765260369401319
0.0886733603304353
0.113334922323547
0.0829381633743908
0.0971009992352882
0.116244828909649
0.104140779410763
0.0809346199309489
0.160490153694166
0.0897771712609086
0.0840978115209946
0.120474393636281
0.0856512785213438
0.0722688372078355
0.0872281605429611
0.116065247271005
0.0725384033491205
0.0827271084031752
0.0700604097497941
0.0886373247884099
0.0973761397283089
0.0851766883548973
0.0766244180916434
0.0893249264692557
0.072722393127967
0.112351433000878
0.13613665630041
0.118713727914415
0.0832390444863295
0.0876478838462858
0.0474331055007825
0.131974067741098
0.119411179179346
0.082786942199495
0.0829074477533231
0.0712044606861389
0.0698599402481659
0.0732115562687272
0.0737556022729991
0.0762365666618583
0.0528181025539366
0.134527323870447
0.0959668132812688
0.0842402399032209
0.0763194924702822
0.0896996311485103
0.0751575951074335
0.144170256028162
0.11446779298713
0.0760621268961046
0.0871876651735298
0.0749791525962653
0.103199829073694
0.101609269941933
0.0778807652026588
0.0788287242909357
0.075897722498332
0.0794706765116592
0.0685980358633185
0.0757759866269237
0.0787123039639059
0.0744817075004657
0.075836419502907
0.0748930857374628
0.0830268255192754
0.0932123462639177
0.0749546290909548
0.0758181094077956
0.0796485991397478
0.0706750008783015
0.0883248080318206
0.10641380776077
0.078767274552132
0.0811207704388695
0.0692931114564917
0.0806292252764778
0.0722188282159705
0.0809428837580717
0.0689926410645827
0.0756039929593849
0.0638349616662049
0.126693825856148
0.0777862679736337
0.0866365761268156
0.0674211041043657
0.107090353476183
0.0914905206700265
0.0830164977559347
0.072308585751376
0.0772792562191318
0.0717113243346688
0.0890052274569335
0.121430054700549
0.0880069595141644
0.0779760612745973
0.0972858311456793
0.0798398636805428
0.074293593285321
0.0926539616059474
0.0716012312397636
0.171017618692678
0.0995644584405959
0.0912634788526587
0.171095952532841
0.0967651981516502
0.0940468848366782
0.0882673782937905
0.0700383354358143
0.217076598568236
0.133971570379506
0.0824493063032822
0.0911605567394208
0.100912837090307
0.0775084979531275
0.0853637958374791
0.0932949039189051
0.0979841417444428
0.127977390935758
0.142279568291632
0.159350334087491
0.0702277754946824
0.128527577437927
0.118036875019402
0.0921518120854265
0.0798309616622035
0.0832667798969866
0.0855973292359687
0.106992977632979
0.112673862473685
0.0997396962857809
0.0974018943343021
0.0876845470898142
0.127546699547801
0.0898276080154742
0.0881852225882002
0.0954398026602856
0.0989098906711374
0.0755448506483117
0.0909420823401928
0.0783746201714356
0.0884062463430002
0.0805000977452281
0.0946491687078003
0.152567186120241
0.105819321153184
0.0963375726306359
0.132458205969546
0.0849074613967432
0.0884555862036889
0.0816430031545409
0.0849393699503947
0.0801227186304057
0.0802051825620143
0.0805467618824455
0.133942975729238
0.0941502427792483
0.0889386644401122
0.0864659465149388
0.0743223845061787
0.0845165002331515
0.0831232976954171
0.0870827906297201
0.0906376630217519
0.0863967891212462
0.0824455055755141
0.110153992784476
0.126990180833905
0.0755914099302423
0.142145259943331
0.127262415049151
0.085926388770281
0.0920008391773584
0.0828491115445221
0.0962271254864724
0.0866258901119031
0.0987744974921645
0.090723557878833
0.0950856391210306
0.118086466362541
0.114155837879581
0.0898115030150901
0.111998101751567
0.162879318027974
0.179938189074961
0.116842283419466
0.103485078837238
0.0822429957318548
0.139572594885016
0.146031460449683
0.127112142327126
0.142345935848149
0.0965590984969226
0.113182914631447
0.0979462860571412
0.106909958038715
0.100511982993307
0.108330286794766
0.103128469532799
0.10708871689001
0.111040011499231
0.11481204722406
0.10512391889105
0.118679129583495
0.156830912229499
0.12626240551112
0.111040933604946
0.122957712305857
0.108352988426755
0.149436790771366
0.162044847194786
0.171525743876793
0.170886389432395
0.158179754061502
0.190937223536516
0.129260672026806
0.13254085645657
0.122675434708027
0.139495899915603
0.134012618410643
0.129905989754815
0.121245389013042
0.134844188832619
0.13278374255204
0.149405513205588
0.134945667702152
0.136326005258266
0.133942377563605
0.16579997137507
0.143431819132589
0.149974913691645
0.137361425088318
0.1853624372666
0.214928093872016
0.206871640173621
0.16907331326703
0.160664476802968
0.164264634357447
0.149971790836834
0.162785193624423
0.162238558133153
0.174388653422617
0.174353172436143
0.214577113046791
0.198102391753022
0.190928328852471
0.188165490425139
0.165552935500373
0.201701500885975
0.196571915616897
0.192625249474097
0.210594192899896
0.191446432947831
0.176306506721998
0.206885385050444
0.217939324472384
0.205258328075254
0.211658641210497
0.188189960315524
0.192502324522855
0.189330212014206
0.203409666232794
0.199524132896307
0.212296366784425
0.215136616886242
0.207092696504651
0.21008830056348
0.214894048632784
0.220141202027778
0.238867790620013
0.231773237765148
0.230997529687949
0.227505214924863
0.212023491303217
0.222812562654572
0.215174761861113
0.255879806268879
0.273783754343515
0.271478933454444
0.283985310155118
0.235553904533072
0.244127853928462
0.239623323736568
0.241095594750888
0.234996330149056
0.254559886302808
0.260547551360894
0.253664943945012
0.253129160206338
0.258007290739439
0.257156364599449
0.267575731111419
0.261945196124027
0.2580183441731
0.264470506304353
0.27453575251469
0.278299209560022
0.274956152294802
0.316538154897441
0.330889464985138
0.330668366175035
0.328064191677487
0.300292872138977
0.317530169115448
0.301261803599133
0.288942134721045
0.296238145854186
0.304934479457843
0.314615241990195
0.308387858769956
0.304186001096517
0.317050645720083
0.315788663338706
0.33079403182593
0.337455545661227
0.32943438600919
0.334833497033382
0.333516764423325
0.339536395015388
0.345058352976147
0.350564564010846
0.366095636884014
0.357678130529873
0.370625302245485
0.366618056362163
0.362205858663212
0.365757516484086
0.357068458223297
0.367368507867951
0.368555513481591
0.360838370465686
0.3609687711726
0.382741204638664
0.394569327838913
0.387605148187443
0.380580040793553
0.378332416611122
0.378322913603498
0.395159184902731
0.402660766931612
0.395219554845887
0.415288745766847
0.414021976320416
0.409537271120278
0.413070599538073
0.41058149887343
0.431716445369339
0.430877538079227
0.422826796626568
0.429578661660621
0.439716847981409
0.443187225271316
0.439159263635284
0.444479751914114
0.444642527263871
0.456781653899904
0.465841163208152
0.449630940121472
0.459022408787821
0.469019784117497
0.464789292536543
0.490369628077016
0.474871742361018
0.460052387914404
0.505303945674032
0.486505741985042
0.487523236489977
0.494461316275822
0.493423804412189
0.520875625233324
0.512701048678905
0.500588653173239
0.504782964851154
0.491811233624686
0.49957637436877
0.520659466137988
0.520072748902942
0.505391298693869
0.504061279238852
0.513206207455293
0.535620068443115
0.537067669520306
0.533029747256677
0.54632896344903
0.541462357156337
0.544770893356722
0.576962477968268
0.572417729110652
0.556090509323511
0.569512181221746
0.594801706372036
0.586609307705436
0.5604369908786
0.565926817759198
0.577918464721098
0.593772538770044
0.599156887378388
0.582598871823468
0.598063600821044
0.591599931276288
0.58279795232388
0.587676631622677
0.602760093206382
0.582227457635582
0.588071946170015
0.608558226540713
0.624380721792104
0.615820791214125
0.611998363249834
0.628171335010029
0.632266494082602
0.653730184796243
0.630084777236742
0.627306806543913
0.641967077430945
0.631380939114152
0.646574865773561
0.658782869722367
0.675857202152426
0.657932807032383
0.679840550572342
0.65931108050609
0.637181515435385
0.663571011618843
0.673320957282802
0.684994184852788
0.697292468294077
0.669895404182642
0.703598977719047
0.665741214906167
0.669488047028521
0.698391310699755
0.678123486794627
0.688501224440326
0.697926835144443
0.723453690491667
0.702743054865414
0.690189455541148
0.726105825555601
0.720282280449009
0.744880410518963
0.729514890014007
0.718783846008243
0.736376193388684
0.74919697545962
0.734208015014888
0.74663887066234
0.725327276091533
0.736759553961197
0.746545988279922
0.743693488640179
0.770335207420803
0.773668593121751
0.758692066465991
0.763043353864854
0.765795025926893
0.747769360485835
0.768892905190967
0.799132145364674
0.766634824289115
0.789904927462216
0.78106984925032
0.767914504826323
0.776510908429062
0.789188737762156
0.810024160832183
0.788070746123713
0.770427138611064
0.800908945673761
0.751877416140275
0.791739151213655
0.811022518757032
0.789027680800931
0.79831393992139
0.805165563812262
0.787647827172121
0.794180861951969
0.781095162087909
0.796335947976853
0.795462295491387
0.82553662204023
0.840235502984404
0.834956185486073
0.801267884362208
0.796551782092447
0.797101079411831
0.857111988421497
0.833357033909497
0.840077342409696
0.834819847149662
0.830584218602838
0.813883393646763
0.848999915254495
0.851891807214334
0.868095315280838
0.865315679979937
0.867835272994029
0.862992399303153
0.86665593103105
0.867962090840604
0.876930674117458
0.854850090790849
0.85773817822379
0.860736027599036
0.854931146750812
0.826259563132
0.862685435891141
0.888338115366442
0.894175445838692
0.876048518342247
0.85838048338417
0.842176269804078
0.871593626253184
0.864689113975447
0.877634449743192
0.869408404683288
0.892292600384976
0.893533689400164
0.877370557659017
0.898515118460574
0.915145128301626
0.875632497117489
0.919157410671699
0.915656220602119
0.95370495587688
0.895558865639283
0.883797141825425
0.924134820200265
0.914134113409079
0.873999845709148
0.914355067290555
0.890530021809669
0.912983210627539
0.903191672248079
0.941025666084661
0.907167649407943
0.920541138832932
0.901524622371762
0.909607060255045
0.891448488419295
0.90521195809191
0.883425706008713
0.917000847872988
0.914100719940274
0.897669765011349
0.894242779210063
0.928496426608748
0.920372527165406
0.923045388693543
0.915288639100176
0.945354210385944
0.943399849040781
0.935418980110113
0.902960378325946
0.922295547775488
0.901021334638628
0.932391541570054
0.912346191165695
0.936807791198236
0.935649606729683
0.934518916949782
0.920979047631362
0.978866202790854
0.927496221497924
0.93192179131018
0.882747331666381
0.929641245820509
0.91786311758633
0.912923130355907
0.945005192927653
0.956812390218109
0.921144573693956
0.917158166641601
0.927433667159449
0.928270185934073
0.882047284171518
0.925787694731305
0.925467545481828
0.936464239764678
0.911452937055198
0.916777857456312
0.916043810147689
0.962967750207548
0.919349171938782
0.964053914204477
0.895493973438877
0.905836930744511
0.900434296005772
0.916333033443285
0.900837662020702
0.935938575005783
0.905497589610526
0.946136426253482
0.924261363652524
0.922063273785291
0.907898506979434
0.930692354839225
0.927819380551599
0.926467424681553
0.91559347759247
0.938734407865657
0.914499151033999
0.926315195495095
0.873303189276108
0.895616168092771
0.915944065079356
0.925588769284524
0.919029056314907
0.919024610944611
0.89537600252369
0.904420236108238
0.880189370060742
0.927385750209213
0.897236744149803
0.931952110622296
0.877928464170916
0.903501142332271
0.894127902672386
0.888795984001857
0.917503594630377
0.938592945438673
0.899053786737776
0.933366981195488
0.908398487704391
0.930825500785878
0.911593029995203
0.909571851383801
0.906494628767111
0.921351464406503
0.905863900763199
0.877058375822767
0.881933666511243
0.902614293550771
0.867075027872338
0.904796572779465
0.883502808457577
0.912921947275071
0.884257396150841
0.898676837104252
0.890583091599049
0.890779168905332
0.867323771786543
0.873022853690721
0.870145469523781
0.884111836376555
0.883667785390167
0.906838933781746
0.873813493854415
0.887762624506082
0.865816021563686
0.873028706682246
0.876982347996799
0.864441288717009
0.875781813594086
0.873224314601346
0.844163646074926
0.848763322704253
0.868382338907032
0.865796164319668
0.855331327313365
0.862107744407649
0.846411133990189
0.867997421286465
0.838086889540107
0.840876203831131
0.851872921999495
0.855962664258453
0.837811084214241
0.846507476366023
0.855357322715814
0.857376703745557
0.848727740120424
0.824841700262985
0.825068585904178
0.846511576643835
0.821400233032712
0.842614289730449
0.8249409015626
0.841716670041013
0.813816161024943
0.813489363269507
0.819436442831832
0.828717527107036
0.822526520147912
0.829563360909566
0.793555128948154
0.80108733583656
0.798405600725771
0.810702843700438
0.788622785443273
0.8063959615698
0.801121232244471
0.791173035232817
0.77582838379886
0.817277703377025
0.77270506258831
0.782258941296712
0.776114784796201
0.796818732319909
0.783489637337436
0.800123512027944
0.770540108014978
0.775505353091877
0.771646908454246
0.782765459146721
0.746661316939852
0.772339367263916
0.775545576610315
0.771837202612724
0.744399417908075
0.756745760615997
0.737477317182972
0.75294612388293
0.74061834049916
0.741822582577777
0.713902850936638
0.763668475854807
0.741981271347481
0.738619769375064
0.716345827890161
0.736928979882919
0.727321874811949
0.714454483421353
0.734323927772541
0.741833400846967
0.724193613242621
0.728294310916393
0.690356199246998
0.71440345603084
0.694763686429025
0.694507327082898
0.68046292613446
0.695898601499258
0.697675937162245
0.710866649556035
0.687233396102018
0.688543153518619
0.691115054113359
0.706124699855708
0.667764123886701
0.659955655925987
0.654476105330539
0.666929626741662
0.650550352069033
0.665686191841183
0.659287798250929
0.677770030325078
0.652104842400691
0.660475645956494
0.650123511681913
0.665459356660215
0.638244381361965
0.64135979498299
0.638954762042137
0.644594337691487
0.632822406383754
0.636699193055162
0.622480785246877
0.618129521909889
0.628586985011204
0.617440661441551
0.609277014249425
0.631969292552337
0.611736789081328
0.618610464066692
0.598940246326827
0.601881796985809
0.598997565338362
0.604436979944493
0.579470784157946
0.593136537586045
0.591943895507953
0.600895620720427
0.584920108822449
0.590789281786285
0.575897333380456
0.580930265275401
0.574264614654703
0.579339017716408
0.563527871562517
0.563775925319013
0.570319773645056
0.573024765808021
0.55116657405582
0.559620192802032
0.570544770509455
0.563525042431788
0.549423395760012
0.551131988067167
0.546114461542143
0.556587525399964
0.538097648398374
0.546106647213265
0.538470797913617
0.539328623221021
0.518778471301986
0.529179319290744
0.534374829634436
0.541262022570191
0.524174158477237
0.523575026128608
0.515705771729911
0.521698553375827
0.509304984439738
0.518544368469734
0.517072138985247
0.506150528887952
0.498343012270613
0.510567003573868
0.498652774753899
0.499874316292199
0.485744533987472
0.498192605445224
0.489007747822731
0.48783447577631
0.476645340954817
0.498671752877096
0.482690060352996
0.480815886789432
0.46838325947847
0.48697733139527
0.475305151499667
0.482032977916982
0.469294265904802
0.470127112633019
0.462118971019878
0.470353896395321
0.45931446059672
0.461112787130818
0.45488090622722
0.454983029951411
0.450670158969855
0.462120347467749
0.452247982320832
0.450736251375604
0.443615075179434
0.449774757246031
0.441331822830017
0.45284589740641
0.44604662328717
0.437959137154022
0.438107208762878
0.440434838408361
0.431452604044996
0.4376589093913
0.431569626594435
0.429620800208556
0.425814500303722
0.421588577594776
0.423649959805937
0.430501183836886
0.412442365930176
0.413334458557723
0.416319225257749
0.41703598773576
0.400967946528196
0.419003053909388
0.408269606547817
0.40846372124417
0.409224334257122
0.40082020384634
0.400566013503502
0.409661379204527
0.399093844367403
0.408133024308079
0.395340657497602
0.40065337093695
0.39748926967133
0.394419409026494
0.387373332557584
0.3869741056986
0.377522344194161
0.385676361079965
0.380597722731036
0.392270123046754
0.381590971909337
0.383390062459293
0.373102682902487
0.389989787799567
0.370804820827844
0.378588061047841
0.369583857440986
0.365659432154787
0.366295255476503
0.363586750234527
0.365209618054168
0.367652880231369
0.360427846102593
0.361072363074763
0.360986172929833
0.362652505338314
0.352403017841622
0.365863571943861
0.356646863754675
0.360995291109823
0.360681275615992
0.358106072202935
0.348143431830236
0.357489979014537
0.348531759038049
0.356167659008697
0.351650017129053
0.350570488650101
0.347812199389772
0.347279987162964
0.343369896149383
0.348629826317023
0.342996270681427
0.348050234599871
0.33687625676514
0.339083563469873
0.3364204344151
0.346278756867447
0.339095513645044
0.342166615373968
0.337032421720232
0.34694570264147
0.339682460800985
0.341368007451037
0.342386939894948
0.348449862409914
0.339775535687138
0.342767142272389
0.343434839308735
0.346010265703488
0.342952174214099
0.347478185564038
0.340421311409975
0.348233555251815
0.346203466074309
0.356241895399658
0.347260871151773
0.360550598170872
0.348527192922619
0.353275474028624
0.343316121254229
0.361863090260514
0.355197678769479
0.365914192449427
0.357079939170356
0.368136980086267
0.360799869171488
0.366657832175952
0.360066502443877
0.372049978672026
0.366203145110546
0.371331405261336
0.359219781330815
0.380054230659491
0.366451424882625
0.371287342019109
0.366694922449784
0.372603484952921
0.369501008613494
0.385068885687104
0.374352668189955
0.389457630014302
0.381516061832829
0.391858661187398
0.381016896344739
0.393299634494727
0.388220686571072
0.3953408521976
0.403486317681487
0.402572819261333
0.399849490661445
0.412043943761994
0.405429094226517
0.418544580482357
0.411884539868766
0.426276010939067
0.418861072194129
0.432117455692641
0.425620786315427
0.429359742071207
0.428813406921534
0.434705538673981
0.426877559698713
0.43934914310053
0.434235097161733
0.442473208355355
0.435224678982847
0.451678376688985
0.439614438519796
0.448230000439902
0.449211405804844
0.455769762488542
0.439794097632345
0.449489539135837
0.438847284866838
0.450070845442502
0.4507883342661
0.45018517149809
0.444622564677047
0.454639302902197
0.444891963561956
0.451271167819001
0.440546302480705
0.438942020948121
0.442514795443856
0.450499723432165
0.427743548877381
0.448672983524213
0.440551173852107
0.444340575694601
0.435808366479016
0.441852440247569
0.43753710528896
0.445620679054896
0.43906204120808
0.438897815163418
0.441599782615865
0.442039846333896
0.44319999605327
0.447752268811383
0.440987368614374
0.435537273208794
0.4371669687157
0.445605391671447
0.439035344881694
0.440905337077759
0.441793566499404
0.449368902197586
0.443466714319784
0.450844704906538
0.436458656642317
0.444697700006544
0.434383690915371
0.452990521580373
0.442204265501184
0.450401595894119
0.441519050329812
0.442799105865692
0.449663166765648
0.446747540534232
0.438643391007443
0.44602579629204
0.435386385188341
0.440552406391699
0.433916277446196
0.439349191441113
0.433368598073304
0.440230144675835
0.437323667155291
0.43599715541938
0.427107412648074
0.437164067095344
0.422212014304717
0.433186642046609
0.422959892982113
0.431890686841955
0.417102750036841
0.421757904552188
0.418039652200037
0.42488054381204
0.405804208349363
0.413849461816305
0.4036124388544
0.411695488855682
0.404045446966912
0.397708290345403
0.394019855270616
0.395992593899276
0.38470471772007
0.389371037796949
0.378847195918502
0.388212999255338
0.374589946817737
0.379221620708061
0.363987550737619
0.373958876076764
0.359425964381892
0.36987595409718
0.364534154532789
0.372122824051901
0.360317527988411
0.368641891353197
0.354101651196436
0.360047675558578
0.352013290624714
0.353753925144434
0.343602014655719
0.346215323044706
0.346784248405059
0.348576806709147
0.33873284185553
0.33831565297562
0.338766915093116
0.339247716462706
0.336817868052938
0.332050121718286
0.329196551574512
0.331790836694932
0.329097785538571
0.333955490446457
0.326144201090318
0.32813319787549
0.325422743230782
0.325675793986974
0.318975665310002
0.325191884679408
0.315352976118798
0.315230181549971
0.310303037605491
0.311118727246378
0.311802672587442
0.313161751591055
0.310847311411678
0.312458652159815
0.307189404217835
0.308296121375812
0.296744711305929
0.307016495952225
0.297637112837839
0.301618457739149
0.299361003057658
0.291538453895871
0.292346660104545
0.296854165248768
0.288479379473153
0.295076636768352
0.291943078796054
0.286457718493716
0.282925948288451
0.287641109254642
0.285566118205541
0.288686696467884
0.2857960325259
0.287027337756226
0.284966563781616
0.285745464273873
0.27552279409928
0.278766183404604
0.276795850767639
0.279100888557423
0.278668094112304
0.276213303758702
0.273848283545293
0.272262844421289
0.273923238888657
0.277757877268053
0.272907986171642
0.273715666552437
0.270418264555471
0.271559087494806
0.267356615888404
0.272534122475418
0.267216708227902
0.269492755994561
0.264812810669913
0.268345134058509
0.263589610316746
0.268932791742631
0.265120180317775
0.268115070188187
0.264171168163281
0.263552400095457
0.259954647820454
0.264949909115168
0.259450008502575
0.262142665568795
0.256501324348939
0.261689421395494
0.25763169841084
0.258436030955953
0.250254494009483
0.255556482165026
0.255275870220377
0.257914777552262
0.250707476289905
0.253801281703626
0.254273367814932
0.255121825199869
0.248258994911593
0.249943371628456
0.248405894989685
0.252290982262398
0.248632222927065
0.249194358170163
0.242193277843687
0.246506242675197
0.241648427209053
0.247348534070598
0.24152948417381
0.244292375453658
0.247174833777258
0.242694781807342
0.235819341412648
0.238314587485782
0.239257362299526
0.248737045760075
0.239968298791204
0.241873778438296
0.239702203829426
0.241043354668152
0.240322067204673
0.241287515913919
0.238783931035624
0.239896584795402
0.239491520913637
0.241559060588442
0.235278839438176
0.236869093280622
0.237217889980396
0.238082982493081
0.235717116217162
0.240327963690825
0.234350422884751
0.240172423741014
0.232988536675474
0.237304079902791
0.239490481887537
0.239777517581419
0.2295978916081
0.235031402017044
0.233829086334932
0.238476183387474
0.232855785002475
0.234284702966439
0.230390756526373
0.234415695066507
0.229640593598097
0.231150132446853
0.225176581873487
0.233729344463942
0.226690795092303
0.231610963891269
0.226451792426815
0.229154896617504
0.225169142722687
0.22784211777
0.222769898899082
0.223458658755775
0.222233713409523
0.227133238794479
0.220031658842412
0.225062035831788
0.221263462644688
0.223522787278592
0.217533752574945
0.22434833559662
0.216621389808086
0.216895358373244
0.219827221709725
0.216356882211187
0.213586489282601
0.217490438554048
0.213107278654701
0.219592718078721
0.210395897148472
0.211253759105648
0.210062814283358
0.215462621273248
0.21432395456952
0.212225487590499
0.212482123326017
0.213354402117096
0.21064382851766
0.210128973149191
0.20631497578279
0.209992432554793
0.206494562334125
0.206213036175559
0.207679058344067
0.204257703427411
0.204255782747549
0.209279480062699
0.202375827070311
0.202099312344763
0.200064371813525
0.199433429407317
0.204317384508719
0.205881406700618
0.199369445307771
0.198639382105723
0.199352351691897
0.202362389586552
0.195889055773884
0.196050071479314
0.19405462936287
0.199753217704025
0.195148280589728
0.199096973599332
0.190874711267737
0.193262058433038
0.188504197993985
0.191561256254472
0.188323442855608
0.189397732728785
0.190441409863584
0.190109563991136
0.183499872291018
0.189649874151964
0.183680679001553
0.185740452837222
0.187794367402696
0.182674898522571
0.182613870720571
0.187352405263714
0.181535360284022
0.181715567891383
0.179144906477406
0.176180161726158
0.177574148704711
0.178749420087943
0.173022881076267
0.179179646081787
0.17395580940471
0.17428407747843
0.167938685914719
0.176144999306705
0.173021686744403
0.171933543984266
0.16825108975394
0.169195216348153
0.171563954868641
0.172768687221208
0.167828937693646
0.170980682050652
0.167792251742944
0.165687695542996
0.165263272785748
0.168518992428723
0.168354641780928
0.166789694026176
0.167035493837127
0.163846774837163
0.162655574683073
0.164139882287592
0.160710686161359
0.1623228835635
0.162784125488517
0.162940996636006
0.157751762682821
0.162348635784875
0.161762275317796
0.163382053770455
0.161523436103918
0.159099854744256
0.158452562022473
0.156835943143751
0.154691776693793
0.15789270004755
0.155456837612431
0.155623573041356
0.152217299564563
0.154741507589469
0.155240323455745
0.152577418020991
0.150104853498464
0.151927533370829
0.153699419649271
0.152730884291347
0.150339850308218
0.151341173726925
0.147507473572879
0.148938824619253
0.150404026575582
0.148227856637077
0.148359506418344
0.147903792489977
0.144433332582459
0.143577272300636
0.146784396803573
0.147402911233635
0.146737498274388
0.149510094302032
0.149712958997383
0.143196623293615
0.142968028046836
0.143406205071168
0.144675975768073
0.145951898444191
0.143098338410522
0.143171503991155
0.14204413734423
0.142743547067962
0.14088438823129
0.140061392194746
0.140320271010862
0.143203552734432
0.14334446579975
0.143257473732947
0.137264647941001
0.140340121624176
0.140139742820149
0.138004024234162
0.138174402023135
0.139231203452375
0.13764009305338
0.142354495705913
0.136839834844555
0.138569594958168
0.137377610114392
0.139812148315814
0.13565051735485
0.136833204512042
0.134642353428109
0.137532785392419
0.135920623459066
0.135995149418467
0.135297454325139
0.136163930012663
0.133833941114603
0.135956514623273
0.137636974909109
0.133657822143987
0.135443537743748
0.134723213633286
0.134257285684915
0.132529749481634
0.130552536759517
0.130973811854676
0.129375300503114
0.12831103269022
0.132658446652478
0.130710706288391
0.129701051316539
0.129323200193492
0.12728704904047
0.128009795554825
0.129379020883515
0.128890271081236
0.125116891250216
0.126258989956935
0.127717850379442
0.128158490267514
0.127882111935696
0.128262392029878
0.126684553016415
0.127269231189414
0.123548709655025
0.12434123476661
0.122119323587912
0.128862604805442
0.125875779888429
0.12499053743602
0.125686339429836
0.123963601309573
0.123900172945003
0.123600787475994
0.123361877704337
0.122647689156022
0.124096263443079
0.125028672445077
0.123700520424849
0.122838530771695
0.120819690225887
0.121092490557534
0.121115085348644
0.12404151333326
0.123843669965737
0.122780574470885
0.119934059014268
0.118894486641396
0.119263000850888
0.119786370945933
0.118921487718756
0.120806962482886
0.119353963801437
0.118742752671846
0.116963950239166
0.121077483478809
0.118344980503124
0.117628492884758
0.118428066876355
0.115512556260264
0.112912626602262
0.115672552228753
0.11531298944392
0.114348612071117
0.113938811945275
0.114518763842022
0.114188426128616
0.1092484974523
0.112051627295756
0.111767941773354
0.111156146250702
0.1126045641878
0.109910311202857
0.110224048413478
0.109265221180381
0.111096926818834
0.108166534533226
0.106934730522928
0.107746112409766
0.106224611430541
0.107059459067209
0.105470449569425
0.106058089107232
0.107817600975213
0.106107624242476
0.106531689494362
0.102861150967123
0.103861777422395
0.106918213022445
0.104387856145805
0.101918785040817
0.103282296893044
0.103245065071401
0.103364159356381
0.102645971978055
0.100442216075232
0.0984250982137573
0.101339791856639
0.101420369473309
0.101158098454935
0.101136555876807
0.0987870601942629
0.101731286921251
0.0980674413347545
0.097821907194323
0.101454861363941
0.0971403536723342
0.0979464007640247
0.101657493480276
0.0977139172325363
0.0986874781478492
0.0992416765952393
0.0966956387952952
0.0951501633395937
0.0943335924690237
0.0956172212957484
0.0954045323345943
0.0948861968214876
0.0941865638546755
0.0933232812108129
0.0936808074908036
0.0959120620241587
0.0933146781252096
0.0938574833599726
0.0916624521522612
0.0916527511821335
0.0903710759482027
0.0892366621618675
0.0914388985086818
0.0912550349269346
0.090110274783558
0.090907317819852
0.0922096344842353
0.0899804761594013
0.0889233916507673
0.0878874318223584
0.0894877250702126
0.086554456036091
0.0877142380997591
0.0869585507115346
0.0885087856934792
0.0861982694697514
0.0852628890658454
0.0879963716282407
0.0860943654655378
0.0830236236214189
0.0847783877850742
0.0841351314060311
0.0846485785576241
0.0827737502231579
0.0803913739272935
0.0822588563650948
0.0847190598690019
0.0834457235183048
0.0860094951657187
0.0856322602312852
0.0840284387140675
0.0834437251060844
0.0840431436965691
0.0849947947486307
0.0862231453566986
0.0872143087132403
0.0848114050301818
0.0830670907793618
0.0845430747721344
0.0845970918145918
0.0875665009427662
0.0852043106295569
0.0844785434270345
0.0837325634242812
0.0864017786384462
0.0835538101242508
0.0859307989210198
0.0830597704748386
0.0815470326673449
0.0799269788342943
0.0778232801331638
0.0721912439977032
0.0734833220381783
0.0737000927198698
0.0794869512242745
0.0805391037259477
0.0778557328947392
0.0700259450549794
0.0709851210163058
0.0732330340257154
0.0780233247102473
0.06678447060689
0.0734555021091826
0.0652268734573726
0.0678568097120466
0.0678168753072482
0.0639454354453077
0.0700223950793673
0.0702793833566383
0.0683228362384429
0.0733833036681228
0.0707435832273049
0.0827335261602661
0.074164369984409
0.0793460772838305
0.0754227631972212
0.0826582523199663
0.0717360130469008
0.0826314011255519
0.0703887821545928
0.0767579087774438
0.0695956023094562
0.0792284973133514
0.0712918656301759
0.0817516431113017
0.0707085109890189
0.082822484121415
0.0671957668421035
0.0743948265893539
0.0613135769146124
0.070690272840402
0.0642289443686341
0.0829031688146076
0.0693250127682738
0.0804347157044741
0.0637631973413686
0.0768530651164238
0.0631144192231526
0.0805426308169462
0.071392151680864
0.0742072919899891
0.0672538654424447
0.0805487629788683
0.0784326167781874
0.0733179555874679
0.0753159899154269
0.0724751082250654
0.0873102596886842
0.0652898688439966
0.0823101911988456
0.0685805096213569
0.0884594643996493
0.0633268709279463
0.088837375150434
0.0682795041475527
0.0832769661346115
0.072007650987972
0.079250800534207
0.0742864264748279
0.0774404433911554
0.0755441602260302
0.074033742281069
0.0746261751540817
0.0720758250438189
0.0707902139246387
0.0736089782337684
0.0705306278923
0.0741351013431452
0.0710440478272801
0.0743491351098891
0.0674142759571063
0.0721489553857029
0.0704617880724996
0.0712830845907132
0.0673348758669406
0.0719397040052476
0.070483740195825
0.0727172022470233
0.0708393590073662
0.0714047289663341
0.0679266082641846
0.0705226936173847
0.0695081371899631
0.0728351751000806
0.0702250675650358
0.0697548665187562
0.0708055537058718
0.0715136251391815
0.0716518260145664
0.0728239227576425
0.068413647594234
0.0720715616470589
0.0710458959068848
0.0722352486101192
0.069905475837782
0.0716896598951956
0.0683675257488037
0.0713715117742146
0.0689304509043341
0.0696526453521642
0.0690060405463904
0.0703468394344341
0.0703633149093671
0.0722974544359607
0.0703896407473697
0.0708667275412287
0.0682883923220094
0.0703786283662552
0.0716798856596643
0.0698918237507437
0.0693515223475178
0.0711826947301513
0.0706965343697661
0.0720045714932182
0.0723797262338837
0.0719523985965621
0.0699124558346686
0.0734805491941804
0.0693219945857952
0.0699217440954396
0.0688029558126454
0.0716955698490656
0.0706299833514116
0.0711751882080285
0.0707537207966408
0.0705337318779346
0.0692107082925429
0.0708501353447986
0.0705469313637539
0.0699276683932668
0.0690122762690286
0.0692452377947519
0.069654257563149
0.0702757894217417
0.0705691140661335
0.070449526023055
0.0690654334183022
0.0685426871904617
0.0702472149044951
0.069930478795845
0.0708341667605801
0.0703637250377131
0.067148071129328
0.0698575449945236
0.0703782417818089
0.0715305092282276
0.0703424359649668
0.0689060449308799
0.068205798086582
0.0708553491204958
0.0700607045457509
0.0698794078766146
0.0703965299540282
0.0718927675565395
0.0728825690635212
0.0704259956356728
0.070353009579053
0.0719338425180877
0.0712043596016755
0.0707003449840399
0.0722258599229839
0.0711477497356861
0.0709813820462037
0.0731141491736751
0.0721690988513923
0.073002408761499
0.072334312644153
0.0714684716726201
0.073250218484701
0.0731884387864481
0.0739041543343062
0.0733202872727364
0.0717750304540579
0.0729463916757386
0.0726660692638286
0.0720721488150444
0.0721972608384236
0.0732611610895617
0.0728897258902114
0.0713578674450333
0.0727150118997968
0.0716647247228788
0.072146127733719
0.0724599979964943
0.0704080207693719
0.073666142004959
0.0738875820302406
0.0720700390443346
0.0706345343064293
0.0705603197357689
0.0726704608296972
0.0745926838428086
0.0731639593999713
0.0718274589922024
0.0736728436638948
0.0728108023787925
0.070627541573701
0.0710650054842867
0.0711614137210373
0.0714927135228098
0.0728429740873551
0.0725084128750575
0.0747449410759278
0.0768156413540722
0.0738701483815284
0.0729175616797833
0.0742076574286406
0.0723025503335675
0.0744025433531076
0.0729947975407948
0.0715282275140915
0.0738464759423252
0.0760442605613685
0.0746801825515733
0.0752966207440346
0.07587894165558
0.0754256416349669
0.0743330792179826
0.0769040735180146
0.074462561905782
0.0734927480012704
0.0737607197444273
0.076367278468674
0.0754318710290364
0.0748692297486436
0.0749122547693513
0.0755979305464983
0.0761885937089028
0.0746919906911032
0.0751971136996607
0.07740543850804
0.0749169268544305
0.074193033780765
0.0755179704060069
0.0766651740925445
0.0741689161555245
0.073876112105572
0.0746776841493423
0.073372335916685
0.0750686463178116
0.0751900104482166
0.0725656103055374
0.0733939135028228
0.0743211456748166
0.0755083757633552
0.0733403555283524
0.0740778615178092
0.0729820104570729
0.0729265277025663
0.0726542557972539
0.0718426454455592
0.0702642101838304
0.0712711306659709
0.0719933324546178
0.0722627602161655
0.0708219109301538
0.0720592092391479
0.0726179531022799
0.0710957275468443
0.0705336628815317
0.071528158969973
0.0693687075272072
0.0709169624503705
0.0719444590564028
0.071347616742055
0.0722592045338173
0.0713777813865466
0.0705769670520739
0.0724923501352805
0.0701378026964448
0.0707583679272755
0.0721581854654436
0.0717349552765053
0.0688898036193093
0.0692848273965137
0.067681345650051
0.0705968475923793
0.0722359293374827
0.0714427791852004
0.0693249832273279
0.0693867630954639
0.0694927901661172
0.071156083441245
0.0697654691362962
0.0727011340761115
0.0703950869668138
0.068146032976735
0.0687191453016971
0.0709255653189638
0.070756239950181
0.0705345485529719
0.0698054627617324
0.073426853993398
0.0691427620191373
0.068429365251572
0.0707442277759406
0.0698929398684335
0.0679414756576332
0.0688336549448809
0.0690266050189683
0.070917432862824
0.0697721288247549
0.0696424020223722
0.0681277214900528
0.0704167849077514
0.0704403944030116
0.0704733538125253
0.070310870456995
0.0697289737633321
0.0659504332304142
0.0680889483525644
0.065892408011412
0.067773294390232
0.0683797626721774
0.0693088435585385
0.068489122455507
0.0670653385804589
0.0670706589285218
0.0703056155993112
0.0718387132105999
0.0713038805101816
0.0661842069737539
0.0672215438867174
0.068426984550836
0.0685505795159089
0.0683572351113945
0.0685793412109641
0.0661048046488474
0.0666840781882568
0.0688019904163178
0.069818514772065
0.0662952311519179
0.0669672891755149
0.0689529088729522
0.0661069818089253
0.0657084083088594
0.0687545184708843
0.0680958579130655
0.0674506576566959
0.066453712889165
0.0683033948650694
0.0682983290227652
0.0682766340978053
0.0657203899950183
0.0682149054114197
0.0672715326008185
0.068152505917162
0.0649619986325911
0.0647570868943547
0.0664350002446255
0.0635022824169735
0.06238585800268
0.0664815456080538
0.0658570273210709
0.0649532973975566
0.065512148783326
0.0660497296283968
0.0655591714007255
0.0651441409424296
0.0627543286003124
0.0648943445603501
0.0630957524360992
0.064168502830268
0.061957571425197
0.0646667740037702
0.0621176174948922
0.0633573809373897
0.0631623285899571
0.0629839585948187
0.0618671054855767
0.0667382770951573
0.0672845821892998
0.0649752484375437
0.0609426533253223
0.0610572669256965
0.0607062493476097
0.0609144202866163
0.0600183529924659
0.0607885605660003
0.0591905117666758
0.0613554692567044
0.059813931250614
0.059184774134028
0.0591367875517841
0.0591259529624822
0.0575015306808654
0.0595380237371525
0.0588476759588214
0.0584018701503211
0.0584577444272968
0.0593670237081956
0.0577675515889694
0.0571863589484726
0.0581813852179691
0.0585715312054002
0.0567964622783118
0.0557189411139815
0.0687533004376797
0.070621302868585
0.0600646463294135
0.0572349683532899
0.0615398103680553
0.0602178994798472
0.0586578503529065
0.0574703440312119
0.0568783865979862
0.0572638458899147
0.057518304178196
0.0581243884707576
0.0552363776561156
0.0548917878876232
0.0540108101707903
0.0567880813684926
0.0576955104780133
0.0585944403283458
0.0587260596387399
0.0584912885410624
0.0539283716314443
0.0564091172245597
0.0565581601479191
0.0553420344009484
0.0565583429234068
0.055739072927361
0.05869415383288
0.0663877405491874
0.0607252072938968
0.0572237632554937
0.0552602529587528
0.0557644313721959
0.0550242519860164
0.0579717758443825
0.0543396218523524
0.0555649209320953
0.0552763160687765
0.054766160463534
0.052040755854251
0.0547030811398847
0.0558913783110585
0.0560701458289622
0.0529659951052439
0.0550824451471341
0.0522809346818506
0.0543384075463175
0.0516759861429771
0.0524864858365566
0.0532768177721169
0.0554737845625734
0.0534605018874948
0.0566047898584745
0.0480888222377409
0.064613882599052
0.0670240833630723
0.0603524213029047
0.0527290128275676
0.0543458386088335
0.0494809873697933
0.0543724858908326
0.0524149560452
0.0527294721059233
0.0510483843306721
0.053239362005894
0.0512129606904144
0.0531156725245479
0.0508327644120609
0.0540355834895181
0.0507194293328113
0.0539066731799553
0.051832565530405
0.0522455125618961
0.0519186215397028
0.0531740864791297
0.0584330433548482
0.0720064358798687
0.0582440353716431
0.0581732282292797
0.0490105192488446
0.0588358335842285
0.0740363863309348
0.0606454363655466
0.0537992464664328
0.0542966979334953
0.0529933248712758
0.0502930261930408
0.0552361430485388
0.0477364961050021
0.0572727695631451
0.0551017794467084
0.056022421092118
0.0570998934916572
0.0525297398674981
0.0510576246427322
0.0529687369279188
0.0518049192635476
0.0504164595379419
0.0498752548767968
0.0493511696152021
0.0513960600468465
0.0499388780985664
0.0498148676386202
0.0529551968460094
0.050001009224819
0.0578663507218997
0.0556260627142211
0.0541452862368606
0.0517973013348355
0.0521018619240451
0.0466458495850541
0.0653143884733244
0.0634866634717275
0.055779863657636
0.0489663271400616
0.0506669736187352
0.0514734648948788
0.0539237462234104
0.0515064736924846
0.0491190013685803
0.0511015360073646
0.0502475864266333
0.0522247376500679
0.0514447676887244
0.0519337682877256
0.0486501944811321
0.0503629529166542
0.0501654551657584
0.0527255193221463
0.0482306713965024
0.0533725433453028
0.0498408621105991
0.0562557227345638
0.0741591527826226
0.0744725642580247
0.0729273135608499
0.0638495579824903
0.0578922517756973
0.0494983266603414
0.0544347960706195
0.048939611107193
0.0540164325170336
0.0501677382760226
0.0508980122900168
0.0505077346219789
0.0535899092891119
0.0508036350538729
0.0519964267374988
0.0477326742757698
0.0519259970328338
0.0466704883253446
0.0520162856853369
0.0472008668267107
0.0529057049595762
0.0481049475432534
0.0528882849582284
0.0571636845196084
0.0619425024499285
0.0532851711085067
0.0531352721543227
0.0964189877954897
0.0688345078280469
0.0672727919001442
0.0494051593179247
0.0543277703913103
0.0475460662295207
0.0514618560365565
0.0505792438255398
0.0578699417394591
0.0506121864283536
0.0528545209983812
0.0485689335102425
0.0572755340520619
0.0484415458025147
0.0499260632844888
0.0742705472520003
0.087533539025957
0.0645486687681948
0.0598370193313318
0.047224321840044
0.0785033125316728
0.0731075785567622
0.061748826369714
0.0563041677224955
0.0571113613835212
0.0531260443151301
0.0524518431189326
0.0517953880897903
0.0539319287596343
0.0613997913944955
0.053761633417271
0.0540703098029005
0.0505844000504328
0.0534242912064169
0.0570214322072498
0.0575284020295142
0.0700618958452421
0.0641998908793794
0.0575971700889683
0.0607278906027331
0.0579167802941199
0.0542414747373303
0.0556009401012304
0.0557383803090928
0.0544672897518044
0.0701497118425585
0.0662405230605999
0.0642045769451478
0.0755692646259789
0.0644237848982498
0.0577017396446457
0.0627737896591246
0.0689001750731432
0.0677689208569807
0.0477280548313694
0.0916387865398302
0.0727642097458583
0.0979566382489337
0.0709041968383977
0.0665039033463974
0.0561023215997472
0.0622178636723523
0.0482813860753292
0.0636911626663143
0.0755592665240513
0.0616738604852513
0.0597733407404076
0.0518168866427618
0.0783652395725791
0.0674979194192744
0.0703202312849905
0.0609674464715742
0.0594197130759052
0.0582834404491748
0.0874127646814746
0.0538696635293899
0.0763397423490771
0.0871344182055608
0.099930676525025
0.0960079722818332
0.0595956040654111
0.0749272824882495
0.0876317154113598
0.067285277549643
0.0666748019406956
0.059400592656801
0.0669232815171784
0.0522250290294048
0.0879010713143863
0.0957442650916621
0.0694448674829366
0.069105493682619
0.0636185980416821
0.0694606256879942
0.0939832727270379
0.0767616217116559
0.0682693772109916
0.0691362583262851
0.0668791152405458
0.0722920574875198
0.133332294884316
0.0747739678920871
0.108624172603103
0.0842564802990681
0.10397090790776
0.0803458614830807
0.0898429788165716
0.0704993407676737
0.105362223489847
0.0927714644904276
0.0835837487429913
0.0605653060383911
0.117518091594525
0.0862744459874079
0.0928934945950807
0.078724837687151
0.0762434671491089
0.0825486658038498
0.142573537212282
0.141978642970139
0.120857124669168
0.0797517117527194
0.102895119453835
0.109471293336346
0.0939559659422423
0.082537610499355
0.0845110995867764
0.0848123110608639
0.0840654545434163
0.0897781912788332
0.102686498095371
0.0885967013927838
0.101128901359413
0.0803676238957602
0.10677809538851
0.114624303349063
0.188809896578164
0.121978177633805
0.126695595342534
0.132673913639469
0.124657292899738
0.111648931645572
0.0990082445171487
0.104334196731411
0.11288406832861
0.108990361550547
0.103828733162638
0.103702895135433
0.148947480431659
0.112267718124637
0.154478161737868
0.118099740705286
0.130519818654615
0.106685383530367
0.179215599700712
0.241946440506872
0.155786980852056
0.155623394002594
0.126168987585795
0.194485726892918
0.18842833222283
0.157457428150538
0.13913127987219
0.141042520228694
0.138858093269015
0.155505788934908
0.15853889728128
0.168632091481795
0.174673828899983
0.159614280086878
0.16923401757926
0.217303034862898
0.265233660567462
0.265004314342042
0.193182145972496
0.190919843600092
0.207594002779481
0.207590318297312
0.192643803017812
0.212177515064533
0.186449821014009
0.264058986598594
0.240739738151532
0.237256582430425
0.210915482933081
0.250258532721038
0.25151087422921
0.246332708530132
0.315948168739737
0.263052844271526
0.266473818684588
0.2368712212032
0.270084837043551
0.245516553536235
0.277063333687494
0.295226499610269
0.291341618032954
0.279328291542775
0.27693010544444
0.277061656018879
0.283376835361019
0.296160751805527
0.286502952873627
0.304551688782202
0.348100207962372
0.379276840105923
0.506945745112757
0.318048979287592
0.322643277112383
0.287307433726132
0.334643841144738
0.343483469894752
0.35642339328481
0.371908546235606
0.329029621128607
0.314464134339105
0.307399039203971
0.311982208113497
0.302525448521932
0.317995917852061
0.314233966606133
0.305549041053661
0.351401198227219
0.311595319751406
0.438149394772841
0.35095530890901
0.342509879634139
0.301926854795395
0.323621063441584
0.30341645717777
0.324010569419132
0.290273322272762
0.346151851687538
0.318126662224578
0.320790164651841
0.298233820760355
0.306519271909037
0.348570859143718
0.332335761110444
0.310439794392476
0.303585350087666
0.29561300487057
0.314836458793752
0.283755748776378
0.359043792072147
0.317981662581515
0.311874315850932
0.288229018099303
0.291761080531976
0.287125110959532
0.29048843696558
0.278824091100817
0.299131364351471
0.28162571376097
0.28984577187506
0.28651619867645
0.286739730266556
0.281617478180845
0.280953533034399
0.286105126755718
0.283524716940312
0.291179045009826
0.279971640042566
0.277076925503077
0.281956790083233
0.275827752078712
0.279875364402466
0.277763726983201
0.287049941076111
0.281576474766239
0.281423047031065
0.278699786617701
0.273087396368531
0.277723738726352
0.279278648046813
0.270685457885039
0.273729127265862
0.271308635923611
0.27233405030988
0.266857006157023
0.265848817091983
0.271350876560133
0.268767903694457
0.269779756151222
0.26372474774602
0.264416628061862
0.260555084961046
0.272610842755455
0.3562365222689
0.272894405113334
0.273838620173682
0.240803375540217
0.269759736257077
0.240379575552694
0.262214137713895
0.305117715663209
0.273437013453742
0.247847822277593
0.240631491838361
0.237323853291851
0.271000315975093
0.234085411428652
0.240968359652698
0.230516371310548
0.228443741971653
0.31876386051236
0.290429417504492
0.394466804699457
0.291124999500144
0.25527118703988
0.206446068950232
0.276177370953256
0.242005830391621
0.225574627073595
0.210749821510236
0.209085933952301
0.272877098396353
0.213856598574554
0.21475703294368
0.198438567928591
0.204306350522913
0.241496227649715
0.243262674034589
0.219694659231918
0.262519857280678
0.233453944748035
0.236046212151024
0.283472971088484
0.293668351316375
0.22081584733842
0.190296030616161
0.198617984031322
0.187045659967675
0.2277022474687
0.2492346648772
0.198563651614816
0.217043881994062
0.171671918249253
0.190245092953453
0.181027271796327
0.227575242967362
0.185605393883595
0.230372351419093
0.211669545259146
0.181323695306842
0.203473537600608
0.205816885732029
0.260859087326406
0.235178881578838
0.189861349588995
0.164994842150253
0.245911513157926
0.212216956329901
0.199963184807328
0.196421344814857
0.159879441338332
0.192766931353556
0.192799240969413
0.168457963904044
0.209316709642286
0.192061978761237
0.227671668254534
0.249978967753108
0.276646082922694
0.240049887165628
0.174628262819316
0.164543844993548
0.163965569877087
0.176285639294431
0.168835372647501
0.158137886671901
0.225384251005934
0.160276544156617
0.1975170840103
0.221761395908842
0.18543829288202
0.175028371174668
0.177681386205092
0.169643428004496
0.195530036506703
0.225691374352179
0.247697316956467
0.200969122608895
0.224302216365381
0.208620094924025
0.204374297956524
0.194998719522833
0.20105996179794
0.19652926238241
0.21040955067994
0.225140156880329
0.221639951505044
0.216495804235798
0.227687939900147
0.218163845327594
0.292803227569933
0.24798623777625
0.247561025161085
0.285337813573485
0.277389650869558
0.342211900224936
0.265250838956777
0.273563285374044
0.264093419519485
0.271391507348729
0.277205827420706
0.265972629680133
0.315469804782401
0.316493142431539
0.297942460502987
0.295656887192272
0.291213238674477
0.302408858546518
0.309091531694301
0.355801007331951
0.323998303902555
0.453945734776229
0.349433480356866
0.356985110646266
0.32394524305433
0.322620785487482
0.335374716860335
0.326571931556001
0.326453390800673
0.316525426062838
0.342878736190261
0.366307930748268
0.322422690976939
0.333478246111551
0.325014981569154
0.338258645320304
0.331690504761032
0.340619095758563
0.340417773485688
0.342819778028406
0.350141817338839
0.344177633076596
0.371671500065248
0.448758217924286
0.36850093303539
0.373075670192394
0.356751840504766
0.382244651888959
0.359879286234075
0.3832589449808
0.396636673205212
0.384498751006249
0.383158834384527
0.381495317211135
0.388156380993856
0.381090372953491
0.404930353419153
0.419749521541975
0.383605729134436
0.412640523299511
0.380270322880457
0.499049708620953
0.423532994161067
0.449647676711049
0.416113997468623
0.425508475472188
0.403120017469505
0.418586368990016
0.400731440123458
0.422389599421655
0.421140613679645
0.416098694684364
0.419913510999882
0.411106540825873
0.416463850404944
0.405371637576316
0.420822975826189
0.450480777041275
0.410372228636793
0.416393411589342
0.412088703417115
0.414651327607699
0.406416407059255
0.452153859378397
0.426826432647466
0.42727471954405
0.405365634401487
0.433246411183116
0.441676273501393
0.432069952178772
0.402607325916561
0.418202053694217
0.405137214931031
0.417919244571554
0.397884009163554
0.437491816388023
0.451172087898789
0.432763490763963
0.4185453401352
0.422912854130856
0.420123723652352
0.428967704032173
0.423671874933145
0.437433140830598
0.431484185342581
0.437209625160356
0.439743046065069
0.439795041905436
0.441801309299677
0.458589150669462
0.466366829269441
0.463245059565793
0.434616645376187
0.442403441545287
0.423822673769219
0.444582561581736
0.439291747240771
0.440896999286036
0.421127873067785
0.429967955063023
0.410230249590829
0.435771343890729
0.448652686395834
0.427330929370427
0.43106146901828
0.41216342574916
0.4064277607639
0.408096080171573
0.393785458042413
0.395598390145808
0.402893861629056
0.400671230005557
0.388970413935562
0.391741614544631
0.387120619357771
0.388784058793216
0.388062625219806
0.387529667434677
0.379976477871714
0.379340291642174
0.385444928803073
0.384183902607481
0.378707695864402
0.386577447784165
0.377129986737852
0.382220285471456
0.397960940560066
0.399379686243529
0.402530569850922
0.380943986950103
0.388631455744037
0.381574469809168
0.378924257231992
0.376220938853334
0.372648505115427
0.376820745841854
0.369290702299743
0.375035417663903
0.373183528421478
0.376160485739013
0.371656584737799
0.375621280447033
0.373575463495126
0.376777415298932
0.37133762695218
0.376056734152894
0.370120032100373
0.377334635456862
0.370960705017752
0.387851783989007
0.372321431505003
0.381055384704041
0.372093647748619
0.378799796561233
0.375333023061897
0.377227392014767
0.377514694255118
0.373074059846578
0.366075106412807
0.37603774697734
0.370247746301593
0.375323103484469
0.36703539770599
0.371988807026943
0.366562270616256
0.369303393436962
0.362115948492854
0.364088653309888
0.358492678339951
0.361155325528504
0.351651543425806
0.356557458114446
0.349758941873136
0.350673542358332
0.341949255293963
0.340370513255128
0.33680088227014
0.338442336789532
0.332018153497324
0.330947057090787
0.327804589525208
0.328637059910522
0.325759000926016
0.324862221295279
0.319618757029183
0.324085583182931
0.319276174603258
0.31853444282181
0.318224782404304
0.318434770906224
0.313029169528007
0.320782832586055
0.316699631030482
0.320014498430311
0.312496332614317
0.318210585764298
0.318454522626835
0.32264300422288
0.318204278835652
0.320665069710023
0.320940083308044
0.326856525986085
0.327389510758823
0.326618142613146
0.32977624537961
0.329850704704181
0.328999833644952
0.333784607785374
0.332224235896068
0.33288472698001
0.33210104115358
0.337738303837467
0.337196195035564
0.338158183348191
0.337963556982476
0.339946836671936
0.336345768026527
0.337462343992629
0.335073102356615
0.33563849177749
0.334737606676057
0.336316815031168
0.331206620543157
0.33727699660425
0.330520294373038
0.331576062209344
0.331714731101324
0.329211161298835
0.3270312463757
0.329543229454695
0.32635879731489
0.325548363230608
0.323216799895649
0.324918108193395
0.320590853778765
0.322089956234381
0.318836440697672
0.320508069977442
0.316138047052719
0.316754130625336
0.315749265657415
0.31812562432902
0.312359999654316
0.31379176595161
0.31213666818353
0.311928813545002
0.308671524654922
0.309538053451399
0.307410338721425
0.311706783228671
0.308461487461867
0.307548117620595
0.305475751751183
0.305785042021619
0.300472002497342
0.301292851602021
0.300579923524801
0.299684717567247
0.295760039997647
0.29649282872483
0.290515426552353
0.293011524184564
0.290209520422059
0.287987405569385
0.28527104592432
0.281392522025015
0.27852939628494
0.27948815409943
0.277027442733022
0.277335942839255
0.274788687263802
0.275126982832587
0.273283411401907
0.2736863343787
0.272533004069201
0.273906202043825
0.271176632551782
0.272883824922866
0.270417852007734
0.269000166768946
0.265787579228765
0.26513588730564
0.261359807900303
0.261878241015322
0.255497703373483
0.252957050832006
0.247837278218042
0.245474022229075
0.243697751880645
0.242768456732686
0.237441140052782
0.239047156019463
0.23799827274279
0.237794696338908
0.239724498107396
0.243221462149335
0.244734238905841
0.25167624976983
0.256186392109348
0.264070332632192
0.270869896668731
0.28277663090666
0.288966461095956
0.302007485033972
0.311188548115989
0.324736568190911
0.334768096485925
0.346793269770185
0.360123704932084
0.369004166362153
0.380483292005498
0.395827259970545
0.404069031856395
0.41434411672528
0.427876203869976
0.440056207057191
0.447757077473391
0.46142794492621
0.469206044713409
0.481221196524335
0.485110313160491
0.50107997285064
0.504562495558823
0.512983642752558
0.515932021740611
0.526482639735637
0.530042615076953
0.537778149012725
0.546494588341623
0.547006191915285
0.542829876115446
0.548306222863255
0.54903288257088
0.55651225464243
0.550615228971273
0.550439353254629
0.550524693220894
0.555817397794947
0.552797120988762
0.552591803392983
0.551812842538269
0.55749692146394
0.557466492439069
0.555597702820939
0.560297353529082
0.566930171282436
0.564179346537931
0.574458239157424
0.577761742737614
0.579632091881308
0.580711707190875
0.585093519500483
0.589526502676428
0.599793986013771
0.60485624090751
0.611961939567631
0.615794359983163
0.623713015611717
0.636542663868391
0.642438592034607
0.64442716840123
0.65902760742474
0.670483855584753
0.67621444568724
0.676393304048994
0.682267387554829
0.690477353371917
0.696713716683977
0.692282323165633
0.694949314614276
0.694561313630271
0.699145511362285
0.688911531965536
0.69433427053058
0.68865202956181
0.688857261682995
0.680856221663498
0.681560129092757
0.688933058974901
0.688700264630426
0.695592302412473
0.703083741806482
0.708570935580619
0.721374375170358
0.725466812722955
0.735283554594894
0.739075405999943
0.758997746937751
0.766223171104114
0.776749136898556
0.776591584070091
0.799205050189701
0.812127942867406
0.821845387469852
0.835183764536771
0.848476774515302
0.851882624578043
0.858900146212723
0.872041113012464
0.893992925347978
0.90907417294675
0.929714178623346
0.947130525540031
0.961677339181913
0.971757594533723
0.993505045364507
1.00729210571455
1.02414024236216
1.04217861829935
1.04743497067788
1.05408334472071
1.07843510992976
1.08569811694996
1.11112406451259
1.08536308317937
1.12303259907098
1.14318178405076
1.17139528188428
1.16634589734607
1.17551807084336
1.17589979302339
1.16662999220685
1.17263096556874
1.17684974338898
1.17346358973597
1.18431185358892
1.18463645176501
1.18654837787003
1.16794785378424
1.18028887966375
1.17692957562427
1.17066159919134
1.19450769200207
1.18476099049551
1.21844974698941
1.20092164332306
1.2344272850304
1.23000786325624
1.24898915441357
1.25292175102601
1.26073465924982
1.23764984931841
1.28612499137627
1.27400286051695
1.2755965444079
1.30029405478653
1.2971795487153
1.33595285871052
1.31084567205356
1.33879591654906
1.36325606617496
1.35239521074289
1.3583853694951
1.39965366987099
1.39559900473585
1.49601270094994
1.54080915885273
1.46743102284444
1.43085920251006
1.43387930839764
1.47502560248229
1.48785776147567
1.51585226324057
1.492834309667
1.47617321809817
1.5303893533267
1.46445908477762
1.51173735837469
1.56602029452935
1.516757335315
1.53593388846775
1.52016011523449
1.55841758975692
1.56679461036244
1.53835116523747
1.56068773882392
1.45812405016647
1.47939305665501
1.49280520751432
1.47574236490353
1.40825355366411
1.3661991214253
1.31042229867119
1.25392162692057
1.24231041105318
1.20874125727893
1.12635734124322
1.10832802657717
1.07661647204613
1.06568625164341
1.04634345937058
1.02599685122684
1.02036448831023
0.990007818828623
0.984109288229634
0.979328721365445
0.977532706795608
0.965342746511803
0.949978964120895
0.931067094970807
0.928135708301037
0.909087561428914
0.915348228324829
0.899053825496024
0.87126112358917
0.855785450500286
0.843526063389638
0.826347769725107
0.800498812358382
0.779085643100745
0.76100928002194
0.731827481222044
0.710308922189111
0.680119032807918
0.645920250705562
0.62007748942378
0.596549601300425
0.56929048892248
0.546202581270366
0.521318564312065
0.497606647558254
0.470553080766143
0.452936427392544
0.433477566616029
0.416590161127617
0.40200854248431
0.384789556856399
0.370100971995265
0.356644010435092
0.345338819165796
0.336494127188612
0.326229957226202
0.31957554671332
0.314796757967338
0.306677304645917
0.303266310154541
0.303610134470214
0.300909211459611
0.294061636608438
0.296406710287124
0.294011427360087
0.294988668234455
0.296783884807146
0.3031101719544
0.301905441302042
0.295308261261516
0.29580549576009
0.303033308008671
0.303873615766825
0.300289974018697
0.298494589736421
0.299316659756714
0.305003939640596
0.297656888720738
0.297157897106288
0.294368488010928
0.293618758656396
0.286646564439314
0.282289537477451
0.281202554058888
0.282531500227476
0.277806077748742
0.282187921354221
0.282439610480642
0.284234848478998
0.274171883453873
0.27932160990692
0.282036160940547
0.285169883093454
0.287566122340565
0.287324526306215
0.289139494903969
0.288948638420685
0.289751316418467
0.297345309315937
0.296774348311587
0.303336768624421
0.308593671653948
0.300923942686569
0.302833940462881
0.304038165781959
0.304558115010205
0.307518951540968
0.30554487682691
0.308472914056521
0.309776474799059
0.312756006673798
0.312845340899251
0.316431916483935
0.315678395244808
0.313085354747401
0.317936153997808
0.32485036211427
0.321777242667762
0.328149225225006
0.331390076815444
0.337966873348582
0.344299234372607
0.359735451323296
0.363712869774759
0.376455063328847
0.390362303218526
0.390810129423845
0.401477508747112
0.410763880158971
0.411849999872097
0.423773544766346
0.425836621980207
0.414201240654905
0.411751055507536
0.408902918498839
0.402201364933596
0.398451478689861
0.389881798433388
0.381788727610906
0.379053257095995
0.375184594283633
0.371328381934611
0.36835266954278
0.365275437048529
0.366724885641104
0.367385796818435
0.373594810313049
0.368737431113665
0.370712499320642
0.372816452252891
0.371699109013235
0.361003415269523
0.364650767330577
0.366164156237888
0.353331394150788
0.346632109314622
0.353150706666167
0.340877606274511
0.341113658568137
0.345570646868506
0.337029618169798
0.322371703637137
0.328190624341685
0.32319762293839
0.316362401570155
0.319484732819516
0.328004734937237
0.324670251355208
0.33040371465187
0.312891115930334
0.306453654341159
0.313039148569854
0.311111084763008
0.310952256664521
0.304472350239014
0.302534783065606
0.300275669836879
0.294673112526625
0.301526279728834
0.294661705278726
0.296913922717415
0.2988481364252
0.290591645277813
0.28829522823662
0.290757412426358
0.285332027540203
0.279741721390044
0.283568478053318
0.28449857828891
0.2762680716431
0.273385846985929
0.274085840948324
0.278578077108801
0.263758933028374
0.272941055274394
0.266233271094067
0.270041286315491
0.267036801313678
0.273657681594492
0.272356947947893
0.263452897806206
0.268573052458301
0.271233452092248
0.264037464749462
0.272338831090012
0.273244209293438
0.274056083049674
0.265590527709913
0.268730005126541
0.277097768839472
0.283315731232805
0.281606809667711
0.291060136873807
0.281187603018529
0.282306369688025
0.287602787538755
0.285935531591994
0.277076860024225
0.298095765226875
0.291514168899895
0.289438914757628
0.302298176116282
0.304567620180269
0.300559235989896
0.31169459779403
0.316775565481024
0.309711016888677
0.329777145635384
0.344266645070826
0.339279936303808
0.333226948931065
0.339122560246069
0.345793256027161
0.345023098587921
0.376633376726113
0.383116625988639
0.400539833746294
0.408077563799224
0.417569469154976
0.424960178726533
0.43318668658964
0.441220371569732
0.449440806579082
0.467754154687712
0.486298825513838
0.484564268607871
0.478305860837637
0.486047723417611
0.488962905974576
0.487370066857101
0.510191517502448
0.474577262094509
0.501696841625603
0.499151080688607
0.492414377062485
0.476650093079418
0.492696882364529
0.474192120737881
0.477185043237902
0.490177804050854
0.458762677436561
0.459644233753184
0.474869140193188
0.481988051168962
0.481514075759183
0.449108345666877
0.467824756017715
0.451932214857602
0.462628415972915
0.461039928441711
0.450095952541281
0.43673935733007
0.439612137891411
0.449313034732537
0.453951886099773
0.429592690382683
0.417774749717318
0.41769908346064
0.440963715919557
0.428780783534008
0.424471158560107
0.428525699444111
0.42084855480329
0.43067146486881
0.408742393482442
0.422838347964181
0.418692181785771
0.392026312824084
0.429450439698777
0.423665658594394
0.432617071362239
0.402790761156407
0.423582628453265
0.433887452722458
0.414564078824258
0.39921074868426
0.436965698490265
0.443440480121528
0.463021142718764
0.44990978939913
0.44315835562496
0.426520254126344
0.425668674590128
0.415446335528105
0.461725663395649
0.439349890079019
0.434444751549509
0.445503611920143
0.441494213618494
0.444497135552584
0.476982514477716
0.452906965170021
0.4776619548524
0.464059923706314
0.471892892056546
0.46547823696384
0.496344213145234
0.508916856193714
0.523979388486088
0.513209698033651
0.542971716816482
0.53904545201102
0.507672030454458
0.523842442138059
0.524501971752142
0.529851401674672
0.59007245529733
0.568393246544118
0.590388058474086
0.61268343324831
0.637401440913055
0.593888736290175
0.591882534466264
0.609778371713214
0.527444323674089
0.634478573026741
0.745530613943008
0.629887048907316
0.591305084860144
0.598544852175998
0.631681625873357
0.580837748659815
0.622195815016981
0.576276165779855
0.548855114844862
0.615882819762678
0.587352712206881
0.499530941669397
0.524139054911348
0.537414041644498
0.515431421729526
0.556854008698641
0.581349492010207
0.4861821807162
0.508833816058814
0.605241325397685
0.596945450022078
0.579163410102923
0.560844759345382
0.596482878816579
0.581463301732051
0.570551135371175
0.618789817617913
0.521551863835291
0.409029429663404
0.535777053051367
0.67180664745417
0.660213940376243
0.637609939733735
0.546072755160668
0.582170557879909
0.768804078932206
0.850179947592892
0.621019781016275
0.659287576017459
0.617221566321603
0.555857011704747
0.381999495165466
0.684323300763276
0.56538051404895
0.562756011837921
0.67277349378705
0.607060724464353
0.721428325309067
0.804375455050388
0.846780021929126
0.741521278493766
0.569400287642528
0.930625879721922
1.68615985316481
0.582381431645498
0.77928858928638
