3596
4000.36533379555
650.420452594757
1
2
2
0.0426924089852214
0.0476337653366873
0.039466182020973
0.042409250299146
0.0408125022456483
0.0377400663162339
0.0402645960755235
0.0438272667952387
0.0328806395102818
0.0374331673836781
0.0412809390403434
0.046342622193375
0.0357867593254301
0.0369864880283607
0.039102153637912
0.043294078407624
0.0336685292605929
0.0434481631107591
0.0398850738112231
0.0384703356935924
0.039538992254174
0.043587267743487
0.0397516585214259
0.0352441247590907
0.0402840359318716
0.0458437929525089
0.0369461428005993
0.042975673410253
0.0417529640301111
0.0408614127395416
0.0395376668217213
0.0471614606751939
0.0443600880681667
0.0497533628433016
0.042067960028321
0.0358360394959972
0.0338943845692368
0.046591525884459
0.0358638575079999
0.0446345412618461
0.0529467804395144
0.047215807152772
0.0373491859014038
0.0435580633603742
0.047626344209499
0.0424450514845936
0.0378794690584023
0.0471781333068472
0.0389946690490423
0.0450552905247585
0.0441059131179965
0.0386417525204726
0.0469056008972425
0.051734883132195
0.0355043191665379
0.0521310835866473
0.0427767003883707
0.0428285029932081
0.0418642715785092
0.0362738461099855
0.0411415975735879
0.0523169266054557
0.038134513501211
0.0421494544377289
0.0402322574956962
0.0433561914547328
0.0322909723321455
0.0443417150392069
0.0422765823192884
0.0496579672462058
0.0397292995597266
0.0530741443986588
0.0475114089648903
0.0449133267603795
0.0396380714687783
0.050932410790153
0.0377638273674911
0.0366950390589055
0.0376200094360259
0.050600209021312
0.0424416100262312
0.0426249311782964
0.0384945891505021
0.0349477248013115
0.0383967181357919
0.0526653066165704
0.0282630456870239
0.0402822803210421
0.0459960159885446
0.0540877724379212
0.0426248248287799
0.0362279248745995
0.0383279901575796
0.0458921091148626
0.0344983770522359
0.0417913485420304
0.0404508172860102
0.0444608190995129
0.0405753964823441
0.0469161729829218
0.0399385648417094
0.0404861940100401
0.0667510463625677
0.0296492337996647
0.0590524902758033
0.0551287053234106
0.036169114742391
0.064349982846471
0.0440630861056437
0.0547969926575213
0.0422303597315537
0.0394289928255134
0.029883428121649
0.0506921570163533
0.0235152207067442
0.044645907995233
0.0578603348815183
0.0387535705240362
0.0404403377939131
0.0463157380832993
0.0204464730368966
0.0484676313448253
0.0653929974731582
0.0394469745862882
0.0378653197289117
0.0370641540115323
0.0322363085973825
0.0560796334205862
0.0575340379924126
0.0428006580356637
0.0401730417778339
0.0425141706772429
0.0324047889681492
0.032204886373115
0.0627144829382752
0.0488102445601769
0.0401443951871587
0.0193181847460584
0.0251130991273775
0.0701500818893229
0.0520666922947075
0.0429480220034075
0.0210453894049415
0.0323949938517977
0.0655533522345418
0.0456124259010577
0.033689454470349
0.0465016640670857
0.0404018297927397
0.0462018169412598
0.0374936725703207
0.0336217320401814
0.050548607920029
0.0441633733374024
-0.00708982981361744
0.0508457571848486
0.074464887092361
0.0360374685080162
0.0793227472315215
0.0410841027568751
0.050362355306291
0.0387599989637642
0.0392996215868773
0.0390617724949303
0.042630751153329
0.0384610431401775
0.0476840016816288
0.0545621048531904
0.0361038973811418
0.0351048304642756
0.0457031566545377
0.0368046036010613
0.0236423991822975
0.0899300518382935
0.0440316123597214
0.027961424859241
0.0551077840041192
0.0588234187694632
0.035634146949603
0.038178517198661
0.0581507110042398
0.0430092910593332
0.0435807557448052
0.038332277303466
0.0331073039226774
0.0520081537665361
0.0523375331972264
0.043276111355689
0.0429321374141388
0.0309731080096197
0.0376374998708324
0.0662274853516453
0.058332028613912
0.0483956015083277
0.037648287881852
0.0148466108146309
0.0589838867233315
0.0689913304880471
0.0504290716144662
0.0477313048591715
0.0407958932295718
0.0457630342797106
0.0373572526813682
0.044263234939056
0.0386499392433712
0.0231205894865052
0.0677533431056559
0.0539989732738201
0.0459117046488215
0.0407240984872919
0.0304775324902457
0.0253686991245462
0.0691415193535031
0.0628094322994981
0.0450659860870494
0.0511527752935119
0.0421090406714271
0.0477152005223251
0.052057360478155
0.0468814615121168
0.0438574737849754
0.047656638800183
0.0454958995825504
0.0480575017448283
0.0430505367136732
0.043110405517807
0.043447543010862
0.0451442314478507
0.0449572483763067
0.0477806183555307
0.0551567651640935
0.058155449184408
0.0464056311167851
0.0413974029484754
0.0308411071492698
0.0478118848137954
0.0683189634847594
0.0512441338688615
0.046570243704876
0.0511847482529067
0.0492774109870219
0.053135883744918
0.0524368056002174
0.0457113952652367
0.0434369859711807
0.0443406797151062
0.0716072134118595
0.0538871698768381
0.0512223228247985
0.0404202846080821
0.0588288878213566
0.0629317163128477
0.0545126469954213
0.0506936675472778
0.053439786532146
0.0492826327873746
0.0449159342278553
0.0751554978104363
0.0513044073009815
0.0477416125774915
0.0594327548211122
0.0546835924080779
0.0479442161235858
0.0375609174605726
0.0270366056205053
0.102041097183967
0.0505409458091983
0.0248325989664219
0.0926997246253844
0.0662104541944359
0.0591509843148317
0.0489438169375519
0.00639757382587925
0.117376741515266
0.099640405990517
0.0567034836402244
0.0512412100626452
0.0622861015843305
0.0523236531526746
0.0594980829194911
0.0517419285922037
0.0618985304848849
0.0559002518498145
0.0527084682114097
0.0903890185022736
0.0500618461307112
0.0625133774182685
0.0800522738755327
0.0627582701112115
0.0623418433968944
0.0575565634942963
0.0474873421619254
0.061682089940505
0.0749970314516962
0.0733150327737009
0.0775235757111217
0.0569355095757602
0.0794783713816304
0.0742129464191959
0.0644942187364614
0.0626300539033832
0.0821635377913389
0.0718518226483822
0.0705688615973642
0.0696494342369516
0.0797647008772742
0.0619785240341898
0.0602392059774363
0.107771354699236
0.0792302384218932
0.0771434217663417
0.102529691997402
0.0810974609422187
0.086733111785467
0.0817224061871311
0.0799845477800671
0.0766799363147927
0.0820973753408794
0.0773176663645163
0.105115123096632
0.0924905439196121
0.0876287818752562
0.0923576133057564
0.0989887572150879
0.0944624052792577
0.0946373842177316
0.095641673537545
0.0972221429877258
0.0952316548350196
0.0931406913584466
0.110395372417528
0.126513224066979
0.0841712694852026
0.126879389745682
0.132548599560426
0.115631502550118
0.117347469209803
0.118045658790283
0.126621728765549
0.13371530552591
0.133661641984126
0.12849150070681
0.13427070110419
0.14779990070503
0.154231581410275
0.141372041686639
0.127043060411457
0.175038971236977
0.197294971062102
0.17663867036296
0.162960596044071
0.153898876178201
0.193963327149238
0.194712931418234
0.190471524200963
0.21456130020998
0.189645783131469
0.19728134733589
0.194976209920011
0.209248597771904
0.208574883917997
0.215153745886543
0.214329614211137
0.228835331714548
0.223703296776557
0.23881168369133
0.228250205119424
0.229767392235839
0.264883414499719
0.262715192600294
0.253672808333342
0.264459795566037
0.257133675571599
0.28637756976048
0.286032642084818
0.311703236774746
0.295962170107902
0.288880250848422
0.320088818767991
0.302110610750336
0.29794515558108
0.305251054726623
0.308769925804892
0.322143512154737
0.326949928608169
0.327332014587262
0.337320798328683
0.33612585165361
0.34101388955179
0.356977011823586
0.352402926014356
0.346870084656817
0.367255338192318
0.374208672005534
0.365727013547202
0.362055750706055
0.378770178228165
0.419842995880947
0.411138213191139
0.396410133009256
0.390831070847482
0.406060734548425
0.403778365348167
0.405108623564747
0.406637056933032
0.424701726019041
0.424449341470694
0.442533061410242
0.435530087905398
0.457054329445949
0.435910730989818
0.426876082221744
0.454710367404373
0.457074159672475
0.460268711249194
0.484715952001644
0.467343814744934
0.463075868196178
0.480028140026
0.486588326247261
0.476320927273741
0.494430993615911
0.488726887423749
0.507491669776837
0.49926620216896
0.49754651318688
0.492472281961494
0.53399768151802
0.537656520662927
0.520150307167148
0.52351798901305
0.540751812570857
0.543821217659596
0.560725254379973
0.54150023775688
0.555030931880594
0.561193090157255
0.553745492900138
0.553720677788189
0.555854221511224
0.57443462378347
0.591789894509089
0.599424702812224
0.586185444846371
0.567089794122852
0.600233099035841
0.600551711648206
0.617147247656168
0.601654462213873
0.621939291955436
0.622023329816368
0.639666357691095
0.624699628273458
0.638726686922009
0.626533851459079
0.63053428538631
0.653834460200132
0.67832815715989
0.662999148304958
0.686572524583887
0.656434412248507
0.664284334437046
0.705067846064462
0.697402294146208
0.701715741704205
0.748716586426327
0.682777789132254
0.716525551627513
0.709780583506979
0.695590011832121
0.721648223646852
0.737053444474084
0.714151207089226
0.741084128243544
0.724216437234595
0.744588655215583
0.731444403901604
0.793887258308666
0.743718306421933
0.77981170931289
0.796040432127929
0.801259119176832
0.809491167091874
0.804201634737195
0.783277020012613
0.778494760809256
0.753653835466704
0.778393489430976
0.793335790747721
0.827220608288459
0.818095780126384
0.836656344311053
0.865709621298137
0.877388173009129
0.820941812763126
0.839437186486091
0.836498519666059
0.893051448751405
0.857445490229205
0.870820514890744
0.879738775641573
0.874909222782239
0.881164253929911
0.939229743864684
0.906596368585826
0.878967320416742
0.868691187222645
0.972705173970299
0.920842060032805
0.928950815405966
0.911901278611827
0.964926773135501
0.934666245427879
0.930386378733685
0.961662733292773
0.964432872672139
0.937629407774534
0.999143784974076
0.983026364433788
0.957077397706341
0.949484445371264
1.01719035962616
1.03460233407194
1.04083276851421
1.00135539504584
1.06435733620155
0.994046415622622
1.00629791552403
1.00093528861944
1.0246707724812
1.02542583587448
1.02460647637579
0.96204954299543
1.09825523672318
1.11940830137785
1.10356031306258
1.05047318443672
1.05442275469883
1.07733096854544
1.19166863103576
1.08625773421451
1.07422903804568
1.04129661164869
1.10436776826971
1.11603825482521
1.15656508708718
1.12384551059671
1.1637970563983
1.08254045564305
1.0459521448941
1.17236663424732
1.21821688018197
1.16963639102188
1.15387607709283
1.1656610914026
1.27331929388798
1.12988133295253
1.19777762472959
1.23439038386311
1.21095304273902
1.21187972424625
1.18131491897275
1.21023055598257
1.29457111940237
1.14041703146781
1.1994128595375
1.1293573415692
1.19214628782016
1.22539370016571
1.20805638260133
1.15273099917815
1.23384013434435
1.27306123212504
1.38880263929875
1.28763903340488
1.30175074693123
1.39700138656689
1.44303113895953
1.36639669217721
1.28598726630643
1.30432173155642
1.33625898596421
1.17884264317563
1.42891268498866
1.46413642101001
1.40035512388667
1.28547209574889
1.3780668062653
1.40657393446196
1.40597862452824
1.3010354531186
1.30684761245665
1.45640438591915
1.47324968831317
1.29151434128069
1.38267336385468
1.45039450100235
1.37462805554555
1.40066679657589
1.42392150273696
1.2900382397359
1.36517818894897
1.41616169413055
1.54306122586241
1.39779547164362
1.30063197874968
1.37295267615514
1.56106317254528
1.50947919341612
1.42783493684734
1.36989585147312
1.57800218436053
1.39699092401578
1.47317543721618
1.4757958977269
1.45358786145882
1.48767535292116
1.68532650004702
2.09458921810959
1.51385485226513
1.37438272522091
1.41301015476407
1.40067777496096
1.56934667013218
1.39837591230736
1.63430854801265
1.62599084894028
1.60841936909113
1.5912335790533
1.52457362547526
1.51994030039077
1.60570684182072
1.52378220781542
1.6373134357626
1.78745449726731
1.78500560480542
1.68118424870687
1.50660138964174
1.53604074224461
1.66991350118124
1.36421746026045
1.49070394296451
1.67654715428051
1.70786162732531
1.62189383953441
1.75761792251262
1.53695724755432
1.61713680794229
1.69293732149323
1.52547298036795
1.50679181426207
1.86553967076263
1.81757080556145
1.87855045341455
1.64067999048343
1.6537050494573
1.99918056529546
1.67080526825157
1.56298547456962
1.66489267955419
1.72854843696107
1.87594867248984
1.81268430106028
1.72320447078353
1.6905212559857
1.8178722323036
1.56236586984371
1.60184549064211
1.60647445907761
1.50297950332078
1.65296963636464
2.02371086288473
1.65704079849968
1.80651544231667
2.22022775014587
1.95579857290384
1.8793157540569
1.7884269733567
1.69416718437465
1.81329691937655
1.6657526550428
1.76783152879507
1.82010338781939
1.88535938508815
1.86848615536845
1.98232396601535
1.63977308443892
1.65889393978977
2.04355467951826
1.92333496810189
1.70403298355196
1.89249239610852
1.79073208677174
1.88794585794392
1.63853214811732
1.65903658114656
1.68943536421168
1.9777021454259
1.61164674699787
1.69154880654774
1.88493767649756
1.70272123169516
1.82674029636152
1.71618017214186
1.64694429847145
1.74011081981107
1.79250847649724
1.61494936933166
1.64559392892661
1.72680978146501
1.62674682090439
1.82112720968901
1.78083134869659
1.75194025380477
1.70890629332109
1.8832368645302
1.69753927700176
1.72404585515075
1.82448476265874
1.75033519824992
1.87921173845969
2.49346852538525
1.5885991746992
1.61305396600007
1.92284121220514
2.14755662442946
2.04827799910319
1.90918544678448
1.75859863472906
1.73313492707777
1.67119994064775
1.6367000022789
2.02645345814434
1.75724585206963
1.51596927080521
1.68118743977557
1.60480487294917
1.68586992853927
1.97860597382081
1.71525204667857
1.5551063673828
1.84880536950151
1.76310505353489
1.73908837403986
1.80344813221085
1.713040735363
1.72675768296785
1.86903146778429
1.68931261959383
1.78200048481148
1.8042991644906
1.7727962876595
1.82747456547392
1.92422443099283
1.63100815829785
1.59950800470613
1.71984607772389
1.79982430610197
1.7530746797007
1.80931504634066
1.71568578216715
1.91237552746036
1.65228159171477
1.62221929762776
1.83535446524055
1.71854012189825
1.71810145099156
1.73066785372467
1.7052612924288
1.7000275502898
1.71320863265903
1.65544637450104
1.57955549678052
1.64806866791052
1.72958589835561
1.9173206301145
1.65477504141348
1.69400303748069
2.02333576442434
1.87354113967517
1.6845905285936
1.61934918839847
1.68509152559763
1.85487296068643
1.93849840110848
1.92903020926062
1.70838439594036
1.72545150821702
1.760761986269
1.87818606197225
1.71412203094925
1.78776793072846
1.65627348913906
1.6568193066822
1.79002872735153
1.65408978359541
1.59958365355451
1.71876301996922
1.62900787704022
1.63454696956299
1.89689680854111
1.78577524657636
1.62981619384743
1.73167082950507
1.69232828685079
1.64263966320521
1.81538121806545
1.78899183386158
1.74467431415285
1.86275838853462
1.71462900562248
1.69767525224887
1.89194156486567
1.59924535994655
1.53150285461067
1.67578823391558
1.75791283575075
1.83013193643068
1.66671919266038
1.69734587609018
1.69936238972713
1.78131212915227
1.7160593479182
1.83753019799521
1.68365698675538
1.63487249042321
1.64503834623185
1.71814730806924
1.74782760221545
1.61667958880359
1.60366430865227
1.90071906103615
1.88872710126621
1.80450958417828
1.67851404189389
1.60315653436416
1.71192132776615
1.76209203200909
1.78865585875071
1.74893994210777
1.667035179823
1.64711999953988
1.61962403979983
1.6854787833253
1.64895807744752
1.67419537530055
1.72327181133855
1.69608100761082
1.55149563861355
1.55901394746858
1.57073605780619
1.58226271399071
1.67392524996623
1.601260617575
1.57356980558097
1.73214956170262
1.69033976793144
1.5342750962297
1.52812024577007
1.6375287942749
1.61680438249696
1.52663996438378
1.542302123314
1.5904828266921
1.58175729054391
1.49385395287781
1.51230504195087
1.61865198970669
1.56979229640573
1.55738532238408
1.55863689233827
1.63147989929747
1.55483172200798
1.52068878087065
1.58806823299116
1.58942875167206
1.55000436653503
1.44943630147865
1.38563842603425
1.54507906725121
1.44952631947307
1.38260008962005
1.4164602361582
1.41503148673673
1.45496866525992
1.42011943406691
1.39282595563161
1.37258715110543
1.40597469650657
1.4532964401263
1.38186069036242
1.38645600075974
1.3890630405218
1.39128972932261
1.40771201652468
1.42031976582431
1.40103656513317
1.33979671813126
1.34873972108002
1.36554434248381
1.3026636359622
1.33589803840564
1.38672710465429
1.31845732487562
1.26805910467689
1.28430935646814
1.33318769092226
1.31999237097844
1.27162138512878
1.26232699343335
1.26904576543996
1.30437044116802
1.25707422364323
1.25944419595648
1.27234767379311
1.2523182175911
1.25496059564954
1.20128148365418
1.22512970263947
1.23722318312391
1.18851847354104
1.17594870631277
1.16991565744954
1.21714773904612
1.17251630905968
1.17896365239231
1.20115734391535
1.17109214438461
1.14034229162625
1.15877280129392
1.15283679342282
1.14801390469287
1.15222747052929
1.10077015233828
1.10101626589343
1.11418655336996
1.12077636762933
1.13645916714141
1.08602515116147
1.07149442854253
1.08919666756378
1.07894355242916
1.04838932262938
1.03408623901727
1.05270770768195
1.040157539493
1.02542322271954
1.00189886686669
1.00627027034429
1.01220185400776
1.00579288753384
1.0394851265254
1.00880879418389
1.00283932377387
1.00839938943969
0.97779275946467
0.988354278926872
0.981235470910776
0.954136539069852
0.966484440788125
0.954657967830738
0.940290814074433
0.926111059275152
0.918355956466698
0.952755343682708
0.941012822560264
0.91738557711612
0.905263243085379
0.889625220680243
0.893891637523289
0.893147852856443
0.89313992050613
0.891734110345606
0.906861881528533
0.874416056084925
0.862340271529585
0.870983143583374
0.846276170775352
0.832629071359508
0.830819720812686
0.844766745011
0.828403681782681
0.820941078544921
0.817946182760553
0.794439522354372
0.791367528295571
0.809447970289689
0.791304371206351
0.789190233253698
0.795600734934672
0.775735764763929
0.7659625849126
0.764037455394436
0.780362460769496
0.761874240136366
0.761386534215115
0.753661710002255
0.748765659805363
0.737389944757939
0.731248707704201
0.739267846325537
0.727005759113424
0.729364466450512
0.720818092893812
0.716091605428722
0.721320370127505
0.709561478677027
0.683391112838202
0.682692559605765
0.680846525339065
0.670518549080917
0.673822101314269
0.662901078606554
0.665767789086116
0.667241155038929
0.650078699210995
0.658655737084582
0.658114429145303
0.641923945496447
0.652710772951517
0.648070687704063
0.629520204300167
0.63344885243051
0.633828124335009
0.616918238030726
0.616272876557522
0.617733868916109
0.610725293833212
0.602152635713843
0.593780785133863
0.595334039653654
0.593466567983109
0.591815324538488
0.59132832921605
0.573452718576336
0.584549757014733
0.572246978915883
0.571860506871894
0.5666629582543
0.551428885967098
0.564485487080399
0.559292111102756
0.548204514729364
0.534065144543672
0.547726104964312
0.542268922740898
0.534514907484161
0.535079168005414
0.519974434455962
0.520183022721317
0.524935654167751
0.515985563693701
0.514094479931809
0.511388838435522
0.500485633083929
0.501814359119753
0.503081553466302
0.494681237864351
0.490408472720958
0.491335711961001
0.490094331941362
0.485165092711261
0.47935521291281
0.484041931552547
0.474810948507172
0.465057187843397
0.463255770956432
0.466732098322105
0.466922994441471
0.456208056367351
0.452352714371204
0.455814719896264
0.452861129164358
0.444646921811823
0.441846989999384
0.450375183890398
0.440325756483461
0.442272790056283
0.437750052843447
0.427518099524365
0.434393140121503
0.429598270236443
0.425028003709591
0.425442627646769
0.420992342188354
0.419866340524856
0.410861359905655
0.408473993543276
0.410216410742313
0.411935682086234
0.412866507838934
0.406887729232224
0.406055747298954
0.402040664695885
0.397151998292178
0.394925358713708
0.394198336475698
0.396463822926208
0.391580998350267
0.387941716757028
0.389427791777171
0.388210890756563
0.384474183110641
0.38595062871244
0.380759063037621
0.375664572644842
0.37659737328884
0.376252933303371
0.373245237879553
0.371875335398752
0.369664802015019
0.374793131510483
0.371352687127499
0.365445748164065
0.370331476004108
0.370590071601586
0.368828157407296
0.36095428284149
0.361184484773478
0.359060941010899
0.359666593551987
0.360184488896732
0.356470586820444
0.35865159682609
0.355526961442393
0.352645851524522
0.353589171317609
0.360799205704911
0.357786101871234
0.353122313085943
0.346883620328717
0.350625701492222
0.35273336671654
0.346242440383705
0.347016880502814
0.343818336086042
0.344959325083259
0.344999352209935
0.344901469895586
0.343654413118501
0.343429107615695
0.34426644060374
0.341549481345329
0.343439485202312
0.340362648144702
0.333626325329737
0.33280702582822
0.331702214562487
0.329922061524715
0.331960718593146
0.331155040204538
0.331025764313058
0.329113954796741
0.326471932468961
0.325329056295491
0.321975147483753
0.320195471903425
0.314637039168143
0.316516757211475
0.310327766630353
0.312452873917776
0.313996396954619
0.308410702623113
0.309239390095511
0.306591236293245
0.303301175164509
0.300135144455738
0.299160957407773
0.296993878129767
0.29600199480032
0.296944148220793
0.295700114473731
0.295539614437377
0.293170933252879
0.292240287736698
0.292657367506919
0.28942867968439
0.288893363706951
0.288585768676242
0.287104264258152
0.28012882136477
0.287099548552859
0.289986991388505
0.286407500715882
0.275389627053263
0.280334223379359
0.282144914327095
0.273515359031397
0.282755229964365
0.280967744561508
0.281056934802255
0.2773360615291
0.271745327450601
0.271280278684457
0.272241067390166
0.266956204710871
0.26333607374597
0.270853631395253
0.270394710543814
0.270460715620734
0.267597294693983
0.261977947099211
0.264023997539843
0.259439451349239
0.258459839119631
0.258070041795442
0.254531493149135
0.259031136033739
0.255336858995999
0.252259059298021
0.253680077654529
0.252444542930681
0.252142397718821
0.249117639979641
0.242804167652673
0.247219745093321
0.245221063882126
0.239300574810633
0.239587410023646
0.237567391964506
0.241117177140415
0.241053721856453
0.232927172778527
0.230835037954881
0.229534099114699
0.226679152644881
0.228098781836085
0.222199886788461
0.221799355766652
0.221822174649419
0.217016169673968
0.217866054347287
0.221068342753579
0.215430461259211
0.210382879215909
0.212560179796943
0.214233886789295
0.205983024873965
0.202575731112484
0.205792099588515
0.206487948398464
0.203845487150681
0.201637413116951
0.208956591677663
0.206497436552445
0.198396694708579
0.198151821791128
0.197506092538253
0.199261734965694
0.194509657381373
0.191357562021648
0.19510172938689
0.191095528436146
0.185413922067008
0.18832083872824
0.190196579048287
0.189292971874887
0.190174197744486
0.188772302241191
0.184332098997873
0.180646432419373
0.181705365463797
0.181962939808531
0.178953447914729
0.175545895618819
0.18024900075916
0.180820103531118
0.177945094873437
0.175490974298408
0.173569712858886
0.173902358750274
0.174792601935443
0.173260836315928
0.169616919039182
0.170207854565628
0.176141426171898
0.170222217350675
0.166080014510554
0.166199390723355
0.163817311880797
0.164371467343527
0.165407963437464
0.159895249377946
0.160969380608677
0.160187049148897
0.159142519801356
0.162922903748911
0.159138990743332
0.156425409575074
0.157855283525432
0.154387936041613
0.155563844653225
0.156885977477471
0.153609310346732
0.15334048014141
0.155087142568803
0.155494641588175
0.152666311319721
0.149827208518185
0.147140082807028
0.151515973215344
0.149999541777168
0.149178847676677
0.150814891489087
0.147408652482492
0.144133163997628
0.144431580731209
0.147605731444256
0.147370194744049
0.142774718077428
0.14547242071207
0.147599069184605
0.144402047804077
0.139839845889809
0.142169810104214
0.146514670097075
0.140479988162569
0.137475695212665
0.140535759974219
0.138526004641891
0.137597488708157
0.136888573449381
0.138852162882072
0.138165639890496
0.136228058881912
0.137354866063349
0.136546897807406
0.138245624657468
0.13363352544855
0.133273750262657
0.134466147622817
0.134148600490109
0.133185103547954
0.134889219029052
0.130736112263834
0.130089279271468
0.130086614463277
0.130241837412706
0.131909808716344
0.130205894497309
0.127084058514708
0.12704421799545
0.130247115871984
0.129958845697123
0.129616368523258
0.13082751793234
0.126590708939831
0.12505806596085
0.124809072980908
0.12484966875554
0.125337247480581
0.126597175417798
0.12392983486649
0.121136952563019
0.121621571705315
0.12244048552508
0.122127864045247
0.122164114215227
0.121927393482711
0.11939128541881
0.121497442565895
0.120938987608125
0.119006707016713
0.123471220732998
0.122142884510258
0.120358356442163
0.117185167944738
0.119278846648052
0.121002355299163
0.116742536691617
0.117441028776727
0.115034952514252
0.11641634251973
0.121488634033229
0.117209270548023
0.114096845842735
0.118813265039032
0.11630251828163
0.11503786708049
0.11629931207453
0.116218591149496
0.118040596280713
0.115653666382295
0.115029784845213
0.114531519137129
0.115887122377264
0.113817342310422
0.112501041014852
0.117167031151558
0.116934356657082
0.113172265316858
0.115215326930832
0.111154260758558
0.10824204088998
0.109436652503062
0.110042046256841
0.112507359350084
0.109534427557205
0.10782662613224
0.106555380576551
0.106244384440248
0.108613557112901
0.107594230533277
0.10894310282642
0.110499094170875
0.107288791207935
0.107558927983157
0.107513346283495
0.107349912325555
0.108996251678817
0.10182244555079
0.104411198440752
0.106921417289712
0.10117235921012
0.103827487768277
0.103098023545447
0.102737076333551
0.103060697874049
0.0986621656069252
0.102378002016814
0.103088131202649
0.0979534773396048
0.100417600883961
0.101403573664254
0.0987289182865787
0.0983984857224346
0.0999132918898809
0.102437742826328
0.0992391062024034
0.0960846059120943
0.0987847733098751
0.100574216521177
0.101754393966823
0.0977045767537124
0.0972262575104504
0.0996462637887077
0.0957753359524081
0.0947959539897389
0.0961702213336663
0.099102675294206
0.0957936575787652
0.0967930200332152
0.0964406591154287
0.0942121562318248
0.0965645359749232
0.0946634327515973
0.0957837932942581
0.0961516486831182
0.0936195164969838
0.0925846610284181
0.0945741823090912
0.0928500017804045
0.0945664355776865
0.0940510607477291
0.0915450986562959
0.0919522855904985
0.0940199831761271
0.0932058213150569
0.0909716597313717
0.0870676431395601
0.0905479436037338
0.0899667117833688
0.0883512688106046
0.091924685779597
0.0917338271465514
0.0908184807853173
0.0901786840198665
0.0897678499650206
0.0907239226976516
0.088328881124829
0.0862211475963537
0.0891929458450542
0.088339218131013
0.0882589013934008
0.0867386332976135
0.0850709818373903
0.0891169924910548
0.0865049144982731
0.08553862172581
0.0856674203465585
0.0849613187379579
0.0870213910846438
0.0850801792409029
0.0846407501367513
0.0865299896913075
0.0869437715497477
0.0868794546836305
0.0865564496683212
0.0895107660690992
0.0858354232168146
0.0851732875314182
0.0851997090361224
0.0845466437507848
0.0854541219367668
0.0851561569907285
0.0840547498271357
0.0849093100078567
0.0853834549827579
0.0885261614992305
0.0876437796343575
0.084152916684259
0.0812803572683474
0.0862021148230542
0.0883259019111012
0.08437061935542
0.0815621818365088
0.0886844504174504
0.0869826112853931
0.08424734999203
0.0846846633045003
0.0820861513230001
0.0809323716575784
0.0831988276253671
0.0843115213116983
0.0843379972190826
0.0850046214299628
0.0847569168848503
0.0832494058088482
0.083813395356721
0.0827966932299614
0.0856586425318532
0.0831301687448815
0.0828767561047819
0.0827626681510006
0.0806900964779881
0.0811144204541857
0.08344454804674
0.0840701712413757
0.0814287026980505
0.0804569349910419
0.0841858227041153
0.080422562794139
0.0820851968331573
0.0827309837209341
0.0814983484403314
0.080728264099727
0.0820627220805089
0.0816150539730998
0.0803140421492181
0.080281373598413
0.0841116760464263
0.0824869529112361
0.0803914837474804
0.0810825079206353
0.0812238539294084
0.0822113485274527
0.0811987861163551
0.0844324222980955
0.0858024905316706
0.0823376509025868
0.086090532445592
0.0827361931148018
0.0835648617900528
0.0817438633997721
0.0834733755218653
0.0830352260489459
0.0843066854108396
0.0857418920292494
0.0802187028622569
0.0818902029869633
0.0825618949533527
0.0815280094128406
0.0844125921644776
0.0850271781633581
0.0844304333248668
0.0836043761472949
0.0828341162552737
0.0829011089791063
0.0816341881168506
0.0826832126226757
0.0843644587462278
0.079708728517067
0.0837609249317807
0.0831403312482165
0.082446530020372
0.0832859405477684
0.0843133052472384
0.0845945681846357
0.0862239254646611
0.0833509192881782
0.0836403431583202
0.0816582790507003
0.0815948984350753
0.0825787712353247
0.0814067585334215
0.084439406902154
0.084893570931849
0.0843189603359383
0.0833167777247378
0.0791344676085484
0.0818221472946314
0.0850261185794861
0.0835004014368829
0.0825376486821806
0.0838679190764715
0.0812290076270622
0.08458007590433
0.0821929063667107
0.0829525162002118
0.0840409999100915
0.0821343878915875
0.0818267291066016
0.0863360309633415
0.0815267240675323
0.084608904335406
0.0848873620894241
0.0834800558612187
0.0842696306006681
0.0849635015093106
0.0829304385747193
0.0846324390706636
0.0814605626923007
0.0844475449652477
0.0850057828034463
0.082708299324973
0.0825350573518601
0.0836275624519
0.083764111663406
0.0839039681289839
0.08335159446299
0.0839691826905474
0.0835960551557091
0.0858858159457276
0.0829331836825268
0.0879413090325798
0.0860017620269422
0.0866426378558023
0.0854389543949353
0.0860771765403626
0.0831560882058266
0.085486625856727
0.083597285667277
0.0850773467506249
0.0849328321840882
0.0831760174497869
0.0833497265746222
0.0845686018084194
0.0839880905348332
0.0857876034142824
0.0846086063395356
0.0870598680015123
0.0851195703993864
0.0846708107876861
0.0856545654893453
0.0863289267097204
0.0863398669105895
0.0849536191692219
0.0823408837515787
0.0852533210448139
0.0861697591146913
0.0846256514828011
0.0851557580455518
0.0860156058027429
0.083087387075073
0.0843866722326538
0.0827273621543148
0.0853501697343701
0.0841919128727659
0.0883512799604163
0.0856841014351019
0.0840294884999653
0.0844478075917509
0.0834722619716395
0.0807700580010661
0.0847652259549656
0.0861897687156537
0.0880146485891197
0.0856470931547534
0.0879193096684222
0.0869136983094499
0.0879553729097615
0.0844783577659347
0.0864250817816096
0.0844254070001187
0.0876965328991509
0.0868318746497349
0.0848578858422335
0.0845838697760245
0.0898627023681832
0.0855299858939386
0.0884162974902514
0.0870579733975981
0.0880078626000144
0.0875551113985259
0.0875728567101086
0.085237346381918
0.0875094698719504
0.0868605345173779
0.0899187102799947
0.0885457215812892
0.0916950038922234
0.0881983599296566
0.0870860845168594
0.0861072723211655
0.0885160249422978
0.0878024331338188
0.0889314980185003
0.0892609353122416
0.0901589362094891
0.0863838078663487
0.0905044987965159
0.0855949012684707
0.0901321228434296
0.087834928758006
0.0904848119586203
0.0881471439568483
0.0891001428278313
0.0888340857010656
0.0912267911252891
0.0903843393758548
0.0899702876604621
0.0884694292748677
0.0925718751361333
0.0891174262774116
0.0908650094918744
0.0879614675945142
0.0916534049190144
0.0880810338000744
0.0879058942177286
0.0885460190960865
0.0887132334560469
0.0909748206447482
0.0926732721495895
0.0893690749771732
0.092222562058508
0.0913741818394086
0.0934801128782453
0.090732658101578
0.0935326753848699
0.0903646907094456
0.0916533765158691
0.0917295960905868
0.0917774925047078
0.0920062383472004
0.0969744756408069
0.0919234452861017
0.0964771062774415
0.0954439439833524
0.093258253533694
0.0888836492785874
0.0969232008279492
0.0941858479885938
0.0960903304226901
0.092225240667197
0.0989392335964499
0.0941809764342012
0.0968585592721709
0.0940525202055265
0.0970819565790393
0.0859420170866566
0.0893289219961391
0.0852734404743448
0.0977629510100723
0.0914015853382203
0.094251267655763
0.0835527577672816
0.0966297138187115
0.0930909724558502
0.0948660866029128
0.0846261959829413
0.096354490725594
0.0898216336907867
0.100021104690773
0.088346833917376
0.0984472247461206
0.0880813205213398
0.100705349705069
0.0901958171823768
0.104020469181284
0.0972989362419562
0.106652431275932
0.0903107704312205
0.103292359033055
0.0908790450698471
0.103182255087772
0.0899513982854595
0.102707462364025
0.0885727582436469
0.10537579841996
0.0897099206927356
0.10720766690826
0.0917489084125763
0.109181680194213
0.0870999358467793
0.111104147809751
0.0873454734978034
0.103309570720234
0.0841373336290088
0.10505618988744
0.0841229243716009
0.111055531991524
0.0979016178220987
0.110349254534728
0.0888646140615633
0.107301835784408
0.0942885251011602
0.111219325137077
0.101483220142794
0.0987146455525507
0.105962416960866
0.105874734493741
0.113164861611057
0.0897764951242777
0.117103170231746
0.0947976942064541
0.11902072354477
0.0841909740346117
0.127599555390534
0.090264285614082
0.121404967664097
0.0914638294341023
0.119144352261573
0.0938421492761822
0.119099074782091
0.101348901191298
0.112774139602079
0.107593329479542
0.112926648872885
0.105705627686438
0.108579835179459
0.106498998051146
0.110864492626407
0.105673466214662
0.110636478726491
0.107055771127479
0.112776073036139
0.104786645346027
0.115042051176027
0.106451988551825
0.111810063611733
0.107918110515304
0.111657572344528
0.106891537270376
0.112922886318297
0.106815966630757
0.111755756615278
0.107877965972997
0.113983881637313
0.110329031476992
0.114048083529275
0.109378507132822
0.113728086131183
0.111365150540041
0.11255504826667
0.113584079229481
0.116534290196083
0.11108891900757
0.115155804484705
0.112664776394299
0.115890168527219
0.112214377103001
0.117102004632808
0.116911149909644
0.116922649252602
0.115660857861888
0.118939796713483
0.116944850155649
0.119737781642403
0.11634805991885
0.122530563310263
0.116280478650734
0.118070558026534
0.118464262538393
0.121571672576432
0.118391828356911
0.120221733286785
0.117532842070904
0.121423121680828
0.119612858193554
0.122559896614349
0.119712694260493
0.122112944813064
0.117448322199994
0.121477039043969
0.12142799299748
0.124762226570579
0.121842229403208
0.124310623142494
0.120986231118181
0.124805332965051
0.123891963394423
0.125684688682527
0.124966655527013
0.124929139615769
0.121650005424014
0.124958540423523
0.124902367970973
0.126116616246944
0.128035060726772
0.129064584505417
0.1260056838242
0.129364381819847
0.124275351335011
0.126211269731366
0.124278685790151
0.128313680273667
0.127371121271639
0.131064495485516
0.127015485496775
0.130502047531733
0.128358289013951
0.129443877376092
0.129272995070015
0.130727344596855
0.128456668720083
0.130143543303696
0.128874320061849
0.134937085383752
0.131020701044688
0.131243205204623
0.132202826175702
0.133447821448926
0.132473792741233
0.133308097409199
0.131792199733416
0.13447785366386
0.13211792616156
0.135941252342013
0.135937706335397
0.136138440260894
0.134908451540553
0.134799666434697
0.134298810723631
0.137247169722636
0.136925504511702
0.137642999641861
0.137009655856515
0.139792100861472
0.13747608279923
0.139809191749255
0.138782577390855
0.139474604001884
0.137862234636293
0.141374948871662
0.138668612732743
0.141207722718356
0.137035786450455
0.140072732315879
0.138753763750243
0.138374005050953
0.139208082177641
0.140683597087878
0.141339631027034
0.140577301845872
0.140138043913225
0.144624032194576
0.142200515750631
0.140486462662762
0.140597528388773
0.144575248715014
0.147275698369497
0.145466347692029
0.143100245573938
0.144819389593943
0.142151396979693
0.147924622577351
0.144245089250498
0.144817335110894
0.144798039950298
0.147365745470724
0.143699564711527
0.147651835433614
0.148233334665364
0.148212188633688
0.144562640170469
0.146367281230562
0.148274860916867
0.148510916432818
0.147698806778933
0.146825508425195
0.147561787978155
0.149456287666549
0.147662504682946
0.149029286446286
0.149646300513638
0.151517945398126
0.150844179109175
0.146708240018484
0.147214799079281
0.151086737392008
0.149753664502491
0.150257956750089
0.151055352758312
0.153125650621158
0.151861095607587
0.153236554602528
0.152213143688289
0.154505933795418
0.151103641022832
0.151918135933306
0.152603224391617
0.151336704763444
0.152814042651385
0.153862787982063
0.151718052529779
0.152196971673344
0.152025108753748
0.154659364749738
0.153035608088683
0.151292210420665
0.151575979042407
0.152442875548626
0.15310283735131
0.153384352280487
0.151588564129823
0.154856341175018
0.15271171337812
0.151680986769266
0.1511999156656
0.151654573582393
0.153107308677885
0.154394906696411
0.151723112938502
0.152509641049221
0.153203155778466
0.152076513192722
0.151922155080513
0.155556677385851
0.153143571461495
0.153743848956494
0.151935390346475
0.152262629515848
0.153144843509496
0.15246950228006
0.151554175315302
0.151873165727584
0.152081090413094
0.150861339188294
0.149892882028292
0.15095708013448
0.150950768365011
0.152273885906286
0.152581284236716
0.151429902333689
0.150181497311116
0.153893313712408
0.150578447607695
0.152654046529159
0.15149673749607
0.150137157861296
0.151815051672185
0.1534337385667
0.151448687999663
0.152358996540734
0.151091988740807
0.154365099603364
0.149631236280974
0.151743529179744
0.148312547812975
0.151342449808426
0.152537557841271
0.153807633079039
0.151705288243916
0.149977211243749
0.148684487346626
0.151052301918655
0.147147014132514
0.148308696263187
0.147780776286434
0.147779609405635
0.145540227747751
0.148513426315984
0.148313053273515
0.149620874633473
0.145954868119153
0.14471861654981
0.148306326369985
0.14637548987738
0.144266357910549
0.145141668929402
0.145134453317743
0.145170954206314
0.144741504713048
0.1451677640403
0.143357882510696
0.144957728894543
0.144390032489937
0.144841411138764
0.143748905604951
0.143067401019017
0.14224423869297
0.141682293896765
0.142439784051909
0.142794904734817
0.141917411683964
0.140282450960321
0.142250293378765
0.140736891027661
0.141679825482349
0.142960844905486
0.142599371201021
0.141240016300874
0.140556530971691
0.140387163705529
0.14025828627982
0.139491739368581
0.138303866750781
0.13849695443521
0.138014939386278
0.138621706680113
0.136078752787952
0.138841336810681
0.138846388661857
0.138451307925702
0.136780976930557
0.135715822746609
0.135864107776147
0.135888767820223
0.135024971756463
0.134801438571449
0.137263721020189
0.136907647410001
0.133684851616557
0.133460560881418
0.133641247604229
0.133903458507304
0.131887754585631
0.13233204446702
0.131447158139637
0.134269816835205
0.130878036240858
0.130260658351175
0.130831520142388
0.130042688418396
0.127690184489442
0.131568077098115
0.127243056291038
0.129304025576989
0.128754431329146
0.128195782359738
0.126470322723859
0.127781416504597
0.128742905320646
0.126819103220903
0.125309394562458
0.127227183448454
0.126896087495957
0.124431983022299
0.124096178354881
0.123783181934064
0.122614815905486
0.124423318515262
0.122377994761533
0.122628214105886
0.123373887682655
0.122071845654106
0.122097440365021
0.122785143908529
0.119333286355931
0.1198437554303
0.117932237957179
0.12114861264416
0.120820662053653
0.115675159567969
0.121563024771184
0.121323316360079
0.120689073125028
0.117552079792312
0.121199450293673
0.117248966236952
0.117541447429638
0.116781991456922
0.11672631718794
0.118435391933589
0.116570051029221
0.115945498011899
0.113646091382261
0.114462190081921
0.115996651161007
0.115406707551568
0.116084185498194
0.113115332229166
0.112940311036763
0.112922624345634
0.114270560087982
0.112148268492614
0.112868566531855
0.112670713479161
0.111857843368855
0.109285095641264
0.11342446373173
0.113776774933037
0.112584020740672
0.113484736098218
0.110487681153057
0.110474975190959
0.109550921518151
0.110293940748405
0.110213060592713
0.109070548846363
0.108465878139548
0.106990637649908
0.107348811538854
0.108730495084412
0.107894039850486
0.106930277379442
0.106998241273956
0.106904986655101
0.107055022294681
0.10470558875111
0.107723814065822
0.108766698069216
0.105894920442221
0.105577533930488
0.103696224710637
0.107584371550802
0.101185370549187
0.107122871072061
0.10481795013775
0.10820055246857
0.101865576878995
0.104836054791269
0.100935902472379
0.101921220494835
0.103712749039778
0.104870164815332
0.101520198351676
0.102810887423637
0.103009023924842
0.104624477730165
0.102275061686119
0.10513082059494
0.101343505357432
0.10252388538684
0.101729982171551
0.103959548989542
0.100324547993743
0.0987681432887727
0.101764489887796
0.105219717903326
0.101893326359782
0.10442867059864
0.0979313424300624
0.101657738613266
0.104727627467988
0.10678596089354
0.101499779874264
0.0976216520000922
0.102321644464293
0.0970671031218171
0.102387670645583
0.0961368618410896
0.100498890385911
0.0977506193187378
0.101501233855811
0.0992447752658289
0.102356348728978
0.0963708130571351
0.0983609335216799
0.0964551544609648
0.0992316066497953
0.0977132280511943
0.096931323849403
0.0982827042777759
0.0988168293003471
0.0951869946301762
0.0981627000205471
0.0965972912568129
0.0974558972065543
0.0976531349300551
0.0969350097106601
0.0933031751718918
0.100262533156928
0.0924839221834919
0.103032663692041
0.0969198468528192
0.100223696546497
0.0945353268993979
0.0993620157407999
0.0990128399609248
0.0968116569236809
0.0966022861306813
0.0973313265576212
0.0967862885368705
0.096365575110473
0.0954916899022551
0.0971942394495094
0.095501349975364
0.0935626764925177
0.0956724951042394
0.092443639060653
0.09581337259246
0.0950690094485313
0.0984742757520335
0.0946663380739713
0.0974415506891668
0.103089050238022
0.0987649704524645
0.101571786298493
0.099835095209691
0.101726718890029
0.0933040353958196
0.0996593140391576
0.0941216787438753
0.0980119054836785
0.0925063680929155
0.0993623324825108
0.0958294694971152
0.0984804721856979
0.094097965602107
0.0992976431872731
0.0933491136456572
0.098428005871036
0.0923813969302553
0.100463176457936
0.0941048234240798
0.0990505814051901
0.0930040724323869
0.10065775256445
0.0941841553664856
0.103841073568086
0.096006866884792
0.0936572643382901
0.105386842492059
0.103520028429503
0.107322428717206
0.0940481407243764
0.103484558643437
0.0933195796426381
0.0987188679616998
0.0944678240528205
0.100458187349445
0.0979355069174375
0.0993343834568829
0.0969560100477426
0.100947985276921
0.0986821892514661
0.0934004990949808
0.102738347301466
0.108787782157151
0.104674462300128
0.101605254775206
0.0943184933105027
0.107854526428259
0.104399466271162
0.105976611588231
0.0976638136665481
0.101359045169186
0.103914203252759
0.102532714075918
0.100002235793871
0.100441380755419
0.10480689965358
0.100602740521484
0.103209790305317
0.101792318077207
0.104745540005225
0.101367930525658
0.104119523572324
0.104011574161191
0.107043755917779
0.106512438158401
0.103246784513739
0.106359725318561
0.108811052258161
0.104858718177756
0.105602907057162
0.104960320285312
0.110323610947754
0.106408718153316
0.109371550281118
0.109147653814029
0.110411680522563
0.108936321486976
0.108312683048508
0.112778387816531
0.114495650857065
0.100540467121285
0.118764687207622
0.107987756432272
0.13282695198599
0.108989865505071
0.122526096457174
0.106129904724301
0.121805198441296
0.105775358919384
0.116606733145687
0.110553120552683
0.120633530769335
0.114790345481587
0.112841135832218
0.117107249986965
0.121537191819744
0.122430095307952
0.119658092954903
0.11975204091075
0.115684709675251
0.126646011427135
0.116691728833825
0.120791313944047
0.125673475128194
0.133920520328142
0.137988774152532
0.124954307860936
0.133559134920123
0.13004139357118
0.13625434053609
0.128973944235449
0.131276279490867
0.137577688235119
0.124879226515524
0.135879428648892
0.140280685393879
0.143944118904934
0.140107721733818
0.131865594851246
0.143586328904146
0.143667398210919
0.150738071504758
0.139692596184519
0.146845969350899
0.143297558816829
0.142456672731836
0.156428414642444
0.155962316178196
0.161174920395022
0.150898076552229
0.172763204602823
0.156737391817815
0.167573400560082
0.154359858140107
0.165902712748876
0.165714160721817
0.169709786845034
0.155023228874869
0.180414539687931
0.16878117820182
0.18392053192594
0.173649479975915
0.17878077297671
0.168953448066401
0.188268244556231
0.203228640087874
0.205416435304899
0.18680299952986
0.194932325315098
0.195126357085803
0.202555127690348
0.199152892815401
0.202906644233983
0.203390803422892
0.206208539652242
0.209433701757106
0.217278154589262
0.215377976115417
0.22561179068668
0.218085898856151
0.231014780039085
0.225223359815182
0.272600629146428
0.2408364059768
0.259442458149453
0.244772111977528
0.262041679371346
0.260816569059933
0.263711722727295
0.266647016617365
0.270440924645947
0.275953790010629
0.278017480281237
0.282417741074638
0.29864405567833
0.291863358886876
0.31963612854034
0.301734837882965
0.32441901490274
0.293064294234644
0.334750462135699
0.35774071316591
0.372322799390189
0.347618083896086
0.338385309630953
0.366640854117131
0.37964931936097
0.387356450697889
0.374776918569054
0.387540164064861
0.394078342351865
0.400882683235574
0.409464950770313
0.419473325330983
0.42922304406406
0.433165729955444
0.430187035781803
0.453203698703302
0.479203483363279
0.502410725474526
0.482347580534182
0.488624663206294
0.490028960244258
0.509820851639465
0.504689209834351
0.519003973517399
0.508429618667192
0.547103709029739
0.546982624335995
0.581457734584422
0.542305307979447
0.576789621772717
0.570207161696885
0.579798609236323
0.588144103872823
0.617783635140569
0.607918739552731
0.613098666170267
0.639124249199456
0.629033664229084
0.64460839111112
0.666997691819147
0.674860782918463
0.678952773408209
0.680772450703455
0.69574381815029
0.696943564533933
0.711086603431046
0.702965669073421
0.729927916536042
0.726572897497205
0.742392413868855
0.816767513160026
0.785498464366547
0.765015545503718
0.755222101743345
0.755376422865173
0.763098104229095
0.779754019245346
0.800222430379504
0.807414761314482
0.788942765855635
0.784574554473143
0.791099993334772
0.797848997172298
0.81815362026231
0.798056399764241
0.815385671663376
0.81284574042647
0.794155545404078
0.808202240817867
0.869798260996528
0.81382434101916
0.79211424748683
0.798764870235266
0.788549511361136
0.79137627046305
0.776624907209553
0.790473118318282
0.784843270906478
0.778915546695468
0.767120012803213
0.760795281300718
0.744377872039651
0.747066616237361
0.745969411312386
0.722848265199386
0.725227414383721
0.715429399265952
0.691991414542018
0.699246379281204
0.721192222237012
0.691662897315906
0.658030217581016
0.674827851923994
0.656873562016102
0.635778337040567
0.635917585559815
0.630118163102968
0.618952611586575
0.620187298547715
0.595096063087137
0.586553209860668
0.577599665253428
0.57470790326354
0.573982311039563
0.564960399367582
0.554612611461263
0.548400893763613
0.539129778938332
0.533230934177246
0.531128328604164
0.517115779721597
0.513294392769821
0.507151876047237
0.503796857696764
0.496284980193765
0.48685876358785
0.486375970887867
0.482473653800404
0.475944548227499
0.474373301747265
0.462548283457207
0.471985842212935
0.461049251240896
0.457683610872874
0.448362207440923
0.446864844025793
0.442400846535703
0.437587136152892
0.428402659284936
0.434290939254885
0.42030190389519
0.422140417779117
0.433554767813812
0.433855123909015
0.429932845206978
0.401454645520368
0.421554725255045
0.399924398222846
0.412007535760911
0.416194122567618
0.423786563787787
0.405083384142443
0.397767296961041
0.387224687161159
0.397720969393675
0.388439593853444
0.40497900674604
0.373908572417925
0.374590367164841
0.38567534255093
0.396051183325216
0.424020776269224
0.407862349976702
0.403214052761414
0.354970904914394
0.386798383671596
0.378246057710117
0.380904745959445
0.351556369609365
0.362917202416452
0.359748990527831
0.364714911433697
0.358132163324482
0.347812387647677
0.34560720910714
0.356931355706475
0.358035013605523
0.347497582239403
0.355942473374292
0.351944678305631
0.345075418287796
0.339360161802481
0.387651952913233
0.351666887129362
0.333838797504732
0.33159538393853
0.315695051034195
0.341112421254775
0.334613303148658
0.339514485912217
0.329201223439557
0.319118564447509
0.31905545097932
0.313886467721951
0.336362412017632
0.305548585830409
0.330421212430132
0.308398819305487
0.321467098307877
0.303556364263432
0.316729736365703
0.326530880774482
0.335712408447695
0.307759388789971
0.298678073869254
0.325075254519914
0.309051417475588
0.315680024440073
0.304354035660074
0.300415872612642
0.300108034949721
0.300538327036173
0.296557194645236
0.295206265599058
0.295342947664339
0.301582575634247
0.291923585106166
0.323968925372629
0.308854992893748
0.291871421856093
0.289920624521313
0.282205376453908
0.293934115294957
0.279657948279657
0.281897061494469
0.293452647035643
0.276357401149682
0.293591148329858
0.283313109952162
0.297223704963458
0.279102500575218
0.283401258717407
0.281042923866907
0.281492485255468
0.29122278583851
0.303608181857751
0.283088890246338
0.293326376049783
0.279059874212894
0.295290192555957
0.274412290174226
0.289976512332769
0.276061454712664
0.289370965780903
0.282452061799147
0.294606042399921
0.286336908908616
0.292822707340221
0.277494771916327
0.315256411285531
0.289305715271802
0.305487601725392
0.278484833082149
0.318901925070999
0.312892103941902
0.308344998567834
0.308829506797768
0.304554766128872
0.302373919979289
0.307132690789504
0.298071188180813
0.318876656332951
0.313744316693929
0.324977980756196
0.301961084827774
0.322237023344493
0.302383482928833
0.320478334688827
0.316045236169698
0.322849680382022
0.343285866616403
0.333421423339229
0.330780456040464
0.315147224224576
0.321452664551088
0.314181134501017
0.318733303738952
0.318661046176223
0.313234775665445
0.325156805448934
0.326792618466266
0.323337927593147
0.319142390556299
0.321209314024201
0.316842666891307
0.321594551431896
0.324201362487001
0.322897418469644
0.317578781784095
0.327458371562672
0.308113393007926
0.32824408542424
0.333983089723137
0.343075892655888
0.328144467123077
0.326957282922182
0.33484752321125
0.325235749424675
0.329414444785957
0.332777240697498
0.333497983329287
0.333960289758871
0.330222374731987
0.334939845949203
0.326666879918427
0.348205946749123
0.333648577340139
0.344311382692144
0.332528386038794
0.325699184998415
0.352810639453419
0.348207733684907
0.352061046329102
0.334276237655962
0.347198450802106
0.338826878811652
0.341135348825719
0.333325883723841
0.345274988342881
0.336127385193676
0.337492269667695
0.339151101378367
0.341191300940197
0.341522433385795
0.331663025458599
0.3394310043569
0.346397026604369
0.340626891883737
0.33207140964494
0.337545866252331
0.328408271377073
0.329765687978263
0.340362656750976
0.337362976476191
0.342193847070022
0.327428846396901
0.333448878823761
0.340837082836853
0.341101506474983
0.334477326562474
0.329400026311792
0.328104725354415
0.334077129199976
0.324611766849133
0.340236916142022
0.336044951136785
0.348742880476042
0.328943853306759
0.339812058895883
0.334043690632015
0.34010913868454
0.335512361448714
0.344058678173429
0.338290079842714
0.345035854630424
0.343089073559391
0.339988286483896
0.343953276687195
0.346337820464185
0.347884423484974
0.349767432260213
0.342135435976106
0.345360082064778
0.338533312799432
0.342292104105023
0.342292564723009
0.341283614285846
0.33410853605421
0.342484436817404
0.323393363125481
0.339754622092546
0.335926465394271
0.335716773766399
0.326867696584017
0.33270906473038
0.324137700434856
0.325025785993252
0.326975488088238
0.325580883587147
0.321050045689039
0.321591611104408
0.32076600932387
0.321414384413601
0.322143352960034
0.321766606871146
0.320032494483999
0.31929533795717
0.317191735594268
0.317342178028002
0.313481226908324
0.318028871344076
0.317289393457367
0.319634956121983
0.316532461416141
0.31876902891628
0.31752894715661
0.321627587286741
0.322749671632375
0.31681514785756
0.324834590489965
0.315927305771471
0.318472607374937
0.314120827351737
0.316201764508161
0.313798477177807
0.314155741802765
0.312661990465643
0.314373349696515
0.314021686756285
0.315483230240154
0.311129420197394
0.313561509369995
0.308356266863585
0.311537710533962
0.309482185025801
0.311634689435998
0.305368794498075
0.311563104096794
0.310964394647624
0.311961102487
0.311535964118636
0.305988962118272
0.312555708105824
0.305605358698249
0.307434720841693
0.309375998074937
0.309219992579341
0.306725352072437
0.308254287083331
0.307067036815831
0.310708563909533
0.305664177269471
0.305542360150419
0.304837039460992
0.306725943215212
0.305784660540691
0.305479311572826
0.301302678225856
0.301640195984706
0.299896640412355
0.301157929299923
0.298874535019723
0.300441885527937
0.302434186013383
0.299076779764973
0.296622484712278
0.29720947043205
0.295338597191798
0.295522590868258
0.296336722437944
0.293378051811926
0.296442728062392
0.296279497484747
0.296854515940556
0.292973073156447
0.292981428747365
0.292141660432749
0.293208564551972
0.291424471992187
0.292319636692991
0.294954091392455
0.29371299322068
0.292886813055065
0.293104571725726
0.297752813999981
0.294632114219071
0.297427466054608
0.29457836450273
0.294836328001451
0.297331236853885
0.2971773570068
0.294583253455217
0.295977255236155
0.298349506922297
0.297559740989717
0.298830031533245
0.300846601248114
0.29839005511139
0.300473978068361
0.298409924094112
0.302568870201304
0.299875490695274
0.300358971449378
0.300380837533868
0.298177280059698
0.300041174823883
0.297642946208597
0.298759415447802
0.297466004809312
0.299498820209931
0.29906772117737
0.295452687752217
0.297601834560935
0.296454556576068
0.295556842404406
0.293144995004985
0.294088336481276
0.29457344761459
0.295987610975979
0.295002664594945
0.294667531787155
0.291552787942873
0.29251939411077
0.292997164708103
0.290391003196616
0.288035630583077
0.290253619313754
0.287507011727276
0.28843065772868
0.289696859881407
0.2912499002934
0.288048912719498
0.286285966797344
0.286430004574622
0.284400926911634
0.286292782923674
0.286635789815543
0.286677913981763
0.28753232673141
0.286923616956484
0.286522453434374
0.286642340934269
0.285107323142232
0.28183050602818
0.28285597606372
0.281361824852192
0.279790571066024
0.278244019699798
0.277674504474543
0.277287267365498
0.279092285629335
0.278261047545569
0.276314826973476
0.276062527180606
0.273655347996405
0.274241983696495
0.274324620271767
0.270956031899426
0.27324273519599
0.272817511464664
0.273371334678253
0.272721515344423
0.274163077724891
0.272657935436077
0.271784966944606
0.272627495943288
0.271348626287693
0.271791644136282
0.269824674824901
0.271039085050731
0.267275558019757
0.267373271606972
0.267252851004943
0.265558455661201
0.26502592822051
0.264562133984776
0.26322163906704
0.261313266718321
0.261630155503116
0.262441206713898
0.263015994937555
0.262371163638191
0.261450710547968
0.262057538326331
0.266460766381336
0.266588796742342
0.266219056560009
0.269972619559371
0.271494332815745
0.272565747175192
0.274144511579545
0.279973415665064
0.284786145929358
0.290016369717531
0.293936278088639
0.297978451212029
0.303807882490343
0.308352114577811
0.316560651873551
0.318642588216542
0.32528359485616
0.333961446338583
0.335222768979502
0.342585348816129
0.35160950492949
0.355196494263774
0.359257713298547
0.366458764938444
0.373029167467614
0.37490310129679
0.376872371707694
0.380780648531887
0.386188869473648
0.386446892784898
0.390396467351225
0.389571296494168
0.392390556775604
0.390626834806851
0.390272501409891
0.389901207206078
0.387779619772026
0.390486887560404
0.382004623914752
0.381438307672707
0.382747188593078
0.376635617049944
0.379484648482292
0.378805619956027
0.376594260293002
0.375427408467934
0.376180293740183
0.377577362964873
0.37728120804341
0.377320769503379
0.379196644626275
0.377979646718121
0.381578300216742
0.38122009584406
0.38603236898396
0.388270420146585
0.390535070777539
0.396585283289498
0.399332970677042
0.402455575040173
0.410636327432228
0.412352285549505
0.420258909262091
0.422574644319528
0.429996882413971
0.431894729235597
0.44066858577133
0.440647892232414
0.445827898620258
0.445753726271616
0.449253604308488
0.444646721987735
0.4414582726269
0.442673589087511
0.441027042592968
0.443838370049567
0.437835598483432
0.434412490801131
0.432885338003638
0.42987497894543
0.429824850189675
0.42750596961274
0.432265769341326
0.436524069973392
0.439658934406378
0.442103371279901
0.446316255562753
0.455130660590753
0.460096419108639
0.462444412575462
0.468130997833397
0.471980908359668
0.477147506302552
0.485149332682099
0.488815907233557
0.486906335000621
0.496473007959062
0.501257722762431
0.504183544042609
0.510266249817439
0.514494406289503
0.524643523481209
0.526788357033845
0.53572883928328
0.542495942037093
0.544705192768679
0.55945173364552
0.570455749979738
0.580668386564174
0.592204443720995
0.602604292345485
0.602878816717197
0.615260798644957
0.621115866806122
0.6238286645801
0.626996819797596
0.637031103397525
0.631044880772816
0.636389608997023
0.636126218854244
0.629058773092475
0.624584503548763
0.623230308356296
0.617468365026666
0.612128850822411
0.601334506754864
0.591535186114661
0.590507131428275
0.587801330527415
0.582336827329029
0.57756697279277
0.570574625449473
0.577303963138729
0.574168016683526
0.577864784301535
0.574021261082021
0.576609971536522
0.582821551190819
0.58400931049805
0.586590065584999
0.598684109729136
0.595506113560587
0.605884732349674
0.605068265915558
0.616278922464029
0.615688783068891
0.622534439865576
0.617379540531022
0.631606318132868
0.629364408965418
0.62562361372287
0.639941894000176
0.636004677220655
0.637652671312817
0.643131410824186
0.640026858008443
0.645111543944683
0.640926594887092
0.641168892183862
0.639588575975914
0.636101514607932
0.631670398284486
0.647132196909107
0.636671834546656
0.630929436754198
0.630010084975042
0.634016055048955
0.623001763856581
0.617855736875429
0.615307241213273
0.613444952552059
0.608175222576051
0.609427189555351
0.596235988089464
0.599438386488286
0.582899758781789
0.583262485708992
0.570355996901478
0.559704138643574
0.545557401796017
0.535398897241657
0.515727947570734
0.507431627666851
0.491181035745455
0.477182083083968
0.468784357578002
0.461482128159473
0.445032356994938
0.439324445830457
0.43126895560846
0.42650785805333
0.426998660801562
0.422469525018518
0.424296061362172
0.423549834231367
0.417111233479361
0.422702244908431
0.423705872568251
0.424274015555618
0.424044073858882
0.427476587184947
0.424614003375645
0.421750044979582
0.419448715155692
0.41219101691765
0.413952974098584
0.412980421883721
0.402163069243325
0.4009614106293
0.397844781299486
0.393762920900798
0.388594007498399
0.384354105391061
0.381244232908191
0.376668626829998
0.368798997776222
0.368368938626444
0.358984883310074
0.357176587402726
0.35441561558495
0.350640490663349
0.349457858335922
0.347236666836263
0.3438700006518
0.343606120369814
0.33897578124209
0.337825643901189
0.337421235312142
0.333702604617621
0.337707414927855
0.336093466411499
0.32915714359128
0.334609431106655
0.335790934196952
0.337375301639317
0.338114509112483
0.333873156145225
0.337511143356898
0.332367267864887
0.334091815185791
0.338464539993477
0.334066787895767
0.342707453574738
0.344617222850172
0.345603480067516
0.343525859703878
0.348049692064221
0.348728437898181
0.345453896659808
0.351716555916063
0.352979781079566
0.355358271183418
0.361053273974834
0.359165679922006
0.363194979073759
0.360518621749044
0.360674760349872
0.362208982405955
0.366154235879109
0.367333744503639
0.370237571426236
0.370018826762163
0.368155587765636
0.369360095970597
0.374437691616768
0.374585831443616
0.38202594907161
0.368608568759887
0.383653458242771
0.381111618217524
0.386606826527969
0.387848572761244
0.39281247336038
0.396877932021956
0.396177774942571
0.390709793285033
0.399806375970968
0.400304180505662
0.40597853778051
0.404862622280911
0.412222600880059
0.406497800737717
0.409387227080277
0.412869102242803
0.412525245808322
0.420466106772293
0.423091546299875
0.424219980898944
0.43589110757104
0.424901426321004
0.436396170896584
0.439417867884602
0.448192814869537
0.440064297398396
0.445118762157425
0.4523282747896
0.451389687727399
0.452288512051539
0.459626277069829
0.453082658047908
0.464974661984189
0.471972818685571
0.466837689044367
0.475372986840251
0.488771980694801
0.477585339880406
0.496445572268431
0.489795983549897
0.504548860652244
0.509327184070742
0.520347579813453
0.510064636351103
0.519836848618922
0.524526953406643
0.518114852856212
0.517140091633996
0.519727170092779
0.522687138387583
0.533053790918506
0.537273135459309
0.534924393906852
0.523488948398568
0.551321340050089
0.54121205187085
0.540783813716716
0.548021860064294
0.561508381066666
0.547791089361288
0.560283816992895
0.567310912754119
0.579659372180151
0.570398843902097
0.576591746036448
0.567750291190936
0.576507319474412
0.578722118688193
0.577143605470702
0.577662814627951
0.596153705362746
0.596273106072286
0.612315052966601
0.613928389714215
0.609157507110479
0.605431033827348
0.619707446614957
0.623868328746823
0.619375369944127
0.621206199725002
0.620980503139746
0.632719338176086
0.636612465671848
0.647150839510906
0.640496208512691
0.649239088519786
0.673244971272105
0.662476542057294
0.66814425337204
0.644282064585858
0.690174446594093
0.650133413713079
0.693748971730428
0.66889039681077
0.68213105349893
0.689262972019225
0.701492345784882
0.696031861957052
0.715203428633693
0.707284260630154
0.702459512993025
0.683337015716475
0.732461485209973
0.72223511562292
0.730827564302441
0.719923563081331
0.74949379627584
0.740524956602482
0.749945150119104
0.744174923772658
0.774203317834094
0.740732265457834
0.751894706480882
0.78690534666205
0.756928147821298
0.770395588933028
0.80986078638167
0.793325265649131
0.778826250629246
0.787417065733485
0.815716545182347
0.800190253027579
0.826750119170032
0.778194410359348
0.822546079104119
0.814077542547433
0.818432211476015
0.813039347862451
0.870695245025495
0.817474782664034
0.855044321486184
0.831667711253286
0.838635279564677
0.8498158724242
0.886852842728445
0.826687919588709
0.872579327779048
0.873015468457433
0.901233897035295
0.859282426767519
0.9226645734976
0.853724143505873
0.911000815228425
0.921610940880195
0.882995588253842
0.892442670978512
0.989756410010897
0.885252367407943
0.973569154330317
0.952806044062866
0.965275512709162
0.893923091739799
0.919271793069732
0.935801370795249
0.979656037847405
0.919981353925067
1.04527909786907
0.923087895001958
1.08960901641868
0.945565319207893
1.01491602986595
1.00674902661161
1.03764673242261
1.00828526210119
1.05961856718501
0.969211406226412
1.09579489755083
0.999277453902145
0.994606270123464
1.01066663204303
1.08556726947392
1.00902260715961
1.16975310400628
1.04231001270318
1.09110130433802
1.08125144853649
1.10171011674265
1.02210521221211
1.16352838256959
1.13701565973243
1.18893409549603
1.01350435917701
1.14193743340728
1.02248074127117
1.15257041563456
1.06469650066278
1.16186051511923
1.14782369572456
1.12506494673566
1.11676921470034
1.21910416255523
1.04053808274991
1.2992678931667
1.15589996625213
1.26911874820721
1.06590753332788
1.25956526078412
1.05724763588792
1.36461306096818
1.07569335506495
1.2155695331707
1.17429379436273
1.26831986881135
1.13296406392881
1.31825439569516
1.12341517538139
1.12766678497201
1.14771729605776
1.1919148677081
1.06715145620676
1.23116192587432
1.23986653019613
1.24416053796574
1.22656667020312
1.37254154826837
1.1490187059466
1.32888498138069
1.05448905643406
1.40282632379076
1.17948176832262
1.25321864849131
1.10952494550449
1.2741699712858
1.29513681332849
1.47334277051573
1.21043268982598
1.75640288587778
1.98696668249781
1.94539263582658
1.29941279886116
2.22333585356717
1.14955267752222
1.69869715547114
1.01461873918138
1.19922956113054
1.15147604980774
1.82813481785971
1.08205741526631
1.58445592998825
1.07507828370395
1.42462304501805
1.16313605801155
5
1.54172046351321
2.36038806029583
1.04599253970816
2.09396335713709
1.88770536458706
1.41039463733338
1.01375149881983
1.48560732110303
1.17031109142524
2.08812041064497
1.39838782740633
1.17672793769446
1.33208061101534
5
0.995082579014464
5
0.969083348406053
5
1.70374446383406
5
1.09604429606283
1.66538358972418
1.32743765654655
5
1.36423882645272
1.77020961660037
5
1.59448666643169
0.983146707274991
1.70091941352199
1.47525788676547
5
1.5971026807714
1.08968456470359
1.37916908048596
1.01399937099582
1.65700694954595
5
0.983388902690185
1.08777437576911
1.25785693246477
5
1.51655484636595
5
5
1.02561715087518
1.42508441987907
2.72129795200587
1.57824385441122
5
1.46299894306118
2.13842513292176
5
1.11442338106987
5
1.61819569769954
5
0.657013005445105
5
5
5
5
