3596
4000.36533379555
650.420452594757
1
2
2
0.0355783792726772
0.0533231020742414
0.0464626042282143
0.0471152207267418
0.0446650887759705
0.0392490970912729
0.0469986720383713
0.0520656605100884
0.0367121988511449
0.0442873402870834
0.040569556712684
0.0541124521742319
0.040590433711415
0.0513562688390876
0.0429562587474892
0.047469635893539
0.0341852494940543
0.0501684970346314
0.0447004805632394
0.045035519619904
0.0440422723537843
0.0504726962178197
0.0405111871273003
0.0484359505332726
0.0415996886253757
0.0538099577853767
0.0423851062694191
0.0479198595012518
0.0401517170321016
0.0478144393333041
0.0401181531563666
0.0518514703022037
0.0394123042728074
0.0490333130528975
0.0368778588109204
0.0459758364360734
0.036479522860817
0.0560551050735154
0.0403261881609025
0.0483295729700423
0.0507336712795779
0.0564977756403529
0.0469058747256716
0.0517918818062373
0.043658124485524
0.0491403628860792
0.0411887430043825
0.0545998911709114
0.0441067157651798
0.0464553659559498
0.0454494689489725
0.0447356714828696
0.0538933503017467
0.0585689265973475
0.0387607374715651
0.0517060254314339
0.0474811874812449
0.0487027317820059
0.0514860090534618
0.0409037426831571
0.0508147465167248
0.0588056252752717
0.0411521438891432
0.052866861484828
0.0431511061876963
0.0556377976740672
0.0365966977638893
0.0486002348013669
0.0447148511198172
0.0571402488067984
0.0399040830778685
0.0606014410686681
0.0531457112655052
0.052459239342875
0.0430238447223369
0.0555911745798958
0.043836461008313
0.0455947138945566
0.0291178333750514
0.0589700562010131
0.0430905298205584
0.0457945176151855
0.0448941341370462
0.0431263147398919
0.0438742850922953
0.0643285709173461
0.0283212077507243
0.0496410634026639
0.0517875225381485
0.0583776072906638
0.0392048726252214
0.0437896971241815
0.0401825131745117
0.0500360914908297
0.0387959577986243
0.0513266504939358
0.0403268373809103
0.0559807752925562
0.0358399609750425
0.0519595674801634
0.0377984226758838
0.0483705032329425
0.0724139015910233
0.0174207697847626
0.0683147307552727
0.0577575166555892
0.0325933724249689
0.0779125286765622
0.0409200978477194
0.0552790031511564
0.0391304677408806
0.0426107045505631
0.0354107777197909
0.0614240733498559
0.0191209607226328
0.0582610403683438
0.0538604082655263
0.048073588199192
0.0398017322616845
0.0570131302481002
0.0193197592396162
0.0562015418080991
0.0637034058348309
0.0412310277305017
0.0436477620315596
0.0457334824907037
0.0271248908004491
0.0634000480505894
0.0547828508615999
0.0575532320813305
0.0379757918028213
0.0482963302657166
0.0320455864189575
0.0287009822556482
0.0658159131066434
0.0477157777907436
0.0420369293593679
0.0256330668716123
0.028124795821694
0.0788946749206325
0.0564865985388757
0.0559754878476529
0.0199184325128739
0.0377304813783365
0.0659915738720084
0.0504153185895273
0.0327274120156626
0.0567558790427564
0.0411046207253641
0.0462685368849434
0.0389212643198782
0.0383191281835934
0.047900979673171
0.054745495684609
-0.0170120935365027
0.0668848696620548
0.0641573077674569
0.0547461060486234
0.0878034305577455
0.0387674275486096
0.0489084385744606
0.0402564585996164
0.0451890964943335
0.0410563877027431
0.050866451686749
0.0300505499674155
0.0450142348650864
0.0531594462459135
0.0360829082887006
0.0415699073083292
0.0464576105240437
0.0464998957621248
0.014384753312405
0.110989406755316
0.0427838096912409
0.0308067110188961
0.0531129818083984
0.058507995631372
0.0318364405360063
0.0428176557139445
0.0565012565887561
0.0447914143202028
0.0385057365928128
0.040911775367662
0.0366454332102661
0.0569279814845388
0.0473417744591281
0.0502134824968392
0.0401479931101517
0.0274492315678345
0.0379421304727557
0.0790898489206704
0.0670501423250874
0.046659193654254
0.0469562980690067
0.00738057144222179
0.070750527449558
0.0767210583519009
0.0471146938299677
0.0438196981826199
0.0386596045198494
0.0485379649114452
0.0403134118831293
0.0455991209529291
0.0311776239053291
0.0155095906800354
0.0727719323562252
0.050900152204027
0.0411331057390632
0.0407892598466651
0.032965776649903
0.0142637816475845
0.0709501920325739
0.0643435809521214
0.0464607526687008
0.0504791815187092
0.0373290719935282
0.0571805941065031
0.053630128227659
0.0512023835326483
0.0463471044695624
0.0454195631545764
0.0413274312424714
0.0483826044045842
0.0412713771853007
0.042536787006047
0.0430863882993002
0.0523436837605768
0.0443054979123875
0.0508172315347259
0.0540467743183989
0.0608101633333988
0.0406506699884693
0.0504497813188379
0.0288207736468642
0.0510141619047305
0.0633422027165561
0.050889502064916
0.0465718202952373
0.0495451954201612
0.0529482454661755
0.048008751769501
0.0459806651712695
0.0571479341939302
0.0461038223539398
0.0386195616032494
0.0750460893432212
0.0565768153961596
0.0549278524593611
0.0389830919883894
0.0674757029509523
0.0636930164916888
0.0560638276118066
0.0558064478175941
0.0556156254378429
0.0438074144208742
0.0399745346847952
0.0701774035900056
0.0534884009707293
0.0466719485176666
0.0609333599420705
0.0541345257406037
0.049217133830149
0.0410352316281075
0.0106743206979144
0.10816423289854
0.0429697694949987
0.0255522447018322
0.102715577131985
0.0681739438082479
0.0635742073470501
0.0500542252481259
-0.00587355771376054
0.137409100816835
0.101156398569703
0.0625978852639617
0.0468284757829713
0.063851652759716
0.0446935251284047
0.0598306715278184
0.0447894109012325
0.0732458644208133
0.0545309559709317
0.056273613457726
0.0944342526283086
0.0350732054710924
0.0677105519036426
0.0768278767402806
0.0582746687242152
0.061566072632911
0.0568233699223867
0.0435129237203031
0.0608830611339442
0.0671570964813056
0.0674537404885464
0.0710913448264816
0.0516496631648847
0.0807869074855069
0.0760347888493471
0.0625296864240821
0.0575032851111561
0.0793198039004773
0.0636847413260319
0.0727652716066958
0.0565226465825679
0.0846284010580459
0.061371807877536
0.0494951599542228
0.102659064648559
0.0810040255381787
0.058655001009031
0.0961910496508401
0.0789428774370463
0.0802783788140434
0.0720435173940225
0.0761652120669596
0.0733589222822024
0.0764325434655842
0.0676153778759536
0.104226738576086
0.0855711503143131
0.0874195660548473
0.0807973527341727
0.0884908759531097
0.0844987695124003
0.0927631717090551
0.0878265354302622
0.0930631379282131
0.0881537656893307
0.0831805793875999
0.101617893184087
0.125320404433235
0.0683528908027529
0.130746569473179
0.12383558043509
0.104594740660158
0.109619952826979
0.117373950126951
0.118197731467542
0.120788177678148
0.120426620899344
0.118900729734527
0.118521484476155
0.137656076187053
0.133828493696177
0.130375091917673
0.115461349350372
0.166778603626764
0.185039391555901
0.170099361183332
0.158045055989938
0.12595643768873
0.182311254986171
0.175131035790972
0.17845264831935
0.210257805410078
0.162123511846966
0.18678564996011
0.175647297517919
0.195638897695794
0.186858202137659
0.203108391424394
0.189783910530264
0.208380732029891
0.201310946529378
0.222420139953337
0.195761914728119
0.207954751944825
0.24306938547187
0.240725093404265
0.22545699962833
0.237064976227507
0.213926274446814
0.268177563183877
0.237573779933218
0.284075515846225
0.264178173340515
0.267799816305209
0.283617648118897
0.270419013654338
0.268082148709541
0.268703154285102
0.274957811209818
0.284474613931957
0.283364960518483
0.294345410800234
0.298895698227021
0.308161966279054
0.297747074707547
0.317200410132876
0.306952205647177
0.319042219009979
0.335544467480063
0.333409658018885
0.325395652724183
0.310541806309703
0.333969426075938
0.383064185301981
0.38130251166732
0.355368983592605
0.355678746557506
0.364115798382127
0.341615160941476
0.36660772473675
0.361149965640261
0.371486853472352
0.368468099299747
0.412475260883864
0.387723931575138
0.416515639410637
0.403660298785776
0.37775773761631
0.394089077337143
0.402774574872905
0.411728146176515
0.430704314395185
0.404926731650174
0.41532066946907
0.434467497402077
0.439354959854533
0.417465830830265
0.453437742105946
0.417817128303896
0.434418220476173
0.426982286901801
0.462266260076183
0.428105843233585
0.458494643912122
0.445150570355539
0.474209350588909
0.460630988142628
0.473394535559117
0.450951429453464
0.502500289556612
0.467282548642
0.491616280792487
0.499344082735409
0.499000278661357
0.495774337260472
0.508512303527168
0.523463617850525
0.54249915999923
0.494544975838404
0.554529426803636
0.49964904284209
0.528142600209516
0.499568618151519
0.542331989481362
0.520505403218766
0.549784535615211
0.542073908904751
0.555424413684723
0.53984877158125
0.569278435365256
0.559731515487283
0.558847896808624
0.559235294150334
0.598773201129676
0.579867181615239
0.594260816295556
0.573255602688903
0.594654631874713
0.612487949437499
0.607036048662345
0.606370885460658
0.668626914151283
0.609785875867688
0.643146297794935
0.596752983849902
0.622895223537025
0.595632646540801
0.692745584159989
0.624985684685798
0.657929129798265
0.629294967276345
0.670422940238638
0.638307314006087
0.672896112003651
0.683268269389
0.697020383402962
0.669736651461966
0.707113742438752
0.669301147487946
0.703559270682724
0.696355893943652
0.749055151578994
0.676390674442426
0.715861270989206
0.730060940981344
0.749042738017147
0.697241816493828
0.716478011453345
0.734723476493187
0.74620101795995
0.716132220688387
0.752640318876811
0.718846936471745
0.76305580856277
0.753574134721389
0.78195060416878
0.767786615057425
0.774299886254545
0.755288120056671
0.813989934807237
0.776590942461263
0.82626739571017
0.789087822341074
0.842472096235341
0.776845591965265
0.838758504042148
0.772281375649594
0.809941282962478
0.828290303071229
0.846440326206773
0.817775033992606
0.894457821374199
0.845795775880167
0.83866170062338
0.803719146781323
0.857292685966411
0.8057005843866
0.888388540549842
0.890741715600608
0.885594143329101
0.824439124018869
0.862488412936254
0.859335676260824
0.887008644846605
0.852143434417011
0.92795762443207
0.922947847009082
0.891142485927788
0.86240812744894
0.978003023722431
0.884394817932696
0.948693793003324
0.91558404714695
0.969078667063111
0.904778734148268
0.948010506278161
0.937110698792017
0.941829534121139
0.92478414857382
1.07394239827715
0.944118379093942
1.02927212406952
0.9474523091768
0.969465086707583
0.948632279298346
0.978669653754398
0.97178263860289
1.09704637350708
1.01347844022148
0.994185608082937
1.01726540839076
1.0873334045091
0.998177887122929
0.99256572520809
1.00314662584689
1.0639667160093
1.0159450374653
1.10840886077595
1.01492648601566
1.08928186508394
0.99084204730856
1.04870366906248
1.00873641644716
1.12277693084647
1.04173364586519
1.09465706132647
1.00659712528135
1.15871735822502
1.03820123423891
1.1349804058605
1.11300655423872
1.11526770911251
1.06788041933817
1.19848878416531
1.11247366454866
1.30419382826876
1.02733251627536
1.16161881076521
1.16925341104055
1.22483254428931
1.15655521819725
1.21004893204063
1.08929467047337
1.21088972104741
1.24728829128557
1.29928129427249
1.13321945246584
1.19609693952216
1.10807644000301
1.26152354128266
1.16859506053303
1.29806126476235
1.20421155215209
1.22711741814167
1.17442654269453
1.32686293495583
1.24446656129565
1.17291383795726
1.09554274148086
1.21433948806552
1.15252820970393
1.19213708582963
1.2804427298033
1.46199835778975
1.23219289913529
1.28601315592826
1.18293262713951
1.41598462641544
1.28303088207897
1.28716725138409
1.19343538023768
1.40145028322042
1.20382549691543
1.47499031670118
1.25679264367167
1.4869840449833
1.18215717389776
1.31965514627463
1.38055796276403
1.43109654153064
1.1840788766924
1.35092933729296
1.32079783780876
1.41148400355454
1.20511068016323
1.24836252473053
1.33707060258912
1.44584223025178
1.33945883579454
1.41678936572308
1.44005132280601
1.47739599297118
1.30132968541319
1.43910905726324
1.32938746058729
1.38500494500906
1.3219391278432
1.43099896397248
1.2485794633863
1.43651453973892
1.4526410983505
1.87033146795599
1.43447412382217
1.39081340962216
1.33871605318211
1.47104914816448
1.28383727071942
1.49421454075255
1.41486267911445
1.38321422289672
1.38707593875799
1.44238326015247
1.3768486192352
1.8074368863505
1.42208816454847
1.54864928278425
1.38693072993696
1.49278082197548
1.41638096400476
1.46601010119931
1.46791449295812
1.67040581113099
1.48717622454323
1.4749042643682
1.52792046835323
1.60392625030821
1.39026626644182
1.45583847125804
1.41044269243363
1.65336817891184
1.46379767952171
1.43315835464908
1.4273917887783
1.64777568742538
1.62528821901746
1.48464496475413
1.46319231851746
1.54500163953184
1.5089461220053
1.68134656088145
1.54188523417333
1.54631459984334
1.61688160706149
1.49075764029356
1.44205658304814
1.78165480644298
1.61644636907853
1.52276493661823
1.59904016928125
1.69383823293534
1.42514147446741
1.45368989579835
1.43312782238643
1.68181613862557
1.4824839898054
1.62012020289118
1.56797317810935
1.67201223060313
1.51177390885737
1.5768065069477
1.45309294405214
1.50826969617152
1.36255447052523
1.72950393092629
1.42966117111552
1.46443943858405
1.41463652581214
1.71211672665686
1.54938256751715
1.52753714921107
1.46976617457598
1.72082020801269
1.51800860937496
1.80882659992062
1.44949590592648
1.6531768518145
1.50042243278551
1.59861370360567
1.55316087203194
1.53624785312143
1.58760986527786
1.6451100947479
1.54537054136449
1.63597697964623
1.46355271842361
1.55339651958313
1.59641373634621
1.6569926928554
1.50014840520459
1.7017779150531
1.4465544363042
1.56000365304606
1.42452576838736
1.485671613287
1.50845749438736
1.52878723867213
1.3664531520525
1.6689825545349
1.53629099174385
1.56183283125229
1.57499291989702
1.58262273761994
1.57504431288969
1.56713960703822
1.60656205600868
1.69940523273055
1.51165148634164
1.60664986898522
1.50452443503759
1.53125145400121
1.44018767186857
1.62459550244325
1.5028586244535
1.59049159638881
1.51651672244532
1.55751900325951
1.51585741487407
1.52985831355844
1.52945828098204
1.81421372523644
1.46056724361088
1.69567336402877
1.5656212889229
1.7298897259886
1.5597334227787
1.48044937811684
1.42134143819211
1.53847648298745
1.47846149585959
1.53501040494987
1.50126323823181
1.70848998454395
1.51257951835102
1.49848426190093
1.46286182522588
1.5286437807967
1.52342991338017
1.57122805524065
1.56521383671115
1.61739483567695
1.58912843688909
1.73277010102668
1.53979486600027
1.65763112185988
1.37026245349129
1.64685534813758
1.4867219570259
1.48974255281556
1.51286067179004
1.60699446778843
1.51032809741323
1.58638025059544
1.58700178376519
1.7306668410736
1.4564041195584
1.61738678075233
1.62999159884803
1.59814970266041
1.43183596699742
1.48578028438967
1.46030452365053
1.56242777809795
1.53727351697239
1.56988318240772
1.57443236541606
1.52559424736733
1.53069750447141
1.62292183603935
1.47744724061979
1.52387076816831
1.46867195820001
1.53183185023982
1.50936833138802
1.56669659645258
1.47926899587238
1.60086507253184
1.49162136538044
1.62848750939345
1.54328254736466
1.43490094676951
1.44898833652779
1.542469183312
1.44427913393488
1.46730042158822
1.40874391863216
1.62283434501122
1.44266222254844
1.47707789621087
1.48445433356583
1.46056583529058
1.48771411045555
1.54341918594764
1.46635626028503
1.63122133005144
1.4577349122745
1.55553766695489
1.45288028574426
1.56962411618403
1.43515053668882
1.47873962559672
1.46696898838702
1.46317303273665
1.39889396965386
1.43652032712132
1.35420789979647
1.48506728414293
1.36813906445137
1.43766688133542
1.3738932915909
1.43236931131477
1.40375826042122
1.53294501461231
1.35508317007472
1.36646463327794
1.41436507040006
1.43379526235226
1.37415345683292
1.40071688274936
1.3710838775305
1.47851582270984
1.41875090304309
1.42169324995541
1.40060485331879
1.36405292278362
1.35430561100992
1.45746488001185
1.39349112878849
1.2747079318394
1.30373011996061
1.47111815715238
1.34007746320095
1.35688560650706
1.2925694077044
1.33663569567037
1.27513062265858
1.34282193761427
1.28788234775749
1.35433066030357
1.35437253528188
1.36126445505314
1.25129396688143
1.30237070848552
1.27113067504107
1.2678053109922
1.23115596061935
1.27343505691626
1.21666396298349
1.29692703851007
1.24425095060709
1.26135006372822
1.23829158920212
1.26940812770307
1.18411820694191
1.20334469779091
1.18128872408526
1.2213911817062
1.18399125427771
1.19767923632816
1.16738632880793
1.19409880293686
1.14725227299512
1.1593995416845
1.1521435617296
1.16646031464712
1.09981475117507
1.14405626492432
1.12435233233051
1.17319584640524
1.12723614224437
1.14630030558901
1.14320241983654
1.11262828069591
1.06726635493267
1.11103461120082
1.09277755862245
1.11223661149266
1.05206780718055
1.07760180396743
1.04947837482263
1.05367979995938
1.05853671421812
1.04483195962616
1.0317505386359
1.03939638001644
1.0186158509773
1.05178048952758
1.00720712289237
1.03942235716457
0.995587713460989
0.991409910017396
1.00258780059821
0.993024879836257
0.959990543301074
1.01969325771127
0.966980208331348
0.985355441540026
0.951031770874616
0.943939382892699
0.920509674752077
0.928582005778013
0.919047347074731
0.941211693538448
0.923191667441708
0.922685735330784
0.908000515447339
0.925922129465988
0.915986005847957
0.907177660811546
0.873796679053173
0.91063426908311
0.89608571501556
0.869304448568516
0.863579272803983
0.882731203078798
0.850002776033259
0.855259793698908
0.85810577628941
0.839357341723558
0.822359631698231
0.845054509477784
0.827521731380009
0.827107440677998
0.824276680346061
0.827998105028081
0.804618811820509
0.805525386114605
0.809059301362637
0.796417271435727
0.770728436081973
0.785798122835972
0.782975634605527
0.787357034661903
0.773506970865787
0.785465958384772
0.753481959010183
0.767817470920554
0.744384720452519
0.736794713717571
0.739704929723613
0.742218472441169
0.728498703958546
0.732294065422753
0.723381282643036
0.724636324565175
0.701671666453496
0.713359134592158
0.704074296864427
0.706738289827384
0.687131435881645
0.693509877484324
0.686309258172736
0.695777452593117
0.669517449504415
0.686117865910929
0.675797175478253
0.65896456735618
0.650775416859472
0.653740068566784
0.645833891593089
0.645824526839411
0.641531780118266
0.645286027087436
0.630721035536361
0.629640430100708
0.614258955136677
0.629462476137933
0.605698669079561
0.611751348486724
0.601954653630344
0.610089509540819
0.604270067182855
0.595032494152915
0.581472251823405
0.588342709697707
0.57535368488108
0.579586768563777
0.571176029452628
0.578898001244496
0.56865692913017
0.569262628487884
0.560745591548707
0.559859871616325
0.551944676038591
0.551583730493967
0.537723236270173
0.542083384937019
0.544381004890755
0.545757633631563
0.522944722770524
0.521190413437921
0.526252450357506
0.525633369378646
0.519900090472648
0.526368030397162
0.510224341372863
0.515145754030702
0.499529852016581
0.495570887711365
0.49254137701658
0.496669994686007
0.490313485228515
0.485087764526278
0.476875486560919
0.489950928595031
0.477987285532151
0.477542160105142
0.468614230631796
0.470453592988226
0.460045189993421
0.467872056652941
0.452768091151747
0.456671742361429
0.454064544615857
0.450336440255662
0.447225504229828
0.450503725285669
0.440664092406046
0.442784966658955
0.433284807307145
0.441373012486205
0.426730688632828
0.429149797503111
0.42640309364453
0.423811289955697
0.418293626774128
0.424953834666434
0.411068504506859
0.414048638422623
0.409718765885461
0.412835586525991
0.402602513774538
0.401498618651287
0.395992021791999
0.403189441781392
0.391396911033934
0.394410295480232
0.392366534446367
0.390302732665001
0.385037437669391
0.38949986906886
0.382120074081743
0.38195371847748
0.380442167365396
0.38133595569016
0.375143245012655
0.375525959381549
0.371942932638824
0.373316768974324
0.370842591455064
0.376354846691903
0.361965880022093
0.359581243137505
0.355430666318658
0.359326762551623
0.355291033697907
0.356748940664069
0.350270967969165
0.356733315884131
0.349332405975542
0.350060866365447
0.34882203038126
0.350114983064062
0.343463063571583
0.345657610570892
0.341458697785095
0.344501264930824
0.342712240345603
0.343587845985883
0.336170841811177
0.338244635989191
0.334487723620128
0.337724140709632
0.33216472424229
0.33205547694696
0.335043713490992
0.336843679993522
0.326888446091848
0.326751077197163
0.320805393010755
0.324099247938676
0.319523036529553
0.330729202798253
0.321072034789865
0.32731562767451
0.324800779215238
0.324900929534604
0.325123730482507
0.32485470060761
0.312821635886861
0.316970002857454
0.320140666828855
0.320253067082946
0.311252029706551
0.314428008904766
0.321239441915029
0.31938517980124
0.317904043430818
0.324264150435523
0.315945313646675
0.318157002314682
0.312834282625764
0.307884883672891
0.306495921763654
0.312850449255246
0.30995602962493
0.311605516905007
0.299024664824033
0.299631537767387
0.298130739560792
0.299532945372371
0.29726912286499
0.295215616140559
0.295519265496931
0.294866275631826
0.294300605204295
0.295155122501526
0.283472719023806
0.289306658053943
0.284804365805394
0.287897098182184
0.283344418045546
0.281490595620724
0.280246303551455
0.286213990972203
0.277371138321295
0.27730715051233
0.277063025852365
0.280900822618626
0.276663635778302
0.277848299858396
0.276692973720385
0.27766810738116
0.274405325435313
0.269518840372422
0.266554291942565
0.273692580904461
0.263539623755889
0.273859451458046
0.267276093094579
0.265163801540512
0.260027654765726
0.265521062437058
0.26389284958511
0.261921606770302
0.260805309131072
0.26520597083475
0.260693192332893
0.260725063369542
0.256039456245755
0.260613622503716
0.259293601537632
0.256985155774146
0.252644362909509
0.256640984854205
0.253373329909542
0.252475511256423
0.24781420279283
0.25293330823582
0.255748798926749
0.251481069169094
0.245558468993986
0.247278529378885
0.241960851787317
0.245335755063059
0.243060631283208
0.241666143627513
0.238952889492609
0.238043438897045
0.235836068537132
0.238770962910399
0.229276537575081
0.235033150784608
0.23623383381806
0.233178528585045
0.22727765780904
0.23271910576618
0.227748923075958
0.22379535778632
0.222405905514909
0.218443587007488
0.213638009991987
0.219695568199218
0.217987465015232
0.218484899816546
0.210555289593748
0.212749497402911
0.209275101611751
0.20986555718335
0.212325310173554
0.205845141714962
0.197525910490707
0.203438776713048
0.201073046551026
0.199630976162324
0.193466049667095
0.201756387116762
0.197008873546043
0.194924377732916
0.190805518430756
0.197300638580213
0.190943299932352
0.18682820217564
0.190195927703882
0.189006844607299
0.188720463373364
0.189394379921568
0.18716587299519
0.187139208345055
0.181054079517157
0.179971399836294
0.175473661300848
0.181373175423721
0.17978830451826
0.181503275313279
0.176621090665805
0.176051100535976
0.177187901532559
0.178913201152375
0.177375779075815
0.176200821233987
0.171543421437063
0.172404199901373
0.171205287059695
0.173599425055343
0.168211476101977
0.170005988981753
0.166630470504929
0.168721380360462
0.163495499386207
0.162210397271353
0.162272837133402
0.167626473291154
0.165527457942828
0.166584374970293
0.159887980639533
0.159352600801783
0.158864147238919
0.159531148642183
0.154355217114931
0.159136853851052
0.15684686154788
0.152345721298067
0.153468098597155
0.150865357339382
0.148439554453153
0.156526863773641
0.145977904673897
0.149181716446856
0.150116293452554
0.149312928321698
0.150160668962399
0.15298007916802
0.14708251069961
0.148540138915386
0.142587552795108
0.14669973474688
0.146057065092564
0.144960383334995
0.143459276849835
0.147130528197638
0.145566940304815
0.141882527404294
0.138713404920194
0.14374497355342
0.139282886123207
0.1386069099221
0.140720401091008
0.141854165625566
0.138319852420775
0.137484710565292
0.136225581015431
0.140915253631331
0.137634910113501
0.136762978145786
0.137087656160034
0.134712086624328
0.13212178354688
0.135805575756205
0.133232106219485
0.134105071286056
0.132510850239954
0.134635600800682
0.132254162663364
0.134107206080972
0.131352190757743
0.131063239950905
0.130746549537368
0.131882659097227
0.127879938065044
0.132272129963854
0.128812356773852
0.129896366756657
0.123730312300325
0.127979300226088
0.125326961655717
0.122839919392423
0.123129300693535
0.1267770710876
0.124904440089671
0.124806809951856
0.123897430807816
0.127669155152371
0.124996799933523
0.125598175665433
0.121940485229897
0.119938968254495
0.118750955215215
0.123842374976874
0.119656081826595
0.119112737395414
0.117224675118245
0.119296482213536
0.120069205702843
0.119860904249007
0.117743337843623
0.116439242816734
0.115006619343374
0.119021379587348
0.116277129973101
0.120067597428111
0.117256191939356
0.118924974179472
0.113840774599164
0.116352915162398
0.118045191651422
0.117014580599997
0.116426997790241
0.115956183251348
0.113162599752183
0.113845000620595
0.114253420717201
0.114176492562397
0.112370729237027
0.113983224969522
0.113033081656802
0.115457770967863
0.114524136125932
0.113483269413503
0.110886678074317
0.113685037422584
0.108930826237252
0.111575721459652
0.111277577444274
0.110812962396336
0.111448666899673
0.111736905164318
0.108875438558062
0.111123095827521
0.10870389345714
0.107657550260449
0.105069511376148
0.10808678583194
0.109300369164072
0.108310730954393
0.104684293754114
0.106091802718633
0.104355739286293
0.107956917209416
0.106253302692077
0.105062529905267
0.105144382515821
0.107051639306471
0.10311782485366
0.104518248029198
0.103291341896784
0.105229981904353
0.100641639641032
0.103058701002152
0.10218820612346
0.100589357183252
0.100316308681163
0.101935358081644
0.100855495379932
0.101590211282226
0.0973308632390703
0.101815133198028
0.0969424627247886
0.0943354690813899
0.0985287035215121
0.100712748425559
0.09552188123715
0.0967314794049568
0.0978055791915221
0.10042822630131
0.0976923313157902
0.0956926089396563
0.0962143648477952
0.0959898628430183
0.09544263864236
0.0979884720651183
0.0956214023610672
0.0956841677050466
0.0922813175444
0.0941130097058234
0.0973111252180678
0.0982872042423771
0.0918112383428847
0.0971525374955133
0.0949824108979548
0.0929086706821892
0.0928380389836545
0.0957782833117008
0.0949286514632234
0.0935572774182597
0.090932384981167
0.0924485457329486
0.0908446073258509
0.0919094433570701
0.090394534090665
0.0949729224834668
0.090623283013213
0.0909120756889471
0.0912057594658664
0.0902790264235793
0.0889860161602049
0.0859194729588751
0.0896813447385698
0.0883380200319608
0.0852053197893274
0.0871933288340285
0.0876023588873702
0.0889187244919297
0.0852482964497276
0.0885430583971962
0.0881915858384079
0.0869683617804527
0.0847542865695385
0.0877124135120802
0.0853000377334059
0.0856813301180825
0.0838040482753748
0.0843840726823538
0.0867344957556173
0.0832131146876883
0.0845162267850714
0.0856410674306133
0.0819415679051127
0.0853327960072948
0.0800566722957799
0.0822369254171553
0.0841457452982317
0.085898255033554
0.0827218063592491
0.0842506519606282
0.0850977782326781
0.0836789343984714
0.084763886051705
0.0853601258896735
0.0818123308464514
0.0846259848083715
0.0831456519523147
0.0822327740070927
0.0815794883139781
0.0831475600869057
0.0846067975719841
0.08515533523725
0.082120935290965
0.0820262483925273
0.0810748019369504
0.0822576751463219
0.0819253129895519
0.0842923511651526
0.0855802413754228
0.0844125790010603
0.0831387414182032
0.0832332985826771
0.0820263537352129
0.0810010224703089
0.0796614688813723
0.0834020003629649
0.0826568663260888
0.0838301139115832
0.0825863367542536
0.0826192693104582
0.0826485732390044
0.0836195613686755
0.0809313831437321
0.0824853861046223
0.0819605277153176
0.0829121996011463
0.079112664281902
0.0778336038390295
0.0808500323141774
0.0789193976999359
0.0773221893184801
0.0796330301748839
0.0809373170677013
0.0810634788051282
0.0804541706648526
0.0807881894165804
0.0795469920621005
0.0820140147946767
0.0790562206186345
0.0792134498178992
0.0776702968957042
0.0776752700098943
0.0812704390471674
0.0813412927401308
0.0785068263139307
0.0792176515506583
0.0777446111343503
0.0824060308011565
0.0798093032934943
0.0809415798418299
0.0816884617999988
0.0813241313230685
0.0798824693570721
0.0780956119895738
0.0810103552335796
0.0792645427538155
0.0769102886261721
0.083312230238079
0.08154054841819
0.0818904327866364
0.0780930542762048
0.0805575740230841
0.08308447925367
0.0825260398588862
0.0805115618400549
0.0827747045781374
0.0812568711040394
0.0813549493642243
0.0807545099827158
0.0822572597605577
0.0801227555755582
0.0796503405293121
0.0800037547335202
0.0792006497996083
0.0812694497745895
0.0832629843202689
0.0807308889431057
0.0813161305653977
0.0838589094606809
0.0823667495474927
0.0787665997347793
0.0791506872299866
0.0805233091129461
0.0782092123816975
0.0774431310039192
0.0821016333907885
0.0812607901305063
0.0811116763767316
0.0789408734829829
0.0809859176527281
0.0809561640833259
0.078931402950401
0.0770553322801818
0.0816822090030969
0.0785190428465997
0.0778097081639251
0.0779597731949418
0.0791847480988845
0.0806390836216565
0.0777417166241769
0.0798295044719051
0.0822773250240844
0.0778810849467299
0.0768550030205388
0.079826685667695
0.0795304366517155
0.0830460430212048
0.0824000775183886
0.0795440063491729
0.0826260072951422
0.0813320652421635
0.0815925127272583
0.0806465016728987
0.0796962840744586
0.0833735615383614
0.0827079753727385
0.0798215433630917
0.0803121366426759
0.0785074569085566
0.0807179034626049
0.0815133424539035
0.0804145868487823
0.0803501536680136
0.0814999631490107
0.082564240642234
0.0819875815093577
0.0802869961067436
0.0805133958777861
0.0847542387332928
0.0810968790587127
0.0824300967770742
0.0843628188243448
0.0814574805364005
0.083343726593183
0.0823489780715937
0.0805818444367117
0.0804852889675668
0.0813167162365549
0.0791035623879402
0.0802003466094698
0.0832219754100581
0.0826187214527346
0.0831331129332946
0.0821870452330661
0.0813228306943429
0.0826169619151143
0.0826686416338879
0.0844276853507029
0.0819593444591096
0.0792378145420585
0.0793254913696057
0.0812882565612804
0.0816974202949981
0.0852316243223153
0.0823485010495617
0.0781479741323963
0.0795005226619952
0.0799618008642087
0.0808050176283504
0.0810270465784931
0.0823029699310149
0.081014168521294
0.0801903850573717
0.0823877102281905
0.0821067419547568
0.079532325876407
0.0819825743456549
0.0811944829724038
0.081216663843813
0.0813850419872294
0.0826605365048633
0.0853143164966334
0.0852368399384773
0.0818423321453669
0.0828182503827948
0.0796736282528735
0.081794315797438
0.0836136400954538
0.0808540372594311
0.0808769726191861
0.082631142526459
0.0833427043596779
0.0837830092784492
0.0813924964763188
0.0824686949395432
0.0835567551109458
0.0835041353787016
0.0823004936557528
0.0836884854674071
0.0840888849859174
0.0835387828572282
0.0841611523178707
0.085809638819929
0.0854211304316537
0.0851519181304792
0.0844104569842913
0.0850826049670292
0.0853603056481346
0.0846323014688082
0.0813425642628241
0.0823629858450166
0.0840382329246439
0.0841002236185943
0.0840776602162198
0.084118150786372
0.081951149504087
0.0843873174397098
0.0840322281756285
0.0840192150338576
0.0853673484109503
0.0860786229321645
0.0843717773054648
0.0845309325853614
0.0845369873048519
0.0868959435397342
0.0835820014682157
0.0842115924323543
0.0842947961659559
0.0859368004094621
0.0849072716274093
0.0855909175213228
0.0859925790474369
0.084674016562067
0.0855076759646238
0.0858615711116423
0.084739170559424
0.0852928222477743
0.0850107992530008
0.0868955905773902
0.0862199745528324
0.0871749123813281
0.0877413824532429
0.0879661294893273
0.086128042509105
0.0870326185033318
0.0870260420222916
0.0905425164068944
0.0877157418310227
0.0883706253269554
0.0892090846352292
0.0875120237678941
0.085079965268452
0.0901754782400782
0.0896679018267438
0.0899331746762462
0.0885706015818335
0.0933641474888835
0.0924536721767296
0.0903579614383239
0.0900954410390212
0.09297397529897
0.083214274079257
0.0823743296808571
0.0811458043741602
0.0927520639404051
0.090877854815333
0.0866846362841314
0.0771518932121189
0.0863019257875268
0.088083696940092
0.0891538585909571
0.0849690536365165
0.0937858997602827
0.0873046714275195
0.0925562616537208
0.0864339317699471
0.0897707225494193
0.0837645046538674
0.0946034748660192
0.0878148133701261
0.0949871941803924
0.0917399402469273
0.0995437448611107
0.088026033164138
0.0934209497567517
0.0883966764989001
0.0964185496156097
0.0902130403997679
0.0976462227174868
0.0818758334710796
0.0969702079429926
0.0842328410567618
0.0995907443150468
0.0894383564597764
0.0992525561347345
0.0854613090335967
0.104763856326826
0.0821313729493052
0.0958840924729255
0.0773300905291983
0.0964901990431889
0.0786529568541381
0.105436600425441
0.0890336712457633
0.104204907701902
0.0815389468542812
0.102421353418879
0.0861648322345935
0.105534565934572
0.0862213336901319
0.0965354838845396
0.0908656942278974
0.106420193085351
0.09928267906067
0.0921313598278651
0.101289031057723
0.0976086449491252
0.10277086566396
0.0882040063007138
0.114059868135298
0.0877247762897721
0.110047894844667
0.0928911631075391
0.11252834390301
0.0876768601398309
0.111066550645382
0.0925700354190052
0.105499336612431
0.0961043332492331
0.106147690730262
0.0970035105828844
0.100804767213241
0.0983621754958083
0.103129952466218
0.10004938720182
0.104285068905154
0.100328171436928
0.10413753396656
0.0969051096140682
0.104804437162665
0.0979496153990094
0.104628620458051
0.102306895327213
0.104067954915731
0.0982776870720563
0.104175826053523
0.0985733593880019
0.101324497264474
0.101925655659873
0.10595693457497
0.0992037973877598
0.104223790980131
0.102217298546586
0.106045276659367
0.101369173482696
0.104448050182957
0.102929956016754
0.106694409223799
0.103570915750631
0.106585164554659
0.104922154272864
0.10573607254379
0.102700849672588
0.107009521039922
0.106377519865242
0.109038736860387
0.104015647657906
0.109396494341933
0.108092336376104
0.10821078591421
0.106997366796771
0.111400413965856
0.107623433275105
0.111982971812465
0.108610233230799
0.111866995502373
0.107907829091464
0.111013479393932
0.109032052745329
0.110932112467985
0.109058333864702
0.111281413300629
0.108842701794749
0.112395955348628
0.108391083054875
0.112553761538839
0.111685939266701
0.116186178390083
0.112924420186176
0.11312305823594
0.110069336467528
0.114059736094516
0.112582430437093
0.114687379878543
0.113993281052596
0.114723274700244
0.110681658892764
0.116087863643192
0.113890329494083
0.114955466600595
0.115693986328663
0.120096620054656
0.11648284028426
0.118924748676127
0.114559433281386
0.11852809248029
0.115762199878629
0.116927593691667
0.116201009663163
0.120322191955637
0.117291817923898
0.120489892985478
0.119133622240232
0.119447331528667
0.116287515833084
0.119526282504833
0.118058596467139
0.120674856166355
0.117817996702199
0.122498800194695
0.120115458931432
0.118997747646977
0.120354124743282
0.123246473262644
0.120591330856898
0.122683566122913
0.121294802910685
0.123473984191649
0.120267772263334
0.125162436231836
0.125711488747608
0.124892036150228
0.124884380233627
0.125127408540099
0.122815661037491
0.127186461532916
0.125450883463021
0.126983172371417
0.125939601279111
0.127830346532793
0.124631135028142
0.125918019254559
0.123674026112723
0.126972998414253
0.12569049874463
0.129270313817187
0.129403144992597
0.128481358043218
0.124439244973236
0.128431796890918
0.126866905457378
0.127169225845053
0.125518272854578
0.127534493812209
0.129108116123987
0.130119530705502
0.129080044536453
0.130573406640856
0.128476464010569
0.13030848689485
0.129815241427871
0.132245093845514
0.131983236599874
0.132854523494323
0.131745423403226
0.135216037759366
0.130278567960898
0.132571088154943
0.132449922352957
0.133373814752682
0.130996152069978
0.132212791466983
0.132622550957382
0.135255661920226
0.133834253991102
0.134472440903505
0.130133402341355
0.133436966032283
0.134839240130444
0.135556150235571
0.134288544453408
0.133761937247635
0.133258216241209
0.135477058854151
0.134000485855595
0.13453585142017
0.135367701109264
0.13777530507878
0.134701155298622
0.137275670703822
0.13493622233737
0.138248149139385
0.137087164224997
0.138587350394696
0.136652689385148
0.138794804048699
0.13669224511157
0.137412867432557
0.138687968100695
0.140002011128865
0.138088174291075
0.138985136402265
0.137723466791483
0.138741756222387
0.137758980972306
0.13952744853981
0.138944297049367
0.138335187937372
0.13750192705973
0.141695592164827
0.138553964537021
0.135821600531434
0.135701226261394
0.138015887002972
0.137739339949168
0.140051172767264
0.139515859488211
0.139754765192882
0.137222382814924
0.139624784765609
0.137221857893892
0.13819863704843
0.137101717236116
0.138635492216489
0.137066748720334
0.13872569030088
0.136834748804377
0.137043384117038
0.137673783682787
0.140065963766146
0.136810079622531
0.136387677290635
0.139907675145173
0.138252760393563
0.136067028884147
0.138694163860606
0.136752862160512
0.139634354642119
0.138689460307764
0.137329513509551
0.138918495299617
0.14098918092222
0.139326665470917
0.137921441459597
0.135728150118326
0.137674049123757
0.137557395855958
0.13818387184112
0.13751877372291
0.13991061552821
0.138897499901648
0.137773535053866
0.135744679387467
0.139514418791829
0.137306382636973
0.136736861725418
0.137232895319345
0.138841351871183
0.133614520337915
0.136081639277424
0.135292265154874
0.13787999240283
0.135635663568356
0.137805176160168
0.135049066745317
0.136556368599233
0.136199553679902
0.136414475774838
0.132492121835411
0.135616987063873
0.134434872683127
0.136724269542011
0.134388113915754
0.133949884189495
0.13311471194704
0.134811530418437
0.133892846280828
0.134838006504281
0.132625150939627
0.132264984144551
0.131601447650371
0.131038439502978
0.131288956459571
0.133250749723886
0.130858343009996
0.134139980379707
0.131767966441265
0.130897751756788
0.132643934936714
0.132709128912939
0.130291263390483
0.130584556633896
0.129332731011499
0.129852411772249
0.128677026944084
0.128311424401296
0.127439708834928
0.127992187782498
0.127925417360891
0.128615095411141
0.127708121447012
0.129818406529828
0.127292319984162
0.127932861137322
0.127065981759861
0.127630133084538
0.127577014820262
0.125852444660154
0.124319844539831
0.126204616121405
0.124919915363989
0.126320628764222
0.124850781229269
0.125358522693034
0.124560656848395
0.126351508596628
0.124216063624741
0.124432508369773
0.124356465151985
0.124397042641745
0.121876445859461
0.12284476255341
0.122430731035993
0.124596734753805
0.12111309638797
0.121359023833664
0.12084801776074
0.122093900559795
0.120541726859659
0.121049359223097
0.118874799998383
0.121702107894426
0.116881396092265
0.119235117393932
0.118580911192016
0.117356457513886
0.116652229164903
0.120766304640521
0.115864713928611
0.117438658625118
0.116974609422559
0.118208809880057
0.114052958366037
0.116515361598337
0.11548712913368
0.115623426386104
0.115006885406444
0.115603729077034
0.115462335268309
0.113409341972858
0.113140221306693
0.112858357978825
0.109881215605258
0.113185945450543
0.108845889822246
0.110394192092733
0.112680394708934
0.11123356065213
0.110688838171682
0.111483744634093
0.111219195263825
0.111200223446339
0.107879251230324
0.110346514524957
0.109256739850945
0.107163209384951
0.110374893579099
0.111892188674943
0.110992723347161
0.108376827003812
0.109440877068789
0.106061466370962
0.108399447478063
0.107467860364211
0.108638956346278
0.108226529964243
0.106038663868148
0.107886417526251
0.106420167143219
0.104373741526355
0.104347769027083
0.104586574345706
0.105788998959408
0.104700206582013
0.103152053080983
0.102832853013014
0.10376846179215
0.10300591027641
0.10453729469753
0.103209373980645
0.101749701313051
0.0992790295387318
0.104202680540359
0.10559301618257
0.103757160619062
0.102391770451417
0.101041643442741
0.101399943113556
0.100840049141035
0.101530610900132
0.100324001231469
0.0995847947864643
0.0997057781542076
0.0989704871094027
0.0971571451939379
0.0985945136600541
0.0963458834365367
0.0989689906651036
0.0983317154456005
0.0957247355328022
0.0973786027456832
0.0975019485135818
0.0966550974472875
0.0983746551648641
0.0963453232646071
0.0964986693027809
0.0951179937171224
0.0977331071200934
0.093727578704007
0.0980130900075941
0.100364371841572
0.0995317596772476
0.0919296160176014
0.0968897036605039
0.0925686424774304
0.0933938793149949
0.0923722410039632
0.094109519648956
0.0928808743513273
0.0970135828736952
0.092827792300258
0.0953348998861753
0.0934780085595536
0.09612103119254
0.0936406043794035
0.0949837466574274
0.0910924266970915
0.0959065744361994
0.0944934360166552
0.091819337420007
0.0921762487145341
0.0985032447073952
0.0932777280949859
0.0958302347893218
0.0878268864175806
0.0932708745685243
0.0972476593217128
0.101494308634787
0.0910535013032337
0.0912280073795941
0.0928407332360879
0.0899450288511026
0.0921428517153281
0.0896390985975092
0.0909877016861447
0.0916851358677582
0.0930633458943554
0.0907793532649037
0.0946206940770894
0.0924086632854118
0.0920883333218975
0.0879319376909178
0.090933402247467
0.089603269946195
0.089766473760605
0.090619189746461
0.088892372542573
0.088164558244033
0.0888955848330951
0.0901081424209148
0.0915779627144026
0.0925352581638406
0.0911993271531977
0.0880172910219069
0.0908759829431123
0.0855003935270323
0.0949629520695284
0.0912353486852584
0.0940515020989151
0.0869897932545768
0.0917449625429131
0.089453068012127
0.0898546974630537
0.0892494552452652
0.0887767955857605
0.0877381069926105
0.0902256673801152
0.0900085852806339
0.0899891363487938
0.0883000251579671
0.0901324210318278
0.0870048452673156
0.0864086801585378
0.0908211861565873
0.0887306557608908
0.0922614454147942
0.0874463022298229
0.0902037341882659
0.0963023366641271
0.0974584631164424
0.0967206467089681
0.0950716427479109
0.0947779609627723
0.0899231414427322
0.0934311914524905
0.0876265873897759
0.0923939159438759
0.0858224956142307
0.0913028898671589
0.0886442499034194
0.0914974146744198
0.0881738004324291
0.0949170432737965
0.0868835107615106
0.0904270158008202
0.086434046696114
0.0935537858192044
0.0876704488138975
0.0946284376752851
0.0879281369636559
0.0940773051196923
0.0873673709601077
0.100037319571398
0.089346346613331
0.089378146670325
0.0982408670457757
0.102684587772697
0.100831384755655
0.0897009896020465
0.0978386400048216
0.0876645104075011
0.0917975923778112
0.0916207901029116
0.0944426299961904
0.0925080789735956
0.0927719086811721
0.0892268817545018
0.095002291455489
0.0923022083139105
0.087403658848015
0.0964265837503202
0.104594370841866
0.100848733372137
0.0939483384571075
0.088536498622815
0.0990583557186363
0.101659406183353
0.101579072548674
0.0900937515465197
0.0967981236017312
0.0955028214758614
0.0969752272290543
0.0952685341112237
0.0964000687657281
0.099675425351216
0.0973120567810814
0.0974571722556713
0.0969506528246454
0.0991498847250711
0.0946554967225033
0.0971677891027937
0.0990670141220292
0.101083742595618
0.101462288836603
0.0990737058281911
0.103081111791954
0.100979698301034
0.101404748804189
0.100114668579984
0.0997206901270292
0.105729039751834
0.102219281954267
0.104693563222354
0.104674583224257
0.106553080012128
0.103579175328379
0.100702302776282
0.109631567416951
0.105925145403636
0.0981012776841046
0.107509606060672
0.105346943695817
0.125956105452377
0.101675436018659
0.115862213983073
0.10005015754062
0.115084631496865
0.0977233271319329
0.112135523064757
0.103938101966646
0.116665681583223
0.104818256604048
0.107359879962874
0.107890926357103
0.115256950235143
0.11317579206578
0.110893841819644
0.113857592214538
0.109084576816725
0.118176846676016
0.110892812378498
0.112611351208379
0.117674702506992
0.130335848992894
0.128268197074134
0.116588495988388
0.122265450548452
0.121953423880689
0.129515380466665
0.116486423078937
0.119841334929478
0.123724355443325
0.117190656762645
0.122360017330562
0.132965450695397
0.134409214301087
0.12626479979356
0.123052157146243
0.132260028636236
0.130999714497127
0.143048393919772
0.12709736688329
0.135169823642849
0.126754042504314
0.130441454094123
0.139042507514481
0.145623714453326
0.144040076631745
0.14154090003027
0.157404931949082
0.145055731604738
0.153569158675368
0.14055053415928
0.152222581721507
0.1507817222454
0.155354925266075
0.140126963993888
0.161861865222887
0.157127293929363
0.166385432488291
0.152131174385721
0.1609746149311
0.145379927569378
0.173535947781232
0.191224920164633
0.187104819176349
0.16732711293504
0.177286846969466
0.17826031396929
0.183576950752748
0.17751259015062
0.181889956596481
0.181694288773837
0.184905576919666
0.186410490670477
0.194671307279998
0.195481270782385
0.199413545078681
0.192992960368736
0.199897228350041
0.196961219685097
0.248237725455793
0.220204219621529
0.232561826615016
0.216081564747664
0.241869213256963
0.231654285567695
0.234019887984711
0.233589771917447
0.237799883830241
0.248019138403101
0.245905321064717
0.245795402970395
0.264824810459687
0.26287736042917
0.2855233486448
0.273405044860439
0.288148381523805
0.253540332717462
0.29741947781903
0.325213899126008
0.337757604051464
0.296307518346589
0.299035386147087
0.313765720825858
0.350359493165638
0.342483556724337
0.324643808795509
0.337846724792626
0.339863665024637
0.347785626244509
0.359503407210466
0.365167281890339
0.380484266106378
0.377008074148362
0.374865263786871
0.375567612229939
0.418529581144143
0.449232770579636
0.418888741030628
0.419476872966043
0.426080780809199
0.442752904541801
0.439920142515231
0.447389639999858
0.435412700287075
0.460831446291353
0.479483299442621
0.498114468498043
0.464081294192126
0.507290203510273
0.484842879523678
0.504736637612966
0.508867389407175
0.549719902781496
0.530036486733401
0.53665601488107
0.545139301535936
0.539463009550065
0.553452466759173
0.574963675086426
0.594960765784314
0.580059368451209
0.583015764755066
0.590064688834361
0.592935574613863
0.608376891292183
0.595463767694799
0.615467538062834
0.610279105604249
0.63190428032221
0.7292609532654
0.663281113000572
0.644672444328759
0.64084119206642
0.645835772594101
0.668684765215412
0.673905300011743
0.702861159483997
0.694982786561916
0.668399855707235
0.664047163251468
0.685544911547445
0.6819502373933
0.692864205464203
0.674696509441593
0.693169538693955
0.700797383317959
0.687280522377227
0.703027984120957
0.782898581817353
0.714124355432065
0.676059219376536
0.684786603642651
0.677347723005851
0.674198270482645
0.657810928513122
0.682881263253328
0.677586565301202
0.680949693652024
0.647098229466676
0.644879267956912
0.657162873288144
0.669666013693851
0.638844130999352
0.617010980207667
0.623373810738287
0.622798043429781
0.595465191101313
0.603308965306917
0.643946141105933
0.600727855526843
0.566515479575477
0.577307688104871
0.567206300625401
0.551726532577296
0.540945260164999
0.548846198486751
0.534512073293512
0.535788182926262
0.523927075184512
0.516416404744712
0.507124349872486
0.500496559392636
0.490339038104407
0.491217591896874
0.483958848722719
0.474650423928237
0.467816004079248
0.465797264309004
0.456767105653888
0.458264665051301
0.448762110830411
0.444669096409016
0.437744409961288
0.434755217748259
0.428404470322493
0.422382789950148
0.415671112126711
0.417776306025941
0.411756483845069
0.410126178461556
0.408290246521045
0.400739835708502
0.39495454599772
0.389781570776537
0.393455597700121
0.386244476300117
0.383263757191054
0.376784540434236
0.384281193656774
0.363755380656528
0.362922166107735
0.380624003616327
0.387599872791901
0.372907238494455
0.353079552748793
0.364583472252719
0.339688881380068
0.352910908449048
0.358155711019041
0.374304456766138
0.35034347379516
0.345603808099433
0.33235936717018
0.340198007454933
0.333529092910907
0.345643262431963
0.31844812393284
0.328158326145585
0.326470760746364
0.361088068308421
0.368186493346421
0.366140646150866
0.341800569545009
0.301003271117589
0.332615407355599
0.327163730522614
0.332449624856696
0.29845919456715
0.313428808536618
0.306631377765625
0.313137447182004
0.308276946234946
0.299018159399129
0.293674514034281
0.303102087265647
0.307236672021116
0.296624188902546
0.302894093420339
0.308331879191925
0.298734611923419
0.283596281560384
0.33693347974604
0.310099614582079
0.287953819426279
0.284963199414084
0.276767595231127
0.29351639820226
0.290021924861774
0.298767370307335
0.288043182012929
0.27935924373629
0.277173289391165
0.268735259412387
0.295422878664283
0.267413619509728
0.288026018959281
0.270238235965399
0.284790724289777
0.258670101403058
0.282411207183708
0.284224068938589
0.299639602075037
0.268680205229373
0.255731402669543
0.278145224300588
0.279781931697869
0.281363784399587
0.262073533797273
0.258990640327522
0.265305937487326
0.268924446182169
0.259016868044442
0.257621529321268
0.258491427559805
0.263956863334337
0.262209570936282
0.29014286393337
0.280217083834024
0.261253942968095
0.254243403954444
0.246912746680209
0.262158538726062
0.246469559667086
0.249384570918733
0.262381744166192
0.250381345462907
0.255860414229241
0.258199434378519
0.267417664915159
0.247506784068141
0.252628717388576
0.248917326966893
0.251194212665653
0.269106502819809
0.274224074838734
0.257678333009688
0.254135398296562
0.248620077870021
0.261892848249691
0.245821833718305
0.259340287328186
0.248414995922346
0.25986939513761
0.256441278534555
0.260092208867682
0.253783105761476
0.26043540369835
0.245401325841126
0.282568579122947
0.258620169296474
0.272775810229509
0.246875670670295
0.291624105610865
0.277403553166491
0.284095795280319
0.272912788996211
0.269765894328778
0.270438822950708
0.274299186406257
0.268242222400607
0.283069127316655
0.280575751933816
0.288384222323812
0.266647243831817
0.288953246914014
0.267418754815841
0.286074587335518
0.283029265249303
0.293603830466936
0.304507012767549
0.308995985096866
0.296942541007279
0.281434742559151
0.290708600439015
0.278059055582189
0.2888876002245
0.283159477800918
0.276313411906202
0.286328358020941
0.292530794178837
0.293000084028515
0.28168231976401
0.287562388171172
0.286396086171116
0.285724591490548
0.28780655729923
0.291822285149235
0.285710127094471
0.296073978800914
0.279537498295783
0.299247816461794
0.302945363774231
0.311302694790463
0.291382426433462
0.293104692563051
0.297218830835548
0.28919564254111
0.291460914616151
0.295635434955344
0.29934502577111
0.302390649072995
0.296447805351282
0.303481705424489
0.28886484331054
0.311147232039036
0.301419366474616
0.312700335598481
0.296182807159045
0.293478567578736
0.311119984244924
0.315044553242944
0.320599458852589
0.299535910803525
0.314205844843473
0.297175958528174
0.306620968404467
0.298802362993352
0.308458096848693
0.301255306228956
0.304941917991239
0.301645753701329
0.306909366775995
0.307455876456002
0.295430063098716
0.300042775796176
0.306540799333594
0.305886851478731
0.297414168005452
0.299967622068663
0.293675061719382
0.296839031024842
0.305330916208143
0.309201198668919
0.300997716103129
0.291452227997973
0.298234545651451
0.306373234023636
0.307071518638847
0.297658357771806
0.29233486228103
0.295203605483544
0.29979408124132
0.292808750079751
0.30290902323928
0.298231823643507
0.312132904004232
0.296956345512126
0.30211927709361
0.297855751941022
0.307938616834026
0.300317770444838
0.30907826929229
0.303059694603769
0.315323711039856
0.30916213259777
0.309507324346423
0.307632349865004
0.312276984992746
0.315447298496944
0.31930480622157
0.310767725155888
0.311669239341779
0.306474027268574
0.309739798812139
0.308487243300189
0.308305658690284
0.299253438898078
0.310335447323527
0.294541358884739
0.305314034821337
0.307067658485547
0.310381819581706
0.29531567088355
0.304740314939103
0.293251940721355
0.298809325163829
0.298262839519624
0.293235142002849
0.294766577777711
0.295590350111025
0.293745554943561
0.289061155238045
0.290996537699741
0.292096524108247
0.291253735352857
0.292239737342382
0.289368053626817
0.292835945761544
0.287842712157775
0.289592988339771
0.28451902089109
0.289947945132999
0.285216701528455
0.290708056212379
0.289692884672084
0.291389503022259
0.2939420645023
0.287598363671699
0.289752515398223
0.289056439005824
0.288322888508261
0.28595383968421
0.289384287740934
0.285381125842085
0.284905940502847
0.281845183975415
0.286415830772308
0.284392929098529
0.286109049999828
0.287193688562834
0.284130938767472
0.28171929818345
0.284598326972483
0.282553313292535
0.28483241876457
0.277563125569482
0.281343184080675
0.284767611297022
0.28022159207225
0.281841291153728
0.28001207574086
0.28215163532566
0.278502255211661
0.283549614295618
0.280892911709122
0.281604903872532
0.278538749030969
0.280929657443374
0.282118346089197
0.278990459979479
0.27802824318787
0.280185310063688
0.277409695711579
0.2763594056724
0.278659004601264
0.274004659783051
0.272046330686872
0.274391814160167
0.274963760635762
0.271982248477398
0.271815852018498
0.272924363980814
0.271492303844825
0.271384941441099
0.270342667920234
0.271524422620675
0.26752107993188
0.267494944759719
0.266619467276261
0.265116091764053
0.266873047000156
0.268622973328344
0.266353408281842
0.265361839621747
0.267944894592315
0.266554940004304
0.263595271684225
0.268467419199444
0.266419393953617
0.267074223897745
0.264365583137571
0.264485147700802
0.266140251001081
0.2682510683987
0.263885318898882
0.267406471748463
0.263674539085833
0.268466196114582
0.267045426810025
0.2699291297313
0.268366227170469
0.269288589555299
0.268585328910199
0.268138005517192
0.269242198633593
0.272085102416119
0.268886715558858
0.269918585632948
0.269417894081246
0.27280986034426
0.273790393387247
0.274605855382828
0.271071670616323
0.270934564915953
0.269421779668597
0.270599768036597
0.272147052088448
0.270772214230882
0.270153626514555
0.268382327613441
0.270380796957103
0.271177923760245
0.267179544610002
0.269141045883143
0.268881618481598
0.267370617357383
0.266947090116137
0.265521882894076
0.264952150583341
0.266838095716683
0.26568844975616
0.265486097967499
0.263499059069306
0.263007178127591
0.26288588242791
0.263570389729252
0.26122708764015
0.26168480970079
0.262097261978176
0.262505346588665
0.261267874514853
0.259550500765691
0.259020590138865
0.257893709762694
0.257885512150631
0.260754060500981
0.259053694289277
0.259949935002841
0.260039441804862
0.259634346488542
0.25771884979398
0.258503819059764
0.256356767070867
0.256602088878196
0.256581580781005
0.25594261378439
0.25320511714945
0.255334689231273
0.252897158984473
0.252339720182289
0.250519876996851
0.251547927464386
0.248009045884185
0.250244679352018
0.249275158889939
0.249218294066363
0.247223744143323
0.247232909431257
0.245685303242162
0.247832639015245
0.24730777089965
0.247321956116786
0.24873103937477
0.244180906176404
0.244934741539219
0.246725555145288
0.246412826044432
0.244306566932033
0.246179064467683
0.243572270242567
0.241453074601376
0.241622145932648
0.239599519418573
0.23977263586753
0.239459998789688
0.235880733177344
0.236508698474614
0.237292620541245
0.23693236787033
0.237733795533983
0.236268457022625
0.236957190100066
0.236835989980335
0.239910340791811
0.240088723987437
0.240772766894788
0.241763930011409
0.242670512465543
0.244633337944355
0.248880971357363
0.251451986747443
0.255326624617234
0.260390812229101
0.262624873218372
0.26750243764428
0.270471377376
0.274962590349009
0.281847938791349
0.288764681607692
0.292737041042833
0.298794627094754
0.301648469662836
0.306862764763469
0.316430253481863
0.31929542271658
0.325514972213364
0.332332979358129
0.333229915146431
0.334970790767728
0.34243140401436
0.345129942861136
0.347184714528028
0.350281975688935
0.352362863462028
0.352311128789702
0.353293485124818
0.356238149129189
0.354481592685115
0.353499008672398
0.350859642708743
0.349578367370847
0.349248335246548
0.346794277216823
0.348128363300701
0.343922386454881
0.342752877293275
0.344652821356525
0.342599705875009
0.341609873057259
0.344856877031632
0.340695069744231
0.344715363592596
0.345207398529352
0.344099963188935
0.342392717734488
0.347768834667741
0.345967128702911
0.351375573935141
0.354270135975486
0.355102925845123
0.357993511277687
0.36270929159236
0.364888810000148
0.369744913597077
0.371741863176568
0.376390355644372
0.382141419757753
0.387874356122716
0.389450551813927
0.396559398777928
0.397288596432014
0.4012905592827
0.403363606457455
0.403030856594943
0.402653533999679
0.403661740808975
0.401647217620211
0.398902637433442
0.398527914703999
0.400068558792097
0.393209189392266
0.391243845965929
0.392200719638614
0.39112955000897
0.385026925188649
0.390310817957589
0.393152095072836
0.397919884912051
0.400300298535942
0.404658362517312
0.408655397935331
0.41517493043832
0.414676686595936
0.421365600587209
0.427846566181784
0.431593400701113
0.431244733790086
0.438207123787272
0.443136296844966
0.449520909530898
0.449397470704576
0.455387590771478
0.457247144529058
0.462780198858803
0.465664268532494
0.468904982093842
0.477552089060888
0.486555491033582
0.491438250005899
0.502455574191547
0.51172185398824
0.518204813223993
0.528656183636513
0.535758659696465
0.53830859149653
0.549363213397594
0.552554835066123
0.559706942240139
0.559375063169146
0.56724806398342
0.567720302305955
0.563450937957936
0.566287284202937
0.571400356247936
0.565451475152116
0.559673739731351
0.563056487604933
0.558618085648856
0.546377082398858
0.546037447980105
0.53956247578277
0.5348320299428
0.532375539742875
0.530267122945688
0.528752189694675
0.533818881166614
0.524130614488731
0.528263932422063
0.531921232178372
0.530887677097776
0.538548723751092
0.543191567964518
0.541704325841002
0.545711654276446
0.548245644560484
0.555268201156878
0.556283150072331
0.561932450504835
0.565377875122736
0.572030542309918
0.570937647551041
0.576137147241965
0.580889825752163
0.582616122674229
0.585482608691381
0.587846430593069
0.589722611210399
0.594471018143439
0.596452925511574
0.598186699952908
0.596002971668167
0.60130798550921
0.5977835366242
0.601408978169776
0.594170228829007
0.601741398243783
0.600517590012946
0.597835069436887
0.591749569946809
0.5968757593823
0.588932653383767
0.588866534851684
0.586593310989576
0.58584372913063
0.580874980069883
0.581034264830744
0.577447592599888
0.573265712421772
0.571225426402218
0.56861219660939
0.554023523508562
0.547391821026069
0.537291188223941
0.524341305420446
0.511762275857861
0.501783011473411
0.484340170777944
0.476382066446537
0.464808399048421
0.454379911689941
0.441675950240798
0.435117251681272
0.426273620385633
0.422923407157675
0.411448788112086
0.41112246764054
0.411415905046121
0.409981010448273
0.408934784196703
0.410779796385597
0.410948961199833
0.411646386889052
0.410506107454864
0.411860920574828
0.407784782180035
0.408980918883813
0.405576288810291
0.403313981514067
0.393915736548535
0.394912846149265
0.3881586241935
0.389522166262928
0.384848337043723
0.382284120617651
0.373582868933528
0.373181581688093
0.361406909634368
0.356610332724131
0.357349993864935
0.348561775297855
0.344666748045665
0.334295590117035
0.333774551176863
0.3331077914067
0.328528879469783
0.324588052809381
0.320344233768401
0.319663813292375
0.310792485305391
0.313778648400099
0.312446768358384
0.312272545920649
0.310678983422097
0.315495064896536
0.308413622164773
0.308691753968771
0.309206439220042
0.309485606950644
0.309860727195863
0.308686599272106
0.308028050938968
0.307552935077118
0.306602137012081
0.310054443944074
0.307704220160207
0.311445274236292
0.312316637379068
0.319166446797923
0.318058366470195
0.311835280877848
0.314083293081138
0.314753768647417
0.317937399359202
0.317630991769973
0.325225460877842
0.327604290406206
0.331331264385912
0.330137584116663
0.33249353232776
0.326754492088666
0.331910270679569
0.333241891734133
0.334974958762077
0.337719242204055
0.334597923345403
0.331260998444438
0.337656624617033
0.339426752642515
0.340642110472196
0.343676467716182
0.343133658990916
0.343093005869921
0.347806607653127
0.348119684095784
0.351070252242926
0.354202454135306
0.352280275481771
0.353081282491052
0.357299748876712
0.36226720954304
0.362382109821791
0.364667780655866
0.366577885859413
0.377218134048806
0.368640508928937
0.369633477670545
0.372011864825527
0.378530257786574
0.379532305498384
0.384516725930461
0.375317424098886
0.384414686539618
0.38782502757512
0.389899132086639
0.391091200501382
0.393145047544874
0.391804191712802
0.399051194446552
0.39516404005924
0.402332529239236
0.410000814664527
0.409635438360904
0.414644319610388
0.416205716240414
0.418772310217037
0.423982233814917
0.430806084818118
0.435167292594472
0.432708810068549
0.441536598544258
0.44294774945053
0.449125617959795
0.456374633579075
0.462583751136979
0.454172078808292
0.452346013517757
0.45643931113855
0.462334149431867
0.459007977575723
0.469224608260365
0.466730014840521
0.464975207674649
0.46630944624736
0.478544436478259
0.472029908655255
0.480157760334865
0.483693785360731
0.48396542524363
0.491543169065486
0.497199740299038
0.492871736714662
0.505018064589034
0.493866607692804
0.500496131915398
0.508947327678598
0.518083855000055
0.506236811383803
0.512818502795481
0.509162507436619
0.51511395903148
0.519775324068857
0.528105112954038
0.521074526758207
0.537708696509192
0.523272705496338
0.543700262981224
0.542170083065108
0.54384939934782
0.537218180033652
0.546058374711187
0.549304684759698
0.548865417148197
0.550251134176649
0.55719520275594
0.570358814948062
0.56827120552576
0.557068933727114
0.572852672317625
0.576644967934396
0.588328742135281
0.591252527714701
0.624654722870849
0.593335864426453
0.591160578868241
0.588484726595411
0.617242775587571
0.597414147247238
0.603766077836821
0.606298875929598
0.611924966965357
0.611622355928857
0.616758348700618
0.61818306993686
0.628872182236886
0.625128373602089
0.640601981399834
0.639102606933649
0.658320391455543
0.6468579161123
0.652524631222001
0.634162632205761
0.660859604000155
0.651545539320366
0.658115332433157
0.641567327753776
0.686168178392011
0.688990764037588
0.702597857667635
0.683468217474094
0.674983278803264
0.684752156406818
0.700262624002011
0.669587642220045
0.694889701722483
0.668681003491797
0.696297945331812
0.692913977714139
0.734932817861445
0.729804510519185
0.721589689114816
0.705195724091832
0.761487950519589
0.726011657617033
0.743621322353427
0.731128913068634
0.775044736513013
0.751901557428604
0.761168083873313
0.736720255490524
0.773127785197498
0.780981709452839
0.763662619112398
0.758511052175906
0.769957553049252
0.778996920205096
0.801475236669895
0.796507696136773
0.811027073812643
0.777421875159269
0.806039922956201
0.790452650165509
0.857142634119633
0.830804952599086
0.876043751987835
0.806970087962156
0.840286102353093
0.772826932190077
0.830407400218359
0.842945053418315
0.850056891953617
0.834147991136352
0.870433373503928
0.821246725553044
0.858263222989458
0.865774405559986
0.908688455968678
0.864939511547816
0.91250062821742
0.821465648065629
0.930672684248409
0.863632684496741
0.895147888336082
0.880319143191643
0.932984108002165
0.823107680165455
0.939027778789463
0.893994149749153
0.913697110383935
0.880716302357778
1.03249047504907
0.924415805268468
1.04326660510295
0.938626305226086
0.954658803790414
0.911261106827184
0.95114815337462
0.892960485286932
1.03584350353119
0.933886887731118
1.04852020282938
0.983214624832579
1.00176572366546
0.895565319403424
1.0155792947325
0.933825747821245
1.0089198450045
0.956553615925794
1.01100051834766
0.965282276568974
1.06963010546725
0.88957964706783
1.01789398825966
0.981879272599621
1.07669829805011
0.976401094474985
1.15450714818154
1.01723425300663
1.127683694632
0.950861473700804
1.05237681432752
0.92194892272427
1.1211887173211
1.00572258792882
1.00089293202127
0.994945276452129
1.02208957968556
1.15245163792811
1.27906704030556
0.926529302983362
1.10837568480223
1.04447684168363
1.20764987508053
1.07443354984908
1.10046767647901
0.945793919601861
1.21566625895994
1.02242537035213
0.917932125260681
1.04755546963793
1.08898196017481
1.10951334101449
1.21401748070531
0.942562574721013
1.29133579190562
1.22823247938673
1.20167942938298
1.08703790264252
1.16511558914349
1.06518389088918
1.31811469117412
1.00285908464819
1.05263633434388
1.2096597636179
2.33610145736993
1.17232515574246
1.05235869288182
1.22989098599618
1.4168258490425
1.15973648013161
1.62378014970727
1.20647715432033
1.54757318212183
1.06633493819431
1.59702366195073
1.0572263799182
1.26692217256806
1.01140173813881
5
0.929176109019577
1.12806530393918
1.15126978635156
2.1767908730418
1.25352924336379
1.47366063940444
1.08399364202327
1.13633210178525
1.09374071658155
1.34833878818187
1.10984230762771
1.62523789611519
1.16150673889822
1.31814945815078
1.00005673006038
1.4161066217722
0.887584664060939
2.05190604978688
1.52572704114297
1.30705074658969
1.69587977907263
5
0.988847490094311
5
1.7621778800314
2.01915189972063
0.85698766351241
5
0.70651101358845
5
1.11689694982624
2.02449523687196
0.807534419458147
1.35099570324418
0.968969475386022
1.81862549597837
1.24885842748594
5
5
5
0.705983155172986
1.20480615519114
1.22677064254743
5
5
5
0.595421634758243
1.35421814505955
