3596
4000.36533379555
650.420452594757
1
2
2
0.0346323000992836
0.0408879216872747
0.0396997904516428
0.0455304420101313
0.0338092769685273
0.0375177299350707
0.0328932858130274
0.0428776674980767
0.0321403423481106
0.036889087177627
0.033488998448076
0.0493511247591125
0.0338265706441333
0.0462827109578757
0.0310980459648422
0.0450147330594187
0.0272650204390565
0.0446533677699675
0.0348323590015503
0.0374344980366029
0.0282133818678713
0.0399175643555894
0.0321929917856184
0.0436891380469828
0.0389180710438474
0.0431765834051686
0.0313606882929238
0.043040610001484
0.0357264808321968
0.0380545784636014
0.0344151741235949
0.0465088952314891
0.0354395906601866
0.0483077507601937
0.0391880705434084
0.0432078765078515
0.0278449965154533
0.0517342481533433
0.0244609665818259
0.0473895978020911
0.0423453384164673
0.0518974277861952
0.0350131132478835
0.0429294277349257
0.0432710285410463
0.0500899618526065
0.0380016333773695
0.0452350448486879
0.0326271399764419
0.0446197194542531
0.0339607920678272
0.043842624176773
0.0476341335455913
0.0463937301008529
0.0310816254083602
0.050119843557323
0.0323814029504166
0.036756989276875
0.038455883344256
0.0366353632141053
0.0468415128190566
0.0573331465719354
0.0387498067701932
0.0436010503031025
0.0299233829338883
0.0506209487386473
0.0292991088537049
0.0409602561859539
0.0317254742385277
0.0498976069064418
0.0290869992856816
0.0629958712752006
0.0430396958955187
0.0451970245677603
0.0347128757586659
0.0454062651626285
0.0331633786056207
0.0407405285406413
0.0212415488115036
0.0495337494334119
0.0360577556294013
0.0400997599390579
0.0287756825064924
0.0352421759992198
0.0301823666062247
0.0641177531456781
0.0181135902490601
0.0440311076897804
0.0366774340289192
0.0581882104320925
0.0311927644090267
0.0350187798534469
0.0311810491571661
0.0478181442331983
0.0279717642268092
0.0482709195962756
0.0291429238616208
0.0463431858111687
0.0251054288927425
0.0473786742279633
0.018897909717553
0.0571084079286012
0.0627611567172822
0.0192129301860128
0.0650510881837105
0.0411057583413988
0.0361893278932976
0.0668587613561413
0.0355022209249687
0.0504305460963751
0.0283303176587497
0.0379276015354593
0.0255424847132671
0.0529069342437503
0.00211731948311758
0.0529440932092192
0.046492132515123
0.0494182783339162
0.0284690963268643
0.0505763779373284
0.00206443713771326
0.0651593955772098
0.0481276514308967
0.0393734038768633
0.0385056363638153
0.0333528036645168
0.0122570202741764
0.067094756954122
0.0452576209980268
0.0484775289969076
0.0250221639382486
0.0441680270215525
0.0192523942102121
0.0314001058389253
0.054305841046929
0.0460360549093257
0.0364411431059394
0.0079695946395827
0.0330836918992041
0.0715998593967802
0.0397126502079576
0.0497485475171347
-0.000125989066551865
0.030703073877911
0.057783047177618
0.0466412681844717
0.0154166810863846
0.0559878922970012
0.0256473753827353
0.0385931778101615
0.0288398493426821
0.0342892069015073
0.0424880241933563
0.0457307022156871
-0.033029352987201
0.0720675950877144
0.0458563652254743
0.0597788049491853
0.0782938362322851
0.0355999688064497
0.0381720555135141
0.0284896570583263
0.0336696906189324
0.0351082916700984
0.0350908453573054
0.0222406157824865
0.0416001521156039
0.0514079058066177
0.023917119061732
0.032492189462229
0.0487146100405157
0.0389651902908634
0.00594389255942763
0.117876734078733
0.029632965514837
0.0232519326618409
0.0469950444319318
0.0530488836255101
0.0182384742264923
0.0449360064843427
0.0445677902338008
0.039556367429505
0.0302240450691482
0.0271758911856222
0.0257764957519575
0.0522611079167271
0.0333801918717108
0.0432633678066297
0.0259622831836872
0.0191288958736915
0.0208352898442197
0.0750739479156843
0.0532193363926103
0.0428121184990621
0.0327794213536903
-0.00259127699910756
0.0638192370683624
0.0646333929175124
0.0355229629524138
0.0387214514790894
0.0263624708302662
0.0396618921627367
0.0206094415233689
0.0360950022702343
0.0166287502947331
0.014638930241175
0.0635824633645559
0.0497809846820374
0.034266182415877
0.0294011137650259
0.0241781650822848
0.00723770906866709
0.0718126845559817
0.0507898857386139
0.0380121250874836
0.0391447637569752
0.0210427093885307
0.0497785475940459
0.0453469272667572
0.0422399262074993
0.0312173480431046
0.0311728724230672
0.0278010169066785
0.0318365041887308
0.0258382376973416
0.0321645614356587
0.0290278293844582
0.0374780813711341
0.0262788228804154
0.0394862056694172
0.0436712008253909
0.0461448214091111
0.0329043778657139
0.0399875403425063
0.0153290347268853
0.0422661443376005
0.0466843406782305
0.0409306267544267
0.0277509621301941
0.0348675764462211
0.0313977549248181
0.0375982422403593
0.0325703738016988
0.0416142303688128
0.0247392900075501
0.0214486367411411
0.0691024365963114
0.037564541122965
0.0395806112575761
0.0126445752222913
0.0463003640217634
0.0460135321396419
0.0438202393005359
0.028238371031414
0.0385659677171868
0.0251757904433806
0.0249228743600469
0.0599844444695079
0.0389693857634088
0.0282268229310983
0.0471089898232069
0.0371052904416511
0.0321655631090635
0.0150092165147284
0.00045788089722953
0.105924527686279
0.0278032743881387
0.0192315489188324
0.0897979156586611
0.0521992314288461
0.0520233004998206
0.0205926716570121
-0.0178585164505409
0.102870579774047
0.0811916004844719
0.0480908734315837
0.0269779104616753
0.0507300425329275
0.0267234151203392
0.046066210144786
0.0179470466147999
0.0504612862910511
0.0315748997961817
0.0522501568875371
0.0688682738735023
0.0151004669633646
0.0616806551433445
0.0512814679084123
0.0413141250828378
0.0372869134071912
0.0303817404824088
0.0227884666952812
0.0393314798693889
0.0417738852856838
0.0471485196636346
0.0383015008248723
0.0295711304497683
0.0581609024886897
0.0431738743424682
0.0358374462150188
0.0313932433294995
0.0538769186591391
0.0342715987704367
0.0410399714399317
0.0266549499110322
0.0540921701564614
0.0196419353125974
0.0210943189918553
0.0749190171531547
0.0379826084965476
0.0371381680589466
0.063322889290128
0.0377951775456392
0.0429284588593149
0.0377407640053018
0.0375398216927076
0.0339943547317405
0.0343031923593916
0.0215458357517852
0.0637723813584744
0.0397696792084053
0.046600079842828
0.0317874568250149
0.0428510952092478
0.0310812185651786
0.0415467729524139
0.0300048522917033
0.0415246845329183
0.0351282347757993
0.0268017309439515
0.0423124559010633
0.0639372482800506
0.0026403339444755
0.0785203660230344
0.0604056926378601
0.0440494372111976
0.0396234871646415
0.0389404653465863
0.0459945156214041
0.0452437329991234
0.0412579191871401
0.0427511130170852
0.0393577414725191
0.0576491527487211
0.0471056092225886
0.0410803290389497
0.018998106565977
0.077050972242898
0.0903755073063802
0.0673180715961147
0.0560172639503558
0.0160120733164361
0.0821315754204
0.0501674446012922
0.06527516628824
0.0828433049054397
0.0506074694640575
0.0541523797753265
0.0477248746500173
0.0590357586130218
0.0446357146149723
0.0599737216813541
0.041535614466002
0.0662166622602721
0.0478950666784176
0.0733346235614689
0.0363675110373293
0.0502598694026408
0.077484540079664
0.0767573922081129
0.056940820565171
0.0709266801769667
0.0345958721587656
0.0937409413764158
0.0531192552016041
0.107933112669802
0.0783855422416116
0.0815484765463288
0.100413929951945
0.0839561480524984
0.0746165815193179
0.0692112380209755
0.0730863806282258
0.078958547919754
0.0710569896838327
0.0822687745320708
0.0719653650156801
0.08905831135217
0.0818227245762267
0.0888386197391116
0.0817026371432085
0.0832733524408352
0.100354650569715
0.0887205931635258
0.0912719246853988
0.0694989979190928
0.0913824949925123
0.122066593394938
0.126642629856686
0.0996616143632643
0.107173594517087
0.10365646067377
0.102480849281455
0.104800498507292
0.100496794724652
0.10851092059465
0.092136422336046
0.149660933671239
0.11794019051345
0.140673489685401
0.125393502067416
0.115088865365126
0.12918262633187
0.12121732854495
0.131139604894125
0.149552594296329
0.129097385274647
0.113571766894892
0.152713212992574
0.138355843040973
0.130648880920025
0.162600521668441
0.135825536305533
0.146311960980119
0.135914541562151
0.142535678946332
0.134660740163751
0.160223288318195
0.145758562213964
0.148573096783496
0.151680062753296
0.163004443024688
0.147783136625924
0.178336403011582
0.157810887859652
0.170870631822886
0.168094103597396
0.168346238119433
0.175659689342153
0.151972310197215
0.181083316707816
0.182608528389433
0.179747254057834
0.213663638377202
0.173468061938441
0.197177958831382
0.182719991675866
0.200372051103996
0.178453695225026
0.198554800671148
0.197014316972145
0.213079887201133
0.193553443129925
0.220390111483618
0.199032933065181
0.216176198410032
0.208123441528209
0.218476023746984
0.202371900106996
0.234257829993482
0.217238187021376
0.221994588082367
0.245447068455849
0.237542802969233
0.241757685251514
0.251222792853949
0.230257070024688
0.263496706873662
0.237877473010975
0.253886468545899
0.24570827777835
0.277241338444116
0.253272145081319
0.276296916317694
0.255839039446471
0.283544846908382
0.260130667235918
0.283112677910254
0.277409872247848
0.30885689944409
0.267933696036152
0.292079141222963
0.27779303076795
0.294202609603264
0.286702457722575
0.312941146067507
0.2868049338722
0.3241890489915
0.301332214915041
0.327059962393304
0.304774796623831
0.329970060456666
0.297649319723538
0.332424095098192
0.324443236363626
0.333820778758462
0.308848147318094
0.351740520149746
0.331247036429614
0.349641167725148
0.319005472320067
0.367866553016581
0.33064321681576
0.349882903547527
0.349143344367682
0.370286163504455
0.358569859984639
0.375809785176657
0.353827482847996
0.382612385983888
0.365541486565234
0.399597514015377
0.363922439363605
0.390990909625157
0.373427077152434
0.39971688816559
0.388093990387214
0.420955505264878
0.391077599384886
0.41015399565787
0.388124479653724
0.415734035843733
0.396638108348028
0.437031831333856
0.400553602303714
0.445888870867037
0.429327184453499
0.439230753836025
0.420783430366763
0.454166150482135
0.427868172241448
0.444890951992652
0.423935019170702
0.468887300656557
0.453016140884612
0.482812182991366
0.45699328630154
0.486242972571551
0.450960073186691
0.496117154418215
0.476776780503236
0.49409342845221
0.493103391231281
0.516151231704734
0.459213746842015
0.518210208453415
0.466614938472414
0.517058568781399
0.482062541783059
0.534518395480412
0.508054993275134
0.520875986473627
0.504490072719521
0.544603919987103
0.507161333602097
0.553803344487218
0.527532773489351
0.551272853736046
0.513957378925449
0.54103131963607
0.545497077936053
0.557532991208519
0.51767328266411
0.590767282823699
0.559513075414567
0.55899896539404
0.548026167982179
0.557620356308823
0.541344920284342
0.601399048074353
0.5669664983457
0.584325249166563
0.561040269392074
0.625089194944256
0.58313440160287
0.606137982218073
0.582441168264249
0.628104490338891
0.57061086794813
0.608624335144098
0.610021860986437
0.647194094227525
0.622414066672443
0.657987270044996
0.628353865745296
0.629955553324836
0.58286940309991
0.641763280684837
0.620690617810885
0.663004135013964
0.617643780221929
0.660803168814404
0.628434306258564
0.675933410026986
0.637828781141662
0.67465977437265
0.640023681967881
0.69746355268175
0.632266088037086
0.687160999872189
0.643984131030431
0.699374456666907
0.642367761570393
0.676986673197655
0.683303879806233
0.706016210985499
0.682915543930526
0.723112146220763
0.674964769704871
0.702290193490571
0.698415726185118
0.720158830171606
0.692723745004354
0.726046915941557
0.721396194052548
0.754295997961873
0.68772966642528
0.74953301715545
0.700887930784868
0.745029784602706
0.709595239223176
0.757869346954836
0.743014173557508
0.764725971240338
0.709261776525493
0.755041946831271
0.731403078761563
0.779680276919373
0.737785765098209
0.775685054171772
0.731960868918931
0.792879470956829
0.715411456780416
0.800426189985573
0.734586044745625
0.776787400928819
0.771860136996583
0.798170243418981
0.755568943081719
0.766672401903173
0.748693928429971
0.764799797820294
0.781593260378724
0.789799471353332
0.756121915268299
0.821129837724542
0.779925495505999
0.787330317734651
0.753948647732235
0.831071972877926
0.758625829165946
0.812641826790203
0.798339183990976
0.840934421996589
0.827638311349377
0.842610836572817
0.829116001446286
0.829844671374655
0.78979093542337
0.836821415157312
0.798265143359044
0.857183261004233
0.824935111514921
0.867878017506135
0.79646801841265
0.835814150980742
0.803361771465061
0.882282554379692
0.811615546746242
0.876855482482899
0.829778227532916
0.856250543181593
0.807490760684051
0.835832027751416
0.79507800871166
0.877571786519173
0.811657232763541
0.866212463754256
0.850471147755949
0.858752740597472
0.814548963039019
0.907853410558178
0.872951746691525
0.879281764827061
0.828584152808
0.864744309806454
0.831406117900371
0.88168483583771
0.860898313752402
0.912169006900118
0.840982428147592
0.907596879547627
0.832040135888367
0.854596071586464
0.820388617251125
0.887000588667859
0.860370373299728
0.896897900574196
0.831839619343503
0.891293678037564
0.858908494987401
0.869209008050702
0.834822128426729
0.92751643214062
0.860486225194772
0.928132762395345
0.836931534008479
0.904983111147532
0.876420625541604
0.923567404719403
0.842356765656034
0.921420051609631
0.881723626414728
0.900200193727791
0.866243066793325
0.895020781029491
0.879270911721652
0.883027005754819
0.846621013802694
0.915447773007699
0.863771007288902
0.890105546898758
0.849569524793033
0.914437806562596
0.881921402727287
0.897193159397759
0.883527339093862
0.896162803778848
0.83437180660355
0.909173945457136
0.861264563881408
0.926386409171762
0.864988998629538
0.926251093541779
0.854112011621494
0.866507700698749
0.839688134424585
0.873708286226829
0.833977915509205
0.890664163394073
0.891153589973437
0.899017354632448
0.835008149128031
0.87409117577462
0.853429761779992
0.920664827642128
0.8453463447347
0.88546905166416
0.875484908618563
0.908511940196394
0.864195212693354
0.860851759373877
0.833132923721505
0.894417991991029
0.87667301730758
0.873807020115482
0.874671533787964
0.89006287283579
0.852701447369077
0.888740566809491
0.854922502091271
0.908496147166474
0.815553601978156
0.898228054401358
0.87281765876492
0.886045496464285
0.890337817238128
0.911488500141644
0.831759581037831
0.915910229570189
0.848912212433785
0.884015938027804
0.841447363619756
0.882479410337829
0.85744165574951
0.887216853314796
0.853162342746245
0.872621788089671
0.840626606804924
0.872602263551518
0.832480307384221
0.845888369174221
0.821624889114516
0.875476585844222
0.837930174697154
0.858086656422852
0.831441171630381
0.883034536292735
0.837037374905333
0.855426712180248
0.806632397346414
0.879990834936132
0.839755729380714
0.837545172378476
0.809681380401461
0.85959979870949
0.801483623997982
0.819508099683728
0.795315533527156
0.845671433963738
0.839745965545951
0.85071323657869
0.807601464041514
0.840549907070644
0.819279289581999
0.854268174629685
0.806190907206753
0.819762526431005
0.796895673940919
0.82972440379207
0.792337606823427
0.844342647635218
0.797831190463022
0.817516822489246
0.779895323878343
0.803029034334892
0.785489266490716
0.799681071741636
0.768394368388151
0.797010400984047
0.751757098456353
0.792519085520457
0.771539558309413
0.800002655095956
0.773090430306467
0.786175501803583
0.777935414725101
0.78910854851733
0.74129033729347
0.788515929148238
0.768393271808132
0.773226796481577
0.756161818228102
0.768861004393788
0.752287660861265
0.767381838203204
0.750236051859032
0.733759622545747
0.728024230691726
0.766487619907508
0.724165105565512
0.736158443042325
0.718656822412782
0.752285718496729
0.737039789278912
0.74238271550513
0.72328088489776
0.733451036245338
0.722415572129041
0.748120125509294
0.70660224932765
0.730342529326595
0.697591715440505
0.725870469393321
0.685891958188688
0.725804893006758
0.701201891893169
0.69848084258496
0.695671666439172
0.696098552155364
0.676945495973292
0.692246678456659
0.673839238688143
0.702537549133101
0.653778647606728
0.701707949789379
0.66589970820421
0.692763710291013
0.651497083396983
0.674703046080187
0.654828401543533
0.660164880599341
0.646161167136155
0.653212493797261
0.654799599588057
0.653746995021812
0.650425687809276
0.645832465132066
0.620823826525338
0.64196409524458
0.625194388060327
0.642267002318681
0.613252019666479
0.626331173703815
0.600397925224886
0.634933034857485
0.59474734969254
0.612891657680127
0.599396581665715
0.610389516777988
0.596823389836759
0.605589713919373
0.578842313047134
0.619825725637828
0.577366408810842
0.598124061825902
0.575829612723514
0.59163397440398
0.582007717725174
0.580695624144546
0.568497589857678
0.581258303790343
0.549656105004942
0.564570120273585
0.550620781669262
0.55885301860498
0.551027704655155
0.550212987895616
0.530101200714474
0.552621198465469
0.532351800407667
0.547110928272256
0.529606374950893
0.540244188210906
0.519649705489534
0.53768664017715
0.511667833319979
0.529497599896219
0.516914530202834
0.527627308246928
0.498618134441667
0.513246767417795
0.501778257959146
0.510661159045412
0.493810932812749
0.498969654794966
0.482736665198452
0.498972223014437
0.475588270793723
0.488388395519402
0.471866057374375
0.477383559268245
0.470802149661824
0.48187903320756
0.455186695364384
0.467880181201486
0.462168604253976
0.469733981578365
0.454977888659109
0.452896456492109
0.44828036066515
0.451550305919148
0.443885859358416
0.450052173136734
0.434529247647259
0.451010210950107
0.434618798945
0.437763013491371
0.425999850535298
0.435675245053245
0.425773300052126
0.429970826893514
0.420065574529691
0.423236772491802
0.409209933460653
0.421804009260042
0.414216553139717
0.418287438709348
0.401166942762145
0.407231546028045
0.401858221557085
0.407671899761688
0.384108117987676
0.40236815637348
0.390541279484926
0.390665541741604
0.390436375747427
0.397669167086723
0.382973074728013
0.387890095490461
0.384177656041778
0.387596793439605
0.371845973911518
0.375702301017651
0.361675623741244
0.366036325184342
0.363601045917864
0.369058391258064
0.355343732914943
0.37012026515888
0.356333262662118
0.367272132063574
0.346379594505333
0.347549490557118
0.34692008781595
0.350459341903103
0.343190232963078
0.349371262338346
0.338980001542428
0.344299695334741
0.331951669885094
0.342238746020171
0.33200043260915
0.340661805627227
0.331128060222668
0.33859553643534
0.314528897173971
0.326975095062605
0.319638816900776
0.317351110823278
0.315447936590032
0.325493508718698
0.30655352378207
0.316194935130746
0.311722043303674
0.313589887191506
0.299193121998957
0.311384340590939
0.298925029933277
0.303273864605246
0.289108546098099
0.296120441383007
0.294911246573552
0.294322534087566
0.2896888124725
0.297604819042044
0.28634981124635
0.289009619227774
0.280585431640946
0.286383187111271
0.280749688637337
0.289589747635866
0.277640827898601
0.284014923890733
0.272423699217822
0.276180914069686
0.266154024069097
0.277533815904662
0.266879622105309
0.26929460073582
0.259724308446692
0.27530463280608
0.258440823966286
0.261391330084833
0.256298389440463
0.260622509871355
0.251077165611805
0.254868840194987
0.252848611706191
0.259011073439907
0.250221419528125
0.252831888742593
0.244649353079971
0.250653159685844
0.242663173624679
0.244548899177506
0.233184499741133
0.245889992601039
0.237005914953893
0.240886355331062
0.23211767182491
0.237349451417527
0.228406902403154
0.239148019910738
0.223651810945606
0.233273197487225
0.226294760868287
0.230560501448263
0.221147385307225
0.228591888999258
0.220884965244763
0.221714508773296
0.21794763343309
0.225414110053998
0.218660182031232
0.224450159252709
0.218674406161109
0.221037857740727
0.216869707199779
0.22383996371772
0.215113294488193
0.218106675770437
0.215354446252202
0.219232507710931
0.213614680670647
0.21835976960764
0.21060111781575
0.21475239811053
0.208922707475474
0.214009979823757
0.212623946506233
0.220446082767272
0.211288130072883
0.217371894570258
0.214717226370954
0.221716715958157
0.213267207447231
0.217464700408093
0.214770946583885
0.222344965706459
0.21907681309217
0.219755015254463
0.218966084480397
0.227801564427748
0.21722570668216
0.223682653369348
0.220875525732468
0.230441379094209
0.225130214917656
0.231081489282209
0.221595242403527
0.230278658434612
0.230145055512096
0.237524304504396
0.227664322331146
0.236626969454765
0.234070050032402
0.239421085860959
0.235577670689724
0.243830463722238
0.238631847558113
0.249629131248792
0.24361424149744
0.250709463482714
0.247099637527107
0.255766702794141
0.250014450063333
0.255114605919819
0.255407190384102
0.259970362942499
0.254319813795407
0.266631532562467
0.257480285685194
0.265829078998601
0.262975225415874
0.27351993878301
0.268044369448026
0.277530263526646
0.273228602425002
0.278029482436596
0.276186086603335
0.28298967864448
0.282405771792537
0.289848747411921
0.288642931844406
0.293681941432399
0.287200281720969
0.302193277222214
0.3003966982188
0.302279930747187
0.301661639843927
0.309320860413352
0.304792484383345
0.312541116729195
0.309140850259445
0.309677748630177
0.307445695223658
0.320779062496025
0.313610777090157
0.316355031901428
0.312681274403744
0.322655909745863
0.311222620507392
0.325767375342929
0.309697706314977
0.316296812278401
0.309871397415284
0.316196184228628
0.313804277965508
0.317903622638256
0.305852961187891
0.31190646533399
0.297792995102152
0.309358439315869
0.306736712040784
0.305078637477928
0.299197523463393
0.306390401419542
0.297218948245689
0.302313207229299
0.301226053178287
0.308438676617108
0.301701287286745
0.31120720882758
0.299329952838045
0.307496497494636
0.295270481139622
0.307478842993604
0.302793698051305
0.304823044116076
0.296870254004347
0.30514058364784
0.301420198113379
0.309445979718112
0.295667244161679
0.299806435855747
0.302949922937518
0.303633582737269
0.294440484829071
0.299895450444563
0.298392500260232
0.304932221212769
0.296555052299193
0.299675388256843
0.296552490861816
0.299386873410646
0.297493683546422
0.302930015914029
0.297844178673786
0.301875712643793
0.287500466159943
0.29739231178759
0.292454399017928
0.291217789958996
0.291480477080739
0.292227599926996
0.284383841642696
0.287287384578009
0.284112532925461
0.287221868580406
0.27618927739547
0.283273248996506
0.278932988914839
0.279822238860249
0.268348676330564
0.278187064287493
0.268907497720426
0.271115103023909
0.265312233073196
0.265889029964207
0.260103167540281
0.264187701468997
0.252286538047619
0.253378176508978
0.247652824538621
0.25490891248181
0.241698911384264
0.241538580628533
0.235970138695367
0.240337957489841
0.236001084823348
0.240788798628261
0.23331543503075
0.232223517886589
0.2246278225477
0.230478373708484
0.224242332521584
0.22183134818914
0.218234409964776
0.221391063679971
0.211491517574991
0.220869064682101
0.20946036448149
0.217785022965518
0.212013523399837
0.211424186042454
0.205099147315387
0.20810720412756
0.19984428085217
0.201581846967049
0.198415600911522
0.200674538606192
0.198003291312035
0.195003265024731
0.189050105304445
0.198108974391685
0.194222630075698
0.19475105741327
0.188654415381372
0.193403142339302
0.187165770066274
0.187214127494117
0.183049661782914
0.192528355990715
0.184322795617287
0.188936266713421
0.18140493676902
0.181788945606426
0.177390459142255
0.18482853547472
0.178571906299777
0.18004030239753
0.17215692288199
0.176759904765842
0.173506256134275
0.180953584059625
0.173845967781682
0.174066937080558
0.165055375068268
0.1676239028948
0.165627703282835
0.172313724760505
0.166156427883266
0.166889518629166
0.162668602592018
0.162687177360108
0.158910099024331
0.161865935526592
0.155884687680039
0.162193912035916
0.1583653206856
0.159131716884119
0.160492181485279
0.16112998477505
0.155183999810578
0.15942554815332
0.156477146680846
0.159196661244506
0.152519982509411
0.157290533663367
0.154658996666894
0.154442058009846
0.146730100680588
0.152064837933449
0.149961921802765
0.152295837031927
0.147597789185791
0.152724515877113
0.145981607316732
0.148080737633136
0.149968771190525
0.153043410460555
0.145175962063597
0.146789274723465
0.145415073645544
0.150679569410344
0.144042398645838
0.145529333680586
0.144035752067315
0.14462085397121
0.141612124470187
0.145877956317708
0.13973873825951
0.143540956886367
0.136678547951758
0.145565402101203
0.137271055229898
0.141839774379001
0.140052560855698
0.140830409140734
0.135718978652097
0.140784426081617
0.136337912789002
0.138775629044202
0.131647691059276
0.137727757762274
0.135757146813233
0.138388541569663
0.13471367449809
0.13448569440405
0.129971720821169
0.134505085461957
0.133959660904618
0.136007412472211
0.131127226776943
0.138328433379478
0.129770797641328
0.132980741667493
0.130777902933606
0.133962037110721
0.130058122814208
0.132388384366851
0.127742014952996
0.132269839891394
0.127939493430998
0.132225867511254
0.12922999569473
0.130970680769127
0.127141615238733
0.128734783881383
0.127569404171119
0.131588106303133
0.12578711908844
0.130739610707644
0.125719787687673
0.127755217753283
0.125024946619089
0.129062096894746
0.127158084076166
0.128556908479251
0.125434008883514
0.124810363199697
0.121744880598359
0.126211233257712
0.125079482940688
0.124728789433557
0.121398428815316
0.125394798256004
0.121299851762129
0.126754113902995
0.123502254773395
0.125290733608673
0.120890976485568
0.126875066179032
0.119744808253537
0.124049988556982
0.123885928269492
0.122810241916238
0.121654518987571
0.12298626776021
0.116546621900326
0.123712646478802
0.116235383452802
0.116638118298805
0.115222702447788
0.122768728427797
0.118271610662429
0.116451998622098
0.112791333888185
0.117107239291173
0.112130046295577
0.116422998924971
0.117183937340221
0.116779244649187
0.112256470517545
0.118664700612857
0.112190153210054
0.113204556391426
0.110978066615461
0.114808314905274
0.10695514116487
0.113138080665427
0.109022144067735
0.110756532651945
0.108527745294454
0.109596934773717
0.105357619921846
0.111170694505475
0.103067210482769
0.111147317418
0.106410591249199
0.104535777723577
0.102670973003081
0.107091265714876
0.104760113043966
0.106742292551896
0.102664276404399
0.106871295386269
0.105590123523208
0.107085931364822
0.0997210571407335
0.106442767769352
0.10225917120502
0.103481199983502
0.100956472760448
0.103261102512389
0.0986616900696214
0.101854594312202
0.099251744474102
0.105561271115738
0.0968899758919312
0.101228209471666
0.0981228029406881
0.100948172799204
0.0965354314038405
0.0993209639057106
0.0964659059245049
0.0976989525517203
0.090635308162371
0.0957492213877498
0.094351251792678
0.0982290591613629
0.094270155570772
0.0952817091102153
0.0911244046657716
0.0941931423683699
0.092509948935429
0.0946666872197473
0.0896861274330868
0.090088267565634
0.0890064497018433
0.0877816269225955
0.0869377842873942
0.08740741279152
0.0868734105480895
0.0923387536926534
0.0854028148759883
0.0887980381696132
0.0846116694957152
0.0865958775200506
0.0853564345550449
0.0880255542348438
0.0818395755639951
0.0878810878187466
0.0811630024083958
0.0827552352074604
0.0826491601416055
0.0799444151291046
0.081609030337362
0.0837324845086785
0.0791964924676469
0.0832515419181365
0.0746795234027622
0.0781470136158028
0.0776603390834256
0.0815004082135986
0.0801888355713614
0.0816807853249768
0.0787705246450266
0.0780310545312007
0.0763337523730993
0.0809147629057645
0.0767183675140976
0.0786996576014356
0.0741196703834166
0.0757322876565808
0.0728045936509141
0.0788393267049286
0.0783093659463769
0.0786363192953325
0.0745751868487986
0.0783048079245725
0.0748487496324698
0.0753292242977471
0.0727655916435964
0.0768059435844894
0.0736923010124492
0.074743223191132
0.0718520955284594
0.0727567413800964
0.0703019868328962
0.0720062993693523
0.070620427316374
0.0735210627746475
0.0708890262268512
0.0734007531233706
0.0720492029698676
0.075429255957153
0.0702113044853323
0.0710016513591898
0.0712942199187908
0.0707474491662015
0.0715920457274497
0.0723338664412084
0.0662757678347664
0.0691218189245285
0.070282437366227
0.0726787818892138
0.0640909235980167
0.0693909594771272
0.0675209267463561
0.0658338100268667
0.0674599493626437
0.0704983079600356
0.0656810721117047
0.0690431125391244
0.0647845812467623
0.0674297901311119
0.0660931471186767
0.0671641097581214
0.0658800358926923
0.0650310847422725
0.0637203885698823
0.0684301464638166
0.063123740044703
0.0674881286137045
0.065556328463264
0.0671814031972513
0.0659079781207733
0.0661320799188192
0.0650615958010717
0.0662458824915257
0.0653700622082139
0.0652728113994055
0.0626422735795768
0.0676696622385554
0.0640439124906426
0.0665821946749106
0.0618217238233629
0.0664639564203831
0.062283106809755
0.064375569666679
0.064868723437126
0.0667771093766877
0.0624262429291389
0.0668693340128609
0.0622879330197415
0.0649967548980689
0.0625610777625113
0.0645597019615294
0.0612089409814169
0.0622908755393228
0.0615718130061617
0.0632273093414746
0.0608383417273227
0.0648009417368151
0.0643458661841033
0.0632446439640291
0.0602346424593964
0.0595024392881886
0.0582437078432734
0.0609736832568698
0.0578934516601309
0.0610821283581579
0.0581306073445127
0.0604676497801834
0.0579860008873969
0.0596451333763129
0.0580528674417099
0.0587675923965594
0.0555317041584191
0.0612008306318937
0.0568313873968442
0.0577328558521232
0.0570341139711103
0.0569608158925991
0.0599921604242831
0.0584314443000725
0.0570697136751756
0.0594150097749307
0.0545395912870919
0.0580839069750652
0.0583270045977294
0.0578357622761347
0.0570448100968551
0.0578806608838481
0.0560269456056251
0.0596721976691764
0.0557106877159369
0.058276714166637
0.0558107246863737
0.0542397134376571
0.0573362589579401
0.0590012537233146
0.0537886812688735
0.0565348276904738
0.0541883880908221
0.0556308276549288
0.0537448644044458
0.0548713155813372
0.0544654012392116
0.0552081365571502
0.0527665107833391
0.0547944867990428
0.0548780735696865
0.0557890517286102
0.0545097009349967
0.0539178627508854
0.0527573915511983
0.0554932774715328
0.0524009282431933
0.0563766029890172
0.0538087651350848
0.0524254736200815
0.0490878215286112
0.0545958360008802
0.0489894426910996
0.0513930267544942
0.0538263395128049
0.0516576506043754
0.0504793730233058
0.0521080065194129
0.0493426742808504
0.0531907599022376
0.0511844316065529
0.0526536388752367
0.0481699989181202
0.0478519664624547
0.047420648632535
0.0513933172121047
0.0478155789643796
0.0493109227599936
0.0477358393788885
0.0466771328543073
0.046257803368663
0.0466643529545951
0.0470829453714125
0.0495649685656547
0.0450770159828598
0.0443134022338355
0.0450984134119383
0.0490729778253978
0.0457657132154467
0.0435125126905695
0.045879049491178
0.0486826194670531
0.04644350466477
0.0470456735259867
0.0445475067124718
0.05025462055
0.0451370942474187
0.0430108979180118
0.0431734692896998
0.0431657869426191
0.0440411032180196
0.0460910877125841
0.0423719799180992
0.0457487340245277
0.044438099807358
0.043378790243321
0.0420919838535523
0.0438652458371954
0.0421933546754896
0.0444884558058847
0.043572431098607
0.0425607691235102
0.0402869009685186
0.0455434198230257
0.0420773151425006
0.0445043984151146
0.0442915501630092
0.0428537466931582
0.0410113479709171
0.0395780098306795
0.0387977353170661
0.0411898877586299
0.0402157701879421
0.0409701243785041
0.0394377920956432
0.0414103830569541
0.0405143627061159
0.0408362706015143
0.0407257062453983
0.0395510153442805
0.0391508410276982
0.039997170021529
0.0369309529528031
0.0406369008372262
0.0407091511278776
0.0422434674525011
0.0368834863068127
0.038869410787023
0.0392569347081319
0.0391166523222245
0.0384187322661184
0.0386871413437282
0.0383922708100896
0.0382706364414516
0.0354521497442934
0.0362953052298493
0.0343553473168001
0.0389361513974911
0.0363259313954496
0.0392259880782039
0.0357558659401614
0.0347565977402644
0.0354994926677202
0.0378534132189536
0.0365156911676013
0.0386390697997986
0.0363714863900952
0.0364024468945198
0.0366011898548444
0.0373197124492133
0.03836619876065
0.0385329149311557
0.038272466700175
0.0409608245052656
0.0357801723601268
0.0353220815474286
0.0359732129702229
0.0378249276237322
0.0368265438921499
0.0383882153491341
0.0369155437121913
0.037893884516883
0.0381506806128365
0.0417204034682947
0.0360728044269488
0.0298043518028084
0.027552818717686
0.0278155266479441
0.0319228449548207
0.0353022734809233
0.0309861951768868
0.0278361277147258
0.0295108608931229
0.0340324197642709
0.0310746934941803
0.0308174737836142
0.0349687415248851
0.0338197229574719
0.0315286427482941
0.0295439183759039
0.0284784705218665
0.0298245271755634
0.0339560971029295
0.0374196592757491
0.033252087013092
0.0346484371504809
0.0376081091211243
0.0332943971679248
0.0340336831356739
0.0329334060526617
0.0314228428722637
0.0301520880370025
0.0293402465506718
0.0274745860889893
0.035732804478815
0.0286524478165636
0.032244109302416
0.030252877867567
0.0329161138912616
0.0289637538839388
0.0380156175671667
0.0288633257466673
0.0301771229734204
0.0205098152618808
0.0316118902856974
0.0225602288585588
0.0408327720734404
0.0341233171186776
0.0397061841438396
0.0219989214041959
0.0341999680461926
0.0214861880490926
0.0444630276758527
0.0271576751647422
0.0330912557077145
0.0210606742330953
0.0458149540887812
0.0307751023928288
0.0351826205297784
0.0241290130949556
0.0404367717769255
0.0272175664741499
0.0316396792169097
0.0360192441991316
0.0318979797252915
0.0343667886493903
0.0311553692691238
0.0395887738875373
0.0253661871768553
0.0404459742358617
0.0293186350090963
0.0388965208226361
0.0283476636218821
0.0395256465622748
0.0298151912511602
0.0339165052579736
0.0299791079234562
0.0351399469072487
0.0321384902371164
0.0334009203838783
0.0323972762460605
0.0332530358267165
0.0301478307204085
0.0338941712806639
0.028112748074236
0.0336180241530935
0.0300503884856586
0.0316169807236582
0.0276511683231884
0.0318040342817646
0.0291258638134291
0.0306489464146671
0.0276560430446658
0.0337317925174435
0.0319094702727396
0.0332268855502476
0.0289804610147897
0.0324883026035295
0.0313349239416243
0.0305165476009483
0.0289751755091193
0.0343024803118403
0.0293714848936767
0.0304255198809949
0.0312558946938614
0.0331098039691153
0.0278838742464151
0.0313113610507555
0.0307161016774161
0.0319793124675774
0.0299324078427033
0.0338342481566607
0.0312347081228929
0.0309214191149079
0.0296702821266807
0.0345938874579585
0.0308022198019094
0.033122591114396
0.03114442815563
0.0343790324443821
0.0320215751226923
0.03243698084534
0.030511341253475
0.0315016479350179
0.0299539025988519
0.0324853487439273
0.0298603806483082
0.0324356766912307
0.0297452890194187
0.0347384433692015
0.0323703601289158
0.0334336831104075
0.0309518044640476
0.0327906871177846
0.0303829588974196
0.0321911339222285
0.0306417963295706
0.0330574671788331
0.031247713708295
0.0325174911447874
0.0283036382122968
0.0308646534443431
0.0298130124240244
0.0318409211007659
0.0309888961829516
0.0330756203522046
0.0306157051093987
0.0342710045695341
0.0296226614332677
0.0332857422483105
0.0298263861592868
0.0327312517892263
0.0300619246483886
0.0328349972499206
0.0308369100433528
0.0338639750876086
0.0328060741070287
0.0333788863853886
0.030732632105203
0.0312233645189746
0.0295087814501145
0.0324606989732486
0.0304515609213135
0.0347009731912436
0.0334380169895332
0.03375461279107
0.0303326000311225
0.0322787857082942
0.0310929749887671
0.0330276482319327
0.0317251068912751
0.0338106915267827
0.0303045929922934
0.0339998480950893
0.0335539625200542
0.0333600802161687
0.0335743617242441
0.0337717344297475
0.0295574255599159
0.0338024310525671
0.0330604835932891
0.0341160037483471
0.0331041722417677
0.0345482300277793
0.0316704968756461
0.0339710083624925
0.0332320180353475
0.0346228405141724
0.0312820072416309
0.03451150392262
0.0343828493677197
0.0362145063234355
0.0323314248821285
0.0344288443493017
0.0321914257784426
0.0314477360894632
0.0306417705263458
0.032597033953488
0.0330607223242058
0.0350365551470801
0.0324393721761652
0.0345453676285596
0.0327549339639643
0.033624656899359
0.0321619323673702
0.0356102565522948
0.0358012591483224
0.0352613445185725
0.0316106559006002
0.0366506708065914
0.0335578091807836
0.0354361034496353
0.0336366075344052
0.0347194898370845
0.0328690000827897
0.0345340925433823
0.0319560382319038
0.0351838689027215
0.0348384592519873
0.0359896190584176
0.0331895477655818
0.0346881704352703
0.0340130120644587
0.034391765261892
0.0334955747716707
0.0365008676789973
0.033067065869845
0.0357622370701502
0.0346277621905391
0.0348887030446725
0.0339363127456994
0.0371941776654624
0.0350997593482391
0.0351385872541556
0.0332943912618141
0.0375669011409541
0.0346711228260593
0.0382287031547575
0.0357953795937977
0.0356816701950475
0.034174066021316
0.0367203624875044
0.0356547189983372
0.038606846078222
0.0356581274270934
0.0364001707280367
0.0358503718160385
0.0363348840932033
0.0349954047001258
0.036493015556381
0.0335927649165783
0.0357638443948938
0.0354117781474088
0.0373696246413201
0.0349290383784091
0.0347751337221379
0.0331510600391161
0.0354907912433675
0.0331131409612781
0.0334545414262614
0.0335795233818356
0.0352197346259419
0.0335563106150911
0.0349838141445607
0.0323539243063477
0.0344357319501991
0.0336126616351506
0.0343145157229999
0.0306010638195787
0.0344058608410494
0.0334132741729648
0.0337085261592751
0.0332749042238709
0.0359185003412877
0.0340816985394143
0.03493831725915
0.0336379315773257
0.0341533346186825
0.030897008911061
0.0338834667654938
0.0339017011854772
0.0338077544871653
0.0331083262919485
0.0356336425808698
0.0331151521140167
0.0335162720748981
0.0324691986327538
0.0340184587033167
0.0322061206370309
0.0332395338271766
0.0321794879370844
0.0336090141252839
0.0314155303685714
0.034218042885935
0.0322966840875604
0.0327084781360807
0.0298957648047795
0.0349460621692401
0.0313452350948677
0.0329212468285991
0.033019816313376
0.0348206196374134
0.0324262199374219
0.0347065739082624
0.0310838689150822
0.0347017619125534
0.0328816223933392
0.0349965301797571
0.0334175415707742
0.0322817240452694
0.0319624244992782
0.0342553889085403
0.0303916611950087
0.032275359953558
0.0307416334970189
0.0333333040052583
0.0318398421429785
0.0317647707585222
0.0301277447821338
0.0346131099479087
0.0305394402592059
0.0307946611454579
0.0318998639427438
0.0309396735904688
0.0294823186336562
0.0329997778484058
0.0310829977698313
0.0328049316664834
0.0313734714918938
0.0329869418316762
0.0295451306539682
0.0305263407307671
0.0314674380811492
0.0323584774015908
0.0333075567712683
0.0341053454875848
0.0311028731619831
0.0328054866032407
0.0309650767613145
0.0311832071229169
0.0299106685325558
0.031351621848932
0.0307021497591913
0.0311073022434552
0.0312444193453036
0.0327829641173299
0.030379924997364
0.0324962602721181
0.0297230819165731
0.0305363306731645
0.0320112291262482
0.0322589473302059
0.0291471346307075
0.0299512227136737
0.0300544763517046
0.0320782973354849
0.0294211012184944
0.0318495625105956
0.0313548885304514
0.031572959293088
0.0294476977908346
0.0327175312462849
0.03068048908326
0.0321825077456913
0.0306331885203875
0.0295264734183995
0.0289277779982003
0.0313517750226651
0.0282890824595535
0.0303781346577229
0.0285936348776496
0.0309573916506504
0.0295545066153946
0.0316211492989185
0.0283766352961722
0.0294356616954602
0.0274079507475031
0.0306685023173179
0.0283251017345438
0.0285904650090132
0.0271542981711257
0.029963895523102
0.0261926721049416
0.0305198576664339
0.0291087983394323
0.0299276527901528
0.0249541071704611
0.0290021055183402
0.0281469857048477
0.0287429383961648
0.0264772335374859
0.030483441819316
0.0288270635227806
0.0261265964414828
0.0250579533354243
0.0282228308592239
0.0274199872474868
0.0281358664798541
0.0233999784575907
0.0252859617628352
0.0263218585761338
0.0256795528776775
0.0260241235850716
0.0277965373180116
0.0248807679496937
0.0254361979206005
0.0238554247519221
0.0264420352459608
0.0249244713276992
0.0260742425748113
0.0251957686096073
0.0310871467805625
0.0288178003761332
0.0262362409565291
0.0273958601585785
0.0276000162256584
0.0268346148853208
0.0258349544757768
0.0262557109287195
0.0278371177143737
0.0262168815701907
0.0260330617689064
0.0256622128328245
0.0267363916066987
0.0256399569220253
0.0253443387172952
0.0249647514543479
0.0256502902900656
0.0249185138475779
0.0261369750619936
0.0262447394978395
0.0241284756368789
0.0239824661213222
0.0260635109083173
0.0246230044348098
0.022947345110271
0.0270424025540939
0.0295367523313546
0.0271120687484173
0.0265550153585334
0.025784244881848
0.025787288390575
0.0240208247106236
0.0248612608732997
0.0247978266707366
0.0244267419378877
0.0224253633403607
0.0225696214361906
0.0228464819095015
0.0250685658751024
0.0235180144835242
0.0242444555289254
0.0238975823501124
0.0244256909339134
0.0234948667613412
0.0240301096546798
0.022415061949245
0.0242481640254635
0.0248220338562888
0.0238110025206622
0.0233246847686014
0.0259531625513239
0.0233183424683358
0.0245546945638883
0.0273807007530079
0.0277623525116246
0.0202658029703764
0.0258144279518495
0.0218662033804707
0.025524371810937
0.0230198182966997
0.0241955195713501
0.0225011888804472
0.0257293082149269
0.0226431776899659
0.025112846043971
0.0219272481673871
0.0249791889624325
0.0230560926167226
0.024919161990391
0.0208221711654313
0.0263002709291657
0.0232229606908028
0.0219606648404069
0.0217449764610227
0.0290847730214048
0.0261440218098297
0.026193922332989
0.020181821024006
0.0242450129081345
0.0251363719494294
0.0348646759850903
0.0224149955113584
0.0253649897963229
0.024627795561383
0.0233519925729703
0.0227791197456021
0.0245094681665315
0.0222504227609413
0.0238728602836739
0.026233746891842
0.0250383598282528
0.0248693817029882
0.0233906858605678
0.024219128010709
0.0217311214882688
0.0224070285582202
0.023668708383799
0.021670312633141
0.0233393091418912
0.0228635987188918
0.0222785222075996
0.0208295767751676
0.0215793266356253
0.0208438692822934
0.0254390900347133
0.0241951408682427
0.0223603690414745
0.0228115308850489
0.0195311821037345
0.0249287169566098
0.0276817404031659
0.026023657905682
0.0202086007954135
0.0247486129587465
0.0217103091615649
0.0221756796882185
0.0233083743342751
0.023687599960746
0.0215553046158552
0.0235340523738586
0.0232159132548972
0.0244522032236295
0.0241428174552114
0.0234396596275259
0.0219553861341401
0.0205743424300253
0.0226705575966877
0.0220777174159625
0.025087716948071
0.0196260943017601
0.023829538057069
0.0275265678125113
0.0335231230430688
0.0267031671628521
0.0300292770732153
0.0270340531622813
0.0239308933954012
0.0254199272184139
0.0220725923346319
0.0247973663658753
0.0203160071506575
0.0228765947674026
0.0222423603173208
0.0246789772952792
0.0229649402146468
0.0240797718546383
0.0196247987076599
0.0232647664581298
0.0192185220726253
0.0261777977937103
0.020459685362599
0.0249547993754349
0.0210320611522212
0.0279729074953046
0.0213634599344567
0.0321354311082098
0.0205243913789432
0.0224704482573139
0.0255892975993867
0.0380027628494002
0.0297930372397998
0.0235197673173448
0.0294651964593549
0.0208283486756342
0.0226288456156903
0.0206403721320549
0.026416028145898
0.0234535030807006
0.025292068964817
0.0220141117104796
0.024247029501936
0.0209678649171823
0.0176016592309923
0.0231826389846276
0.0377171169221057
0.0330385702361522
0.0245745247403997
0.0209815298416955
0.0240143591807377
0.0328906508581383
0.0330917718319257
0.0190486708120342
0.028188638321908
0.0219531815995633
0.0255930710565431
0.0227680741534533
0.0241664677278705
0.0269393340102523
0.0268162773893452
0.0239512025904285
0.0229365643122742
0.0254473150497116
0.0239550231376977
0.0241500911933417
0.025414079615213
0.0289375347006642
0.030188582151017
0.0231817146418605
0.0287578892856079
0.0264771737325033
0.0255653369966058
0.023211980355593
0.0248807218166337
0.028326752614387
0.0279204586750859
0.0265485012869238
0.028703355832493
0.031534046198664
0.0285288338148071
0.0237295602054946
0.0316350348461888
0.0263930372169977
0.0239608185591555
0.0229269969244016
0.0311446848361051
0.0440915838848813
0.026842734016951
0.0366252096345428
0.0182650751373565
0.035792083940139
0.0217335478411021
0.0300636525988579
0.0219224417254521
0.0390857271473102
0.0209137728913048
0.02790518669604
0.0246564903649286
0.0345245740126476
0.0285126857736966
0.0265573150256922
0.0265520656517985
0.0257432419879041
0.0308588054238066
0.0278774580001484
0.0246283130567837
0.0331016747110639
0.0476336991808894
0.0377104607907334
0.0328694474510807
0.0334855653545007
0.0350776641357432
0.0414064555522698
0.0261412149223987
0.0309809366990674
0.0319556992265157
0.0250402339727344
0.0250539724130223
0.0398661975536339
0.0428905349769979
0.031090536375906
0.0287126297337504
0.0344675523191987
0.0360392481206663
0.0484017531747824
0.0288970131106185
0.0373422237537668
0.0284143697174699
0.0326889667438004
0.0334316757376138
0.0509956507881118
0.0360332093513085
0.0384674764431486
0.0496782369853553
0.0406225705074244
0.0444468249397168
0.0327756906894227
0.0409926036882628
0.0432203082341384
0.0434780750259158
0.0297733438816765
0.0468909678798034
0.0447878549549519
0.048051128258109
0.0344580119145775
0.0439296949338189
0.025954680207338
0.0491559377313807
0.0724052713897554
0.0631849458872488
0.04280372319503
0.0488855518846026
0.0499470495620833
0.053285689033788
0.0431812307047116
0.0458882054514943
0.0451746463041092
0.0468883479513647
0.0468156870015733
0.0505358401899004
0.0503404615788946
0.050851249904066
0.0469520780716245
0.0465906955266343
0.0462465175074004
0.0882153179861164
0.0615761647238619
0.0734882932226267
0.0510327685701429
0.0745941116031634
0.0605325872330582
0.0619351441080105
0.0543831601672487
0.061634218467884
0.0639096027502775
0.0589435302628586
0.0564743906764151
0.0681430058190273
0.0662610975650909
0.0768781535862215
0.0700814073386481
0.0816699309957949
0.0451624342778601
0.0842536552232
0.0855625867885741
0.122248127368887
0.0695874477894588
0.0808169951483307
0.0802426207881383
0.119116095068343
0.103298517413506
0.08750416873539
0.0929221974191948
0.0963107704613413
0.0967181544193381
0.106496461492146
0.105531603598286
0.118175431649988
0.108984248763567
0.106323095278067
0.105902515804223
0.156742736644302
0.159112409915609
0.13945422138685
0.133603051788332
0.137042928915967
0.145972804851268
0.143079530425488
0.146893375397826
0.142839306182271
0.15488759248969
0.170581288655965
0.186106356506203
0.150710697633095
0.181804559369754
0.161841140250486
0.190027337546511
0.178093304602929
0.216414467528923
0.191687541409569
0.195380112320904
0.19883495767535
0.191646711802507
0.208996379207936
0.213546484184405
0.222266703097254
0.214966361993243
0.218894596789767
0.22031646573242
0.220151608343568
0.230058304325295
0.220838103996269
0.233599119128431
0.225972912607563
0.263347542762237
0.280273942464304
0.272178460938831
0.244571633090034
0.237307708163086
0.237142061040784
0.238151783521678
0.258663681238705
0.244900170767998
0.26165774565482
0.238752956767401
0.232041695838809
0.246657916270287
0.236503268850679
0.251717063814385
0.228592235612146
0.24259816130594
0.238654944499712
0.245497418375492
0.243361869793575
0.269192259535542
0.248963467249714
0.224655370723135
0.238428066040872
0.231299446646679
0.232102290476395
0.220540148997959
0.23494382070903
0.220191683852685
0.233399707028896
0.207896376895301
0.221579087905888
0.2156162603141
0.235317349336352
0.21724496282521
0.209286197678753
0.212809442339491
0.20422604520961
0.195057445875721
0.201306328601584
0.218871541743545
0.213114346603787
0.187160875252135
0.204147662943361
0.189034852055939
0.191044937301382
0.185940700939574
0.194598244842447
0.181729795217067
0.189598832421656
0.178894598611294
0.184636709635764
0.173943791156114
0.182361002622948
0.175351474674429
0.180330680801161
0.174919083167756
0.176843166243824
0.171675995644527
0.175371688337491
0.170397377812481
0.174699556181103
0.17137160564935
0.176279494334468
0.169551365656051
0.173942772739366
0.16759434438494
0.172822747091136
0.172378974381605
0.17460297000758
0.169193289553675
0.166427499070244
0.167022849844652
0.168276143125639
0.165173989581166
0.166093057136015
0.167646250756719
0.166486685921732
0.16735673575237
0.163659862383316
0.17052472728308
0.156338664679192
0.165627008391557
0.172472902675578
0.18469964875845
0.165296574959674
0.153102980896752
0.168695958657014
0.148667821129052
0.162517614009391
0.162822543853934
0.181205604038693
0.156401992210796
0.155275840777336
0.144296573469773
0.159080326764188
0.149841413085079
0.162848197386248
0.135846935547078
0.150382878632255
0.135995118738984
0.189712540920373
0.170333363999422
0.197736908591217
0.168491968894351
0.136064251162252
0.155425714264341
0.15077488568676
0.161841664314331
0.129986236481709
0.150737105895038
0.1457440307803
0.153165274099578
0.140995498093063
0.138431643909055
0.13577286969404
0.137810351251167
0.15297152767035
0.142402246621313
0.137617402601103
0.153842447993938
0.146160069271772
0.130981014246026
0.182847821568114
0.152257309045395
0.136720937782365
0.13104078729899
0.124966388201865
0.13794817718671
0.140928985671484
0.145314782935107
0.129901165269742
0.125588169273055
0.120787659419466
0.120053153946439
0.139038945691589
0.117649899893585
0.139053292833333
0.114547008065304
0.1319362352603
0.098521986783831
0.136826891789686
0.12910538162511
0.148317422644238
0.118675926883713
0.112552006817723
0.1195946676389
0.132515815118924
0.127790689778284
0.110893975437103
0.109553003544511
0.110132847826869
0.114262053746288
0.113471083469471
0.105734639011008
0.111558024633543
0.117962689349374
0.113872951928059
0.138955380204059
0.135186254495218
0.113452283878993
0.105424381265127
0.099663882918218
0.114030752762582
0.0942881166708088
0.106445073744149
0.102582002858523
0.109561996876772
0.113685577222448
0.115412077870081
0.124031159594016
0.103513811529117
0.109305541340354
0.106939278641689
0.108161769423261
0.130381035007346
0.135000483769651
0.121259120561025
0.119420653704307
0.122981352694733
0.128160213332748
0.117806424152978
0.129164676628988
0.120812888707632
0.130830219652963
0.130563327518893
0.140843373680526
0.136505031820819
0.142533080907807
0.136001923179111
0.165909472660268
0.151720723964951
0.165398249848519
0.137362445789189
0.192915006425909
0.172390274761135
0.183684911213232
0.174297828250574
0.17549816298367
0.177999452767379
0.18155311496032
0.179641092967153
0.194371201420997
0.197521310833066
0.210009559236127
0.185311312738715
0.206843560207033
0.189127393757044
0.215464330672623
0.201853070643721
0.225521385994556
0.216870249337564
0.237918094828756
0.226011751430251
0.212646828596798
0.221688099967043
0.215543293796332
0.226065343316826
0.219081980154719
0.217362332924939
0.223884092691802
0.230453571758364
0.230181402937202
0.220090846612816
0.227083246615324
0.224889250932393
0.226953673002166
0.229186953792739
0.230118648324974
0.229421177144125
0.234368078622316
0.223700060352022
0.241952649581589
0.24752092642813
0.269453945086841
0.238222875711098
0.247652612429791
0.247426813803597
0.245691143838694
0.250568608630323
0.254583469597963
0.257249052153735
0.258268332119674
0.257488648458022
0.265922658141897
0.256000753094369
0.280456634564414
0.264634123362109
0.277348416702608
0.255125867952809
0.265871792138993
0.267575762618028
0.292113277884454
0.29066478784652
0.265592361672262
0.282692091056242
0.271854103780651
0.277834576255706
0.267806789491124
0.27993548914922
0.27278978352618
0.281025594567481
0.273358214520801
0.281869243348496
0.280185398135962
0.273274596481383
0.281108898489647
0.282406692124013
0.280783295145207
0.271834504834683
0.277474173573128
0.266204653615884
0.272331775129738
0.280466109095981
0.283725313695244
0.277795330219532
0.265819165857071
0.276037279808713
0.278660579968762
0.279355518986399
0.268159067790417
0.265312759564831
0.270328003496422
0.27226209565889
0.267741580013812
0.274629132462152
0.274909685935588
0.285284176921944
0.271015938484284
0.277719279460875
0.273191026743779
0.283007999311284
0.279133441011165
0.28602705917035
0.281291570082748
0.289723287330494
0.286663940953938
0.284258042988837
0.283581186505073
0.291899846199014
0.290043302302658
0.29626170270143
0.290300078986496
0.286281521936076
0.281748526398878
0.284543729046514
0.284529580852225
0.284277081201848
0.27446854508769
0.279691195607099
0.264068175737331
0.276468256339525
0.273983861055467
0.280023169001447
0.261544344877307
0.271572814229626
0.257222208861549
0.260241445890125
0.259158614612617
0.25697544665566
0.255688222272311
0.253809024347433
0.25261193680882
0.251854855755366
0.24776473004284
0.247171294263211
0.243262438832967
0.245271488899647
0.246501038385867
0.247692751536711
0.243135690035569
0.245383810544326
0.239910289185543
0.246554711500276
0.241443186542675
0.244143114012351
0.243992540046593
0.250160334588262
0.246768462956246
0.246306540088545
0.246210452087047
0.244297584863495
0.242010278204131
0.237492964524109
0.241982952997047
0.239971304665865
0.239248562301353
0.236903212493733
0.240521541148942
0.2406832738344
0.240549585268273
0.237542372149868
0.238551092490874
0.237209417203637
0.237534367640273
0.234631112729906
0.236479537036688
0.233819088774728
0.236634880118115
0.236473477990495
0.233367722461041
0.234278170988732
0.231317888898078
0.236677821679423
0.230757534607925
0.236276236637907
0.230810412054914
0.233079144801094
0.229280031283174
0.232466743375848
0.232805416616216
0.232481770833336
0.229097389498751
0.228082378409753
0.226368760743377
0.225780804492991
0.227391295323924
0.226740083049873
0.219689821472537
0.221686434156416
0.221629673554568
0.220150746483257
0.218173028014324
0.215779671583017
0.213330837852167
0.211276444259086
0.207621249211739
0.206005110951156
0.204465024792807
0.20398838079961
0.20105505956805
0.200789667540765
0.200097439929279
0.200745780346618
0.198879890256918
0.198281258550912
0.198154033201607
0.196367494452261
0.195942898403354
0.196653793635522
0.19681324428869
0.19763509863796
0.195033831708072
0.197071405493403
0.195751728807526
0.196064044979359
0.19560747454492
0.198821164192385
0.197156746062287
0.201157625683856
0.201073293738355
0.203823691284915
0.201145374637816
0.205506516842101
0.204054318814752
0.206017017842443
0.206709472483653
0.209289736099016
0.204745237523609
0.2079592846818
0.208877595967567
0.208889763071898
0.210464409430149
0.212226195469673
0.211070515871669
0.210325231689059
0.209742392466595
0.208643099972349
0.210139595978664
0.210383229897584
0.209895486617567
0.208879714276417
0.207637382089695
0.208070246286976
0.208003690581463
0.208705037123697
0.20422286479399
0.205468893400295
0.206129764941108
0.202756127077057
0.202815230070652
0.203793761811198
0.200811325140791
0.200609634074539
0.20238067376961
0.200211757479583
0.197795774605309
0.197204938027706
0.196616301648297
0.197455192835405
0.198435890984737
0.197836588101708
0.193803277865193
0.194510356316878
0.191565275945621
0.191534295884828
0.190389498793907
0.191581529462295
0.189852306378071
0.189763172132911
0.188279405365409
0.187693865102412
0.186004201544926
0.185290814811489
0.182999556874782
0.182112074799694
0.182783402104283
0.179602645631453
0.177734927522163
0.179862155499176
0.178641115627773
0.1758054859782
0.175194187106264
0.174490385282306
0.171343551932484
0.171923419320643
0.168948770059645
0.170277683777659
0.169245400917977
0.168817334571008
0.167278715853459
0.167075594414345
0.168406334129698
0.167691268888797
0.167436159190235
0.167935340198972
0.167440712030086
0.165843991024909
0.165328200677265
0.165855444848883
0.164723291808848
0.161637666772882
0.159388337701475
0.15960132729698
0.156657374292639
0.156513346318152
0.153799213295206
0.150557199429454
0.148477906149885
0.147612389442534
0.146315645853061
0.144904800120863
0.145732797804839
0.147058837993053
0.148163971474145
0.150292242491616
0.154315893224027
0.156676683434994
0.161138692073285
0.166832219617772
0.173141031141217
0.179293468383334
0.186137525935952
0.19589033250926
0.204132660931944
0.212176655464272
0.220667504704149
0.232183939130279
0.23841056463782
0.249095628504738
0.260180066506209
0.269041975958046
0.278222455899347
0.288422001275332
0.298638647119135
0.309102301485217
0.320658418511173
0.329697495196749
0.33859245882183
0.348693301211166
0.355954626912045
0.366319408371421
0.373409393010845
0.385184525031967
0.390359724881454
0.396517479799881
0.4042072746075
0.409883597979074
0.412254383619266
0.414333970908703
0.415546673639586
0.416549807096792
0.417332575048633
0.416101711031242
0.414562483681848
0.416390583530817
0.414303175175962
0.410821368439127
0.411376818660515
0.412655300459585
0.412559184137473
0.410783893495765
0.409050727597011
0.411204463365533
0.410453376176488
0.409792205597873
0.412050766915987
0.415188202552215
0.41202284863317
0.417842010629546
0.42347545459259
0.428920537264931
0.430483969812937
0.43201103163249
0.437478951479589
0.444142623601353
0.4514275283806
0.456448229151464
0.4644930273355
0.47237294998974
0.479004622897919
0.486267369878723
0.490285041970335
0.499836624019009
0.501684971092236
0.504882901867555
0.507128611253618
0.508436347888534
0.509010324433858
0.511258002859135
0.513054475586519
0.513332313837921
0.505079388927584
0.505718784843361
0.504209348149743
0.507064718093308
0.506396783165326
0.508010794034011
0.512653300822307
0.513492348627398
0.517786032407026
0.51984534990894
0.53087805148387
0.538302589259488
0.545753385217255
0.553497464054573
0.55888503415446
0.56682786156586
0.577268283931371
0.589427257349305
0.590250135311416
0.602461638098467
0.61353094011692
0.618693846915467
0.626715944940544
0.641082187017743
0.648166950408462
0.656484871480332
0.669755142007721
0.686578998200808
0.697108026545278
0.715613158355369
0.737116286515963
0.750578406581022
0.75135221397435
0.781340316689015
0.783911496394478
0.799156876650127
0.810511450572196
0.818822155730177
0.828360319354098
0.823880942765684
0.835791968129364
0.850040727702838
0.848239664911505
0.862954133665746
0.868267381634276
0.858112653029442
0.859992463666116
0.851336293125556
0.843652486009818
0.848135269258328
0.846197843979853
0.836994628628227
0.840544494532304
0.83682203441419
0.828971477181528
0.832591360379087
0.835810199630577
0.834808268302379
0.846388893016134
0.843879726450844
0.843151155688449
0.864764026323764
0.859036243943253
0.8585173413771
0.868519498295911
0.882445220690298
0.899110265088432
0.906644796435862
0.908351154965043
0.92994598490478
0.931464977838064
0.936434912455618
0.945823878249419
0.957616462734014
0.962813249337114
0.981962556984353
0.977360476741598
0.998255391622683
0.987317844426314
0.990796455811728
0.996924646039426
0.997984111635222
1.00173127202325
1.031630568672
1.02034151027553
1.02602141919315
1.02412984735604
1.03097024168849
1.02436346588428
1.02979439828817
1.03030693931182
1.03843422507649
1.01996788655377
1.0092941046621
1.02595948970034
1.01681667002032
1.01244707009461
1.01543687240526
1.01229711549247
0.992137940394039
0.96861748101455
0.969284522842529
0.942122670766681
0.919197929621583
0.892786524825427
0.871110779715216
0.836950594702403
0.811668251483415
0.773834649045083
0.74951425494489
0.721765824531158
0.690783285431163
0.660780577400849
0.641915774732837
0.612940721412877
0.603038020448874
0.582276008507103
0.572877681738991
0.559825205043901
0.557407473511345
0.553613212870458
0.55431679078689
0.531097735283226
0.528065696482415
0.51927081849095
0.510933306889803
0.500067243994651
0.487930913525379
0.482920806354031
0.471086565215287
0.454942459232145
0.440957202556181
0.43492043686243
0.415757576444519
0.40283206565861
0.390938774292279
0.374428950355587
0.3591043300271
0.340947561850715
0.326216474440342
0.308020872481275
0.293517337615758
0.28248763841663
0.266125907971002
0.250821011748234
0.238766332116035
0.223745650159437
0.21478139569758
0.19805254258285
0.192882722456778
0.185956938961323
0.173153872182708
0.171016547243489
0.161284383029345
0.153893858710405
0.147727406769843
0.142288354809429
0.141278016898428
0.136954209560618
0.135179560636232
0.131259996872276
0.12919554834318
0.125430437624291
0.125461358371603
0.122812343165918
0.124905142949006
0.124233447133646
0.125809743430883
0.12519273557521
0.123290383521688
0.123504237181234
0.125366342789995
0.127700932817514
0.126433524964852
0.12992790371786
0.134294016257759
0.131918347176499
0.132976078107904
0.134852886997136
0.134851826222901
0.134714883382611
0.134160764393144
0.13555025207928
0.134488055702532
0.135435700746485
0.134061546586443
0.134724671644668
0.134506619826006
0.130420787511923
0.131576321366568
0.132323973551456
0.133540975505046
0.136560881652001
0.137795400396658
0.136001080008855
0.138021872645373
0.139325213118378
0.13701599027883
0.142249004585525
0.140471441472194
0.141926871859189
0.141691714689417
0.146277970219463
0.147604273850675
0.145495688540204
0.146403486918031
0.143402915693236
0.148024658204258
0.15050256620581
0.149197332253684
0.14649446445038
0.150370873731001
0.148386024846578
0.151316164807142
0.152173887445162
0.153892196353412
0.152800299449154
0.149206717341326
0.153917523244741
0.151088656335657
0.157411957254355
0.157705770289438
0.15546121597741
0.161200390533799
0.167543916784783
0.166639178828386
0.173527476132443
0.187809583794353
0.182476450951137
0.188422390188349
0.189551693228825
0.198739349668124
0.202870987018509
0.201802719540145
0.206583336808694
0.20327941591278
0.202307799495221
0.202626598059909
0.193666342151271
0.189896509065835
0.186223861207369
0.18391320086421
0.181251245057595
0.180882817630399
0.174965607239454
0.174059066657365
0.175366802174836
0.174519901411491
0.175896011960215
0.177486411464614
0.177156229545809
0.176246696414102
0.171085916692137
0.178799561062109
0.176698198135815
0.177051048765933
0.171735991893536
0.175344881124986
0.170309596683862
0.169535618175397
0.169393812280279
0.166164215796066
0.166143664424463
0.167358651549377
0.165846747304161
0.168155551658433
0.165228859934152
0.165377239505662
0.162385823181163
0.164063521579454
0.15800830738121
0.154964787757673
0.15909710795077
0.158875755830139
0.154081203039242
0.155608652709146
0.157705869609604
0.158278503898146
0.15657500464289
0.156448533650245
0.156885687506867
0.156538342113207
0.152298592683418
0.16013646728389
0.146499336179919
0.151845269373021
0.150537887445863
0.149549696339884
0.150059737336441
0.150700196163066
0.145499075238512
0.149888277766186
0.144382821631552
0.147125848521426
0.143906257013227
0.144774857953223
0.142432745248125
0.14860634919457
0.14290278589564
0.143828623438217
0.143385972213026
0.141780766972562
0.143311930124153
0.142124305554307
0.139892603753549
0.134191036841611
0.135948622373615
0.145715404485358
0.136211833871528
0.137183425610282
0.144063179913838
0.147449387949696
0.138802291692428
0.147252495631355
0.136327784227802
0.143896349801946
0.150297672939465
0.150554705868559
0.152350477696752
0.15271244759329
0.144836842624114
0.153093902432612
0.156859052748911
0.15505289765962
0.152462767049096
0.165516148993281
0.161428676551332
0.168898721076102
0.16257412168081
0.175582889905613
0.170123358777153
0.167658645259778
0.165157897145873
0.18042890107698
0.18707479352942
0.194988938224811
0.192490322454114
0.199209442826331
0.214916920234983
0.21455831622308
0.207096206665349
0.2299097765082
0.226765619789221
0.237164964884203
0.241913863542608
0.255368966395338
0.245624726550252
0.268547760701148
0.264347924680263
0.270508453281296
0.270912722694024
0.256086823858967
0.265314470782056
0.281840270760934
0.275671258432357
0.273800199535409
0.262756788553209
0.268184231926062
0.261601374787205
0.248288002450248
0.252819716599869
0.257954013885338
0.247103727375727
0.263443462285193
0.258473210328315
0.257326862215294
0.266738500995047
0.245582270318784
0.248411367254584
0.256847098302363
0.251145863869973
0.26566282349215
0.250978650344808
0.242887649466967
0.237052519147985
0.247045538584707
0.249374675058497
0.256289842017354
0.232959164799278
0.237806641655695
0.230856073445527
0.260675212960569
0.227176016224617
0.215005652481429
0.217700185593216
0.242815886295831
0.238226108355286
0.237308000809197
0.230301405121211
0.249569099633637
0.236027342814322
0.230421166193372
0.233689976005971
0.237750224666769
0.231085341796523
0.252666347078627
0.262456913768308
0.222219957165494
0.222472546221824
0.229029254219582
0.244434491188367
0.236130930304952
0.254731834151566
0.233656833206795
0.231002529104238
0.263589406990046
0.246130355381307
0.264622690259213
0.246343064403764
0.256845602958062
0.258915428334883
0.249142359140546
0.248037200943109
0.259895204667485
0.253747778688742
0.26691588961085
0.236795443560667
0.2515213562463
0.247268679549384
0.284313779917799
0.225696561893
0.245914990672599
0.291012046663403
0.3061340282342
0.295679667449321
0.321057101657886
0.269091226031888
0.31563329954856
0.261214136962219
0.319837285955041
0.288796550980841
0.306447827821845
0.329982975539854
0.321409670396892
0.313505689604018
0.355177920182979
0.332076961556769
0.356006283858587
0.32727678294561
0.352295879549093
0.329324311419745
0.311927263608942
0.285536517704876
0.284912834832742
0.349743743451409
0.358240742759872
0.319351830249844
0.361883340901025
0.262933235868084
0.293743757691401
0.341123270763567
0.293747480216577
0.334561299433968
0.333276509420645
0.243760088637686
0.317701175598792
0.300189810898367
0.298278217256094
0.322619630368043
0.307732122872585
0.247206877581342
0.296503604126339
0.2527616512741
0.275589670075805
0.284611681435655
0.311743267651096
0.332839147404474
0.330684121332457
0.332716763845111
0.433018987905753
0.251972443607607
0.268316841714255
0.210997560514595
0.307659844544535
0.320518372561688
0.37627814752042
0.306949603034571
0.420565271785002
0.426434274955554
0.360920589221364
0.328149901641195
0.411183028746086
0.388716754492198
0.321421866050994
0.293251313504176
0.350496989930934
0.189458125395431
0.354410950574821
0.346709158615382
0.360949116657705
0.236325655755928
0.182242669491623
0.272505308393194
0.554517274795571
0.269813832503162
0.718108543929369
