3596
4000.36533379555
650.420452594757
1
2
2
0.0581988695280933
0.0701206138915403
0.0628919131606345
0.0639081432550034
0.0555109774959265
0.060307579487484
0.0619231540886368
0.0656697610232722
0.0554314618194065
0.0660681771915147
0.0635117488292438
0.0680948652924603
0.0527905816437775
0.0602237496852948
0.0609347183650029
0.0656394768696653
0.052019860417458
0.0613137096360422
0.059055042052034
0.064953618641275
0.0594615935940619
0.0658895600678173
0.0552198422255984
0.0629969348155599
0.0627986159898386
0.0732930751121112
0.0636388816920582
0.0639659635339221
0.0557121611783246
0.067476243036027
0.0578115649429703
0.0696595209259868
0.0601788277283006
0.0679942527804188
0.0612418275934767
0.062732871827257
0.0574398152387636
0.0714995089385989
0.060152034854378
0.0686006942113337
0.0681571464591501
0.0657904881326955
0.0571242025962286
0.0618569015442908
0.0616979977502953
0.0642607267050434
0.0581519956339027
0.0704345160427641
0.0560686249877335
0.0653761654928708
0.0596745485877531
0.0656909793489548
0.0669225148721635
0.0723917921571933
0.0623044732025305
0.0696988566008932
0.0558074866416216
0.0689997689873435
0.0642427129458307
0.0530440783576697
0.0703856206136313
0.0745195904256452
0.0577087445273669
0.06284352927496
0.0570782171214978
0.0617696976308137
0.0512710944953545
0.0615754870172493
0.0611234247829676
0.072011902038439
0.0551664904154062
0.0791056591808732
0.0686986032720199
0.06913017703513
0.0566775256258502
0.07216805824297
0.0612506059203905
0.0532443882341147
0.0480210462254718
0.0688886867979232
0.0593001642842241
0.0589007635439164
0.0534399395669952
0.0507675607228793
0.053182074280364
0.0815286412728194
0.0482767596647413
0.0624922440784734
0.0659690028938609
0.0744809733086206
0.0555689874063348
0.0625253907254238
0.0560943289077102
0.0633019558077892
0.0532868049296383
0.0589431264835175
0.0528940136611565
0.061948741454163
0.0445318916378924
0.0707574183748898
0.0382170342578381
0.0753249908452961
0.081473827663292
0.0553712369227687
0.0950861098429244
0.067483577107301
0.0590254099801045
0.0860615218702157
0.067772959469534
0.070969230830648
0.0576977680714001
0.0583863148471797
0.0551633797586656
0.067301145850356
0.0308294133109928
0.0683168808598994
0.0730748911666615
0.061659931878339
0.0524805432649302
0.0641282294006911
0.0270113723713448
0.0922941817197071
0.0732697366250947
0.0615867851489295
0.0608026385332451
0.0567459853892137
0.0380543713137117
0.0854874143785554
0.0660673904798098
0.071285736733691
0.049732563951365
0.0644907932996818
0.0377187400374811
0.051244501734975
0.0764293720786792
0.0697619578288162
0.0515110823371914
0.0347879232506157
0.0476387128953115
0.0918378013621777
0.0668217496884655
0.0692212626313671
0.0349421520394799
0.0634954089307721
0.0878342707264258
0.073191113198893
0.0377713369713481
0.0819436309484127
0.053907145219763
0.0589976968549326
0.0498001587895521
0.0521191376643192
0.0661413700359083
0.0617704829470782
0.00165104018274361
0.101194581770262
0.062906851288804
0.0957915740698646
0.0820288161265902
0.0662501169287172
0.0543691742358471
0.0599284308752817
0.0551038143243195
0.0569966552860356
0.0606659045474619
0.0478596998245345
0.0619900777625921
0.0775457297806803
0.0495932923716987
0.0551016340551519
0.0745904129151741
0.05760228756853
0.030599003735344
0.109107637952387
0.0514346237761888
0.0561390395992732
0.0682140150065437
0.0809007456054803
0.0435715123756104
0.0778598548313949
0.0697975129411099
0.0690488205614693
0.0543473128874012
0.055948737280807
0.0494683879900438
0.0759656636459415
0.0570548997061428
0.0672105475012041
0.0509747577032551
0.0517845722967672
0.0468278616681937
0.100900923379999
0.0704958730135351
0.0760869065996011
0.0481415212978143
0.028891006963659
0.085471388701148
0.0919760954880825
0.0546114919085143
0.0536488989957675
0.0533360879815313
0.064936126511264
0.0490111574944067
0.0631124317979761
0.0380925146782973
0.0435858214136661
0.08043271533282
0.0811765141276513
0.0565392894237364
0.0548280582937804
0.0471196088579821
0.0360422869834394
0.0885149575110413
0.0726835573096727
0.0612349392182919
0.0636130616996123
0.0506536076110393
0.072677416240099
0.0704925971685541
0.0674936784670836
0.0573639675149829
0.0654729642108696
0.0577555501342468
0.0571210269314772
0.0535871196480848
0.0584499166612478
0.0541682781196712
0.0597647097455492
0.0621890305596715
0.0646248205146743
0.0627898120319891
0.0627504194443387
0.0507504365461158
0.0591003523842197
0.0385638200175531
0.0776969646444106
0.0701107770867554
0.065465219089731
0.0550668226727178
0.0666771832283107
0.0563981169310769
0.0697396791498231
0.0537675695214331
0.0713929293390224
0.0478829557133285
0.0614328580356874
0.0861410769031917
0.073830652036438
0.0658936316452308
0.0512689169903743
0.0786269091210253
0.0776930638379376
0.072249940218437
0.0605945693318633
0.073973012113442
0.0551689375621559
0.0563071500492476
0.0827108863661219
0.0686834816400304
0.0589426253683098
0.0804623525784632
0.0594835803335661
0.063351954544389
0.0445118578575472
0.0490258450350998
0.120862490923515
0.0509968622476996
0.0552930754578517
0.110395755006207
0.0803108379944536
0.0795514575099943
0.0528170875292504
0.0215534653515294
0.125243026233582
0.113260372815364
0.0740668723792362
0.0619251257539583
0.0755313394551983
0.0598472843144661
0.0713084777990834
0.0544636145371866
0.0863517519642989
0.0620208347257548
0.110275558252162
0.0920371751805532
0.0592164843948483
0.0821526961311352
0.0829757149874812
0.065249778698333
0.0730065408016951
0.0668891785776425
0.0560058324269972
0.0748810764377998
0.0719599250434229
0.0896582301018602
0.0708403731769363
0.0719968210967383
0.0898927888155556
0.0816209079931041
0.0675249075669453
0.0746896844185512
0.0816412368095127
0.0736227506595914
0.0776877745332034
0.0693511557906326
0.0924327285767769
0.0608386666820307
0.068274237569709
0.114411913837775
0.0744334071849402
0.0791442769346101
0.104281148221664
0.0832401452498877
0.0848032571157135
0.0757982065119514
0.0742535946083572
0.0774420531141447
0.0771405329067928
0.0705721280245648
0.103658947639557
0.082150331185121
0.0874385983005712
0.0797162035324716
0.0879720379078794
0.0768215999337529
0.085461057245181
0.0780481709996564
0.0880797510103888
0.0784014838748696
0.0758371201592207
0.103689849693182
0.107265497163184
0.0611512435414109
0.122155282455913
0.105301275155632
0.102059607137558
0.0870351979567553
0.0980779322069316
0.0922109784830113
0.100972869381206
0.0955596356958062
0.0972453234016728
0.0997248796244232
0.123971078295154
0.101726724293876
0.09999043717283
0.0901727641508309
0.158142298629887
0.151061615363946
0.132458638692882
0.106879138507254
0.091650631874834
0.144665354851857
0.123514699218322
0.14197082302423
0.143898087500885
0.124735211802865
0.127396847680636
0.123156639064945
0.131412715713654
0.125285680987414
0.135768441193367
0.133242211568608
0.143927119459835
0.132376737349343
0.155851290251511
0.123987034850407
0.151425346850196
0.169279720889048
0.162795689177328
0.153447983833286
0.160481757394115
0.140110907114741
0.190821837489453
0.15971705381474
0.219965076008726
0.166257487265168
0.20301931931259
0.189807606009581
0.190310014200648
0.164464517225121
0.176918364751601
0.182031035351329
0.195025443850353
0.186989420056256
0.194269494209287
0.184820343411911
0.210951595069775
0.1996733927303
0.216005169266492
0.187590017363604
0.221658730049761
0.218722998059543
0.229904609109044
0.219069053620912
0.209526966061253
0.229182529959502
0.264103726708993
0.278961371888075
0.230590987230995
0.22644384595423
0.241966859542212
0.235453641365473
0.248434018828356
0.257353094322202
0.254877244005863
0.247597505618908
0.291992112652117
0.273063094644311
0.300763153130305
0.277034555717906
0.272726008336949
0.283399632614738
0.284798331709635
0.291832646578791
0.322411141218664
0.289541800927408
0.293439312182964
0.318011413214373
0.309848953645284
0.312098468921576
0.326502127104294
0.31190090752937
0.311967760446058
0.31710632354121
0.336608884338755
0.319533026141957
0.355605503368347
0.336448621083402
0.338077827942562
0.337401263951757
0.353475491540885
0.348129731535338
0.38899642391132
0.36033815925206
0.375707990637724
0.365729762286848
0.381717935356114
0.371093169552277
0.350361967228225
0.39811073822547
0.396294059894515
0.386213267077763
0.431999375282427
0.382396712519404
0.401362968606793
0.398613345566166
0.408607130110032
0.410413472273283
0.418659443569286
0.415787602602762
0.446303265953744
0.42809334436927
0.458899623852998
0.435240162696772
0.464942517893896
0.44608571083086
0.47186786846423
0.453987963135265
0.471254970246575
0.457744641852262
0.476699638571396
0.479434345991279
0.510335156623469
0.491267057108216
0.519705520456888
0.484576786088801
0.526788054920506
0.49936484503565
0.526818072352782
0.499939534395851
0.549008682145509
0.532615250561552
0.555599285925573
0.541916759272526
0.561249508923159
0.543173834903282
0.582338514630477
0.544411885813389
0.59908820659235
0.551693357617673
0.57828738004072
0.56243033786714
0.601053871431453
0.56565247589239
0.586687489999875
0.575561960749761
0.620827848568584
0.598015373316604
0.652738155636282
0.614098401782999
0.637545708523936
0.618078906326408
0.636499478674007
0.602449613863562
0.652069403784747
0.606550598213031
0.662130636631474
0.63249579619987
0.654575883122522
0.654415401293004
0.706047624992715
0.659146063132672
0.715350741062349
0.661137392576262
0.762375864421008
0.686084758296331
0.712681437354791
0.692454076656182
0.723823178782907
0.719709382225335
0.767933810381302
0.708234922252933
0.773192372366209
0.702840586151593
0.780411305569397
0.72883096659657
0.794305665700594
0.729354876856979
0.766904140373713
0.729722328418186
0.777453790155674
0.734432351477806
0.776711249964716
0.785114342723304
0.876128374592353
0.763883618522944
0.889737845853137
0.802412852158874
0.847298947021135
0.788346929759451
0.853034804186719
0.781000162898779
0.853215519995979
0.818945610195647
0.887741823697009
0.790134479636069
0.866337415593359
0.759389938552036
0.913766204628688
0.847597183486177
0.90936616245855
0.842188997940469
0.963013486390395
0.857760039500475
0.932906817729093
0.854529503396951
0.982834676755405
0.896973004934342
0.93278287546982
0.859927694336486
0.95401070141938
0.901075021359212
0.918569577552674
0.915135426566082
0.989483706476163
0.841805756051775
0.993962651464448
0.908859407658314
1.0515681592905
0.927688863403189
0.996590309913083
0.935561082052215
0.982823686983794
0.998215655450968
1.03805422641046
0.949992257824039
1.05386209323677
0.967193108403168
1.09418863752049
0.977301848618117
1.03849460287248
0.966856322761206
1.11779030342328
1.04858433766273
1.11858717211167
0.998507194909365
1.13000325376308
0.998932385379869
1.1531235529928
1.01939667030383
1.07970231421479
1.12174332517512
1.15460473116161
0.932333782324767
1.13087744261823
1.06635067489324
1.07658729521143
1.03728781111314
1.15609040145218
1.08662063131442
1.27544772135969
1.13951887219581
1.23176859412334
1.02829365608874
1.16971900350107
1.05742693106691
1.21289616087906
1.09011911511771
1.24890980546242
1.0919368308709
1.20920853140765
1.02012593887762
1.33954565092709
1.14210494855296
1.18345784581792
1.06803132452152
1.22817257080793
1.17701627313359
1.2627794968827
1.04799613055458
1.37724059687209
1.16182099498753
1.52614959977131
1.21167790942665
1.42412867375489
1.22596008104933
1.30922178511378
1.15614687116147
1.30700784679212
1.15937403499037
1.39643421717201
1.26057345128698
1.39440637785618
1.13825616088231
1.29647017785068
1.29842201556783
1.38400399631335
1.11141172123402
1.24354164025922
1.36253766635621
1.35283295519151
1.30465016761868
1.38099585927575
1.15546411003241
1.39006923635296
1.2969735182884
1.45871581822641
1.25445554242421
1.33057110772309
1.259762500354
1.3748674097449
1.30483866878555
1.42647749215267
1.28900330974116
1.50637011223117
1.21862980777366
1.39918074249516
1.23192298597255
1.48860719902709
1.21957617560024
1.43535441367718
1.32818074809039
1.68198501085814
1.37672081806563
1.6061990608319
1.29855743048626
1.56449889806405
1.33598307450767
1.42711042052224
1.32010799850438
1.39198091561976
1.38366780657069
1.56290596606927
1.47113130640448
1.60438049343112
1.24907443152251
1.38803540932742
1.2795827023857
1.53620157499974
1.37248073576984
1.52521059219097
1.34846807214778
1.67101903278203
1.31609467014874
1.63338077852752
1.35727129576987
1.65433241528167
1.47959700806532
1.5676233629492
1.35400794039368
1.64732335802636
1.49456793471105
2.02710346836461
1.40315022716988
1.72091411780662
1.35024768508429
1.44830571935557
1.50321963927457
1.63802168715021
1.32963221988744
1.5836450395516
1.34445625660886
1.52392572216163
1.40237972645745
1.79240227852009
1.33305592899203
1.64375317826338
1.36304650542642
1.77272096597409
1.41244883597986
1.49983220610862
1.46566061335227
1.57416256573466
1.51900364520724
1.50596288073597
1.37998113073676
1.56724047942886
1.40002345627238
1.72007879858355
1.46375643783869
1.71402500609459
1.44156556036553
1.62140040323308
1.30713142857359
1.84468733431739
1.4904711153466
1.59690411832033
1.54615180230049
1.57706773112434
1.44330108974378
1.60342808146028
1.39752356925539
1.48941394477699
1.50021260614776
1.58692697423184
1.55860342591701
1.635800916209
1.49886677332751
1.66809408935554
1.40880458255359
1.54944338241848
1.41422707358023
1.70205726321475
1.57146138679149
1.79133156610412
1.49651275816316
1.60842761469755
1.40457305494522
1.67248504628746
1.44764711166662
1.62845943112883
1.52104233143939
1.49535746075214
1.45984046734857
1.78964025178419
1.44903175199536
1.79468268481881
1.36643694798128
1.63540734333804
1.54925002192337
1.64914738564585
1.41936695419875
1.54237450392869
1.4502298677922
2.20303956005506
1.4378023104858
1.64646415317119
1.62207499702907
1.70706146749878
1.46897961642224
1.7136421186623
1.43967113192223
1.71323980101826
1.36717504164367
1.54457330937999
1.34184704616454
1.61515862769496
1.63456661854911
1.52604337583539
1.3624998250882
1.52348081167085
1.54399868049008
1.69139776818656
1.32196977515204
1.64416223449013
1.40473350770047
1.56437958259912
1.39278823078715
1.57307941841638
1.5134883888648
1.7024666174662
1.53017196888978
1.5706002508196
1.48230423084052
1.70651351407501
1.49449763461838
1.61213660171623
1.34804595236855
1.58833075454649
1.43870579549238
1.60697425041954
1.56413264598242
1.62017096588306
1.3934838548819
1.44077778017564
1.41873043654737
1.46227701348577
1.40386463106949
1.55082966674473
1.44616068097009
1.60240364162866
1.47272288300886
1.6719090668587
1.41473665610785
1.51900697698933
1.55049255802629
1.52227641295813
1.38850719243628
1.7302310491843
1.55655125034464
1.50446195368114
1.38160389558428
1.77459867362008
1.42682558875291
1.70991596813781
1.40903593236062
1.60761980969065
1.40720105676453
1.50962950639347
1.37973590388008
1.48967886299971
1.46725010436648
1.47338944665941
1.42705264236989
1.48703671938658
1.46505623975167
1.48633398882885
1.36712895506144
1.51551107539291
1.46731501516231
1.52210411271421
1.37853623589542
1.59050705339813
1.35775431518374
1.48062366807559
1.39260538996316
1.42722520237578
1.32424093134825
1.49856651832688
1.40340997034076
1.47251554802141
1.33577644847328
1.55211770151887
1.32125800482848
1.46109384870769
1.39297893883036
1.5075335693945
1.42511237484102
1.48595864794287
1.40226160512335
1.49262000824726
1.37220635031
1.37658563473734
1.37182541353509
1.37519056998436
1.28532927229398
1.34576221477521
1.27582236106358
1.43489915216137
1.2650081987959
1.37317565508564
1.25945930305929
1.44158070081616
1.33996739207892
1.35138808090826
1.30855622629245
1.32943291952906
1.24709126938113
1.3536402350235
1.25646110719914
1.34512958270705
1.31645116506256
1.30887798072351
1.27629398821115
1.37112857971334
1.22206355405078
1.26471836885489
1.18609996062981
1.25316818536749
1.28068919316961
1.30626190331865
1.30333311441739
1.30933253000661
1.24159353738818
1.24006591113526
1.19826163182272
1.25699362153612
1.14055875791138
1.22775642753741
1.18145367222334
1.20657944208548
1.1920691909566
1.19576338854261
1.13285535449393
1.21796586009255
1.13005325063777
1.25195432049456
1.12475628352217
1.12584548143034
1.14419767337673
1.1475117510274
1.10951336474475
1.128447855194
1.05567029281042
1.13430727253344
1.10943613868859
1.14705106057594
1.03472770501157
1.10513290876944
1.0978141318702
1.14450711825195
1.03175891781525
1.08792641007639
1.07811879830843
1.13907817587129
1.04756752947745
1.14088466645293
1.03689848799988
1.10501077975633
0.993765069120323
1.04809891503275
0.989383046279188
1.05410517389724
0.998792140923417
1.02440760915215
1.00349907957907
1.00894986491504
0.976265380524778
1.01084148492584
0.981755646929428
1.04436595662448
0.961267834534968
0.998490076890238
0.959148856316364
0.965452795396918
0.933678434761325
0.97333960081092
0.919855004794406
0.987874292036762
0.928375024487778
0.934158969543967
0.895595392554955
0.962799916536101
0.886027456288566
0.930755579084087
0.910636860877857
0.933482093531737
0.899573396802526
0.928786472964457
0.876847480649501
0.901387397342776
0.872700390872925
0.881137425465508
0.851827736496814
0.881973082460847
0.850269694506549
0.882753251200106
0.82145795968375
0.875257521280899
0.827124340867139
0.856778708904664
0.829009070633559
0.838311420104109
0.805262856170848
0.8161296880269
0.821599028304407
0.833024684169936
0.79199865203047
0.836184142787949
0.78501795345797
0.818924151397054
0.799214403425373
0.81392199236117
0.7726147553126
0.791417159010537
0.769281930485163
0.797233618543516
0.754627180839233
0.775422204427102
0.746746538901158
0.758700049674589
0.739591771738473
0.768137849761947
0.754005356279375
0.746619027960234
0.721895197472177
0.752993903742971
0.736900369823775
0.737408676904697
0.707875933456678
0.720674209055682
0.70179528812297
0.721639913193764
0.698517696001689
0.708352033203231
0.677008626057594
0.700899031074696
0.697220102902328
0.708018343371128
0.687234998539401
0.697413493211444
0.670771219966051
0.685137618746848
0.659183428637523
0.678345590988625
0.653910323018453
0.678708509799446
0.650981843384149
0.657001902913459
0.638579926336007
0.648870492133265
0.631956516940822
0.65970239705344
0.640107794512283
0.644773588699486
0.616845391193684
0.627351777816462
0.611408913047183
0.639890053390288
0.608717593647226
0.61737258849428
0.596963838509249
0.611583833922388
0.597615506037558
0.615746410490915
0.581334082970954
0.598406796810342
0.580988510326748
0.594178323028181
0.56904731110073
0.593388951544857
0.572131643385667
0.584271712153016
0.555347881940744
0.578338947292749
0.549000498074004
0.567214421226807
0.5480583669438
0.569665028002118
0.547766158072673
0.549176756624655
0.528731149603394
0.549406661049027
0.535744227675282
0.539088012961345
0.532860935047239
0.548434813626575
0.530353494832792
0.534085493781788
0.513747500283659
0.527014105086566
0.510122176924687
0.524892803089298
0.50269793869127
0.512017729396677
0.5086436986402
0.510251185517698
0.50059926095006
0.51609583188577
0.495744644826224
0.511719422474345
0.487831001740472
0.49642997377552
0.487457603017277
0.498164470388067
0.485758016660121
0.494721876995539
0.47780625834819
0.488955892023447
0.478870520967619
0.483453213111746
0.47901572407864
0.487049285479375
0.472923410062708
0.487532042084457
0.466985639668488
0.477832726746365
0.473982101814429
0.481415130107463
0.471556211223937
0.47552147472223
0.464547482566637
0.484275932598419
0.471578183821082
0.487065488973239
0.46623474111711
0.471966944201485
0.457428364816185
0.480908809571759
0.46605837753109
0.478862219983921
0.474716258880371
0.482160206893616
0.461941068732214
0.484252511091537
0.476521498186186
0.492654461410839
0.468269813282417
0.48814867538892
0.489207072411707
0.488867662270828
0.476280400554197
0.498928464278469
0.470644538396512
0.505945827655197
0.476462047072701
0.493443825322397
0.483384639433213
0.490606098186206
0.493403204537578
0.488123169028476
0.496701320165859
0.504824290139861
0.49744551172254
0.514239313297372
0.500266486931991
0.507287250013317
0.500236654581406
0.519610860666268
0.513365946679151
0.522864325661138
0.526459372758322
0.521433453646674
0.519683298310745
0.536643014906679
0.521560710875824
0.544544472168914
0.530205942587892
0.550163282771146
0.541750252958557
0.556795878922239
0.532873572202247
0.572281396281388
0.55630379354378
0.563140330325409
0.561340729961865
0.584525425549257
0.564346103470917
0.578986927267325
0.569249977777734
0.585848766335011
0.571091090883584
0.595983382096929
0.583636376980389
0.599869447754034
0.568142793683968
0.601582453031236
0.596120827505764
0.603495969501022
0.586846508667026
0.607930860046215
0.583287595939448
0.599332173318241
0.57975861299102
0.604092815191906
0.580454529487507
0.59464615035073
0.58400297804956
0.604902035644373
0.581336739864276
0.591029611000921
0.569214310528171
0.589680125767741
0.57545441246913
0.581168614952329
0.568532730533035
0.582873507651937
0.565942555639803
0.58315346437743
0.565352288494832
0.593365677779119
0.583992595375663
0.5814445734085
0.563274619912705
0.588432162094791
0.560476131868439
0.578544703762992
0.562774409289921
0.574616851575591
0.553009287647899
0.574324896362795
0.561665936247912
0.56866734979905
0.551773018514137
0.570842423780832
0.566724908276997
0.56328441800824
0.558325790644806
0.577511001939991
0.569599201814491
0.582011577913617
0.560269201308487
0.576920906477453
0.553767545817918
0.567676129365644
0.543677539815395
0.567571129338586
0.550616597125856
0.565067850084647
0.552709858050049
0.557212795732221
0.552366294077482
0.552954220745117
0.548471595780364
0.557153083361595
0.54387441191156
0.546610561024929
0.535323541189151
0.553163192339283
0.527104852517019
0.541003902529152
0.533775285221138
0.537104769296163
0.507203758082475
0.535825999783478
0.513695253258033
0.523534229675643
0.501378581134703
0.51847972967873
0.50794429569736
0.503513684361499
0.487454363310681
0.496863958647731
0.489863211326058
0.488281728440043
0.476586255463501
0.481040577635914
0.472351960091124
0.480426925086913
0.469800043863429
0.471904988974857
0.467593096483919
0.473349899032371
0.452046723301241
0.464787022152077
0.445177938133113
0.44838640636541
0.43267471903577
0.452691686216885
0.425944044359202
0.442926338111086
0.423219668220591
0.443164213618436
0.422803343955057
0.424017677464654
0.418317039748909
0.420171905258315
0.418003825893818
0.428121155379322
0.405910572148892
0.423847775007056
0.410857666271211
0.407666500965069
0.39517028656027
0.414923718091935
0.391806887732035
0.407297890415521
0.392254430270029
0.39946153753367
0.38910639225967
0.393831071269866
0.384837486670144
0.390835751440587
0.378225913292566
0.391921835433402
0.377738925850282
0.384288389780678
0.376000195090657
0.381732167510955
0.371532512482467
0.377178811006433
0.364596977961203
0.375214608532264
0.367793592536787
0.373002871072297
0.36228934900989
0.366657644066302
0.352508044399665
0.362425340459746
0.349983588231806
0.366241811346176
0.351797901030159
0.359857567941923
0.346465430825052
0.350083243956593
0.342560680384375
0.349693768806295
0.342965414181107
0.351962738342501
0.335632445039345
0.341060254116375
0.337763425852827
0.345338821241211
0.337834706996103
0.338791233513693
0.333145742432742
0.338131337555596
0.332409370585242
0.338775229983635
0.329759370243754
0.33282447109917
0.330180152475164
0.335327365862655
0.323472988773697
0.325319257343862
0.315447382653175
0.325412835559905
0.320345455064794
0.324000561736561
0.316369748293609
0.321847007441026
0.321084121671767
0.321261549550434
0.314426760272419
0.319155816771684
0.311080244700163
0.317421648137326
0.310516273342661
0.317601119197925
0.303372215269485
0.313787727668052
0.307954018157182
0.315866731195983
0.299398953716291
0.30895899898091
0.30052794152082
0.311032707696863
0.307007115435468
0.301457938328769
0.300330563267379
0.301700864743027
0.299213156679875
0.307234953805966
0.294828636561475
0.305436808895677
0.291989058371698
0.294966520662894
0.293362401066101
0.30164595076445
0.287372637589306
0.297273885411198
0.28818229491077
0.294425667235296
0.287928282324772
0.296985922923177
0.288683886732465
0.295302704380061
0.287347582464558
0.29356479405911
0.28232277346933
0.292177761764164
0.282248902912642
0.286885747746405
0.281620136422265
0.28653195248356
0.281277533707754
0.284913851558257
0.27980210342648
0.281548359108105
0.277097366888822
0.28653943296466
0.278096631830218
0.285858334905554
0.276968651733058
0.286133052458258
0.276751882217183
0.276555469489352
0.278859672398882
0.278061513866319
0.273062705896798
0.276416069606998
0.269059686593588
0.276728902562729
0.27518647725667
0.277953142079751
0.271882419116129
0.275282583697528
0.266738730014215
0.277182926043165
0.273432575374475
0.278686362527894
0.264299747033584
0.27230550790753
0.262927745932989
0.272344574861529
0.26336662875284
0.269330297643179
0.264261322674323
0.270908628228187
0.258237187080831
0.272940513834006
0.261452430563521
0.262312665440537
0.257214562828403
0.261071935506467
0.256210006448824
0.260972979276665
0.253872103699376
0.256111761689263
0.251563768830107
0.261145994088326
0.253283877073813
0.255263082771846
0.250569902203751
0.255438968753445
0.247002886470021
0.252788168606619
0.249068202497358
0.253694500399794
0.243582110444909
0.251410242337193
0.244575848609563
0.247078755935179
0.240227454066418
0.252475737132599
0.241407027353633
0.24590093628572
0.237484744256224
0.244495998173414
0.236003032717867
0.238663038003016
0.23475319778517
0.24358976687385
0.232694167753635
0.239368868299722
0.236092145912832
0.237031676425705
0.231425463657843
0.235990174510383
0.228222875469192
0.235054320648465
0.226712266768076
0.23367838204577
0.228064204737907
0.233800209632757
0.22165126744385
0.228972360769527
0.219278745527542
0.22773391686009
0.220999856723895
0.225768433219928
0.218991290672782
0.225110625667296
0.21735047547635
0.222689617301001
0.21621847111391
0.222546248567569
0.212485890088724
0.219963580463352
0.212811824403362
0.215072645823611
0.20545977369039
0.214934461937077
0.207969698556974
0.211670754073255
0.209583469887604
0.213831789586848
0.205452062241015
0.205529583653201
0.202615060991545
0.206130675821172
0.199107990715783
0.203926644410606
0.194857794023274
0.204141265094909
0.195864195111928
0.201173818078945
0.193171992818661
0.198079104576833
0.188945754899256
0.197348653158798
0.19367976109162
0.196144897654979
0.187507454746369
0.19168355910337
0.190464093765091
0.192666721204045
0.182622783813061
0.188846431905148
0.185746479478142
0.191788785092442
0.178079819800136
0.186437679381913
0.181194077262992
0.185999709038929
0.182129184319925
0.187117411765006
0.179977678484321
0.187836463017431
0.180297465482367
0.184582451428571
0.178393162808347
0.182352823419119
0.178753136454654
0.179306093518046
0.172852991127295
0.181032205763028
0.17639677951732
0.181752563425512
0.173515978524755
0.175236438279606
0.172722576325525
0.172337603370946
0.171968048285162
0.173370049559248
0.172401419123195
0.177066421404556
0.168483115818225
0.176413609233748
0.169867865979286
0.168722834321356
0.167425004879457
0.171354221530249
0.16611113173825
0.172253342358991
0.164307673409984
0.170570681733796
0.165088214164234
0.170849029252601
0.165336365275147
0.170655697990356
0.163602921036681
0.166576612192218
0.159742581517374
0.165440247741185
0.161165572620402
0.168005783903012
0.156807006329331
0.163782501977893
0.160419796488058
0.159893132884769
0.158024350512509
0.164078261025826
0.157058717426165
0.161447299932083
0.154782248732399
0.158450259457934
0.154029172580115
0.159760639947068
0.156946329030854
0.156283912948884
0.156351580855691
0.158604129971609
0.151330620076
0.161059162084726
0.155405451561596
0.157928697984077
0.156473906049558
0.155982907665693
0.154041676064926
0.156910331266171
0.150169727615157
0.156719838071084
0.150226514254681
0.154963545634714
0.152186739264396
0.156215422072219
0.148241589315763
0.154986815468006
0.149784893138423
0.154522540217408
0.148525020932017
0.155041489712344
0.151349251230106
0.154936218863418
0.147698606881516
0.154760093341539
0.146866563223016
0.150749998868433
0.149526898239533
0.151410989335926
0.146210253208692
0.14912083020783
0.145595643036623
0.151101202296004
0.146924798882899
0.149748809510186
0.144033410406162
0.145892816026096
0.142395713584942
0.146407344271105
0.140273086733746
0.146470802309039
0.139815132403796
0.145627942556988
0.140148534427308
0.143503148118839
0.139944006549246
0.143805916975331
0.137401643733981
0.142613301025748
0.139150754408552
0.143965577627887
0.135496819912246
0.140928721085192
0.138536646480329
0.139718627206144
0.138125064977347
0.142789161414496
0.133925052726274
0.142049103309624
0.137084021279657
0.1383125860166
0.137466145805901
0.139744091995991
0.137768803420379
0.139895729666396
0.137001446120477
0.140326706027303
0.136706481217841
0.137247738434222
0.1344295519561
0.137817777074924
0.133179892877241
0.13784395099647
0.135519614547397
0.13438349141536
0.132127114226462
0.134672036207401
0.129563927740402
0.135165165231071
0.132765396930709
0.134865402322105
0.130980494802507
0.136772815129913
0.131267841651825
0.133780047059669
0.130051128194663
0.134895478093557
0.129819117014332
0.131655778727333
0.125361788814483
0.129620588188179
0.125031259370441
0.132176315536103
0.124840852581403
0.129263761447054
0.125531362571947
0.126269343079301
0.12679896219462
0.128704441629727
0.122152143865054
0.127587394706085
0.12278980240735
0.125705078621523
0.121237436798014
0.1256744460454
0.119034108275705
0.124123558516321
0.117669295652366
0.124268276247859
0.119270267175323
0.11962965617345
0.116508353934716
0.122812050897736
0.117621958283373
0.12036379903393
0.119062504102796
0.117872162864339
0.113118880030328
0.120909702880339
0.115816684586779
0.116248538124148
0.112913999942635
0.115449666949567
0.11305705704843
0.116376146516678
0.112993019610816
0.118912151943113
0.114732947421036
0.11655756621643
0.112541532630934
0.115079664918281
0.110633920042019
0.116247660893118
0.108412829234035
0.114177427663801
0.109703195439064
0.113476652647176
0.110719233261492
0.111948879600776
0.106333513675539
0.111062442820583
0.106912035480106
0.111484805498853
0.106922164503046
0.111182801185053
0.107350560009123
0.111358334925504
0.108445056891833
0.10999324737817
0.106092872634528
0.106236770379392
0.104133746932869
0.10870882192201
0.10417405184228
0.105988490848426
0.104795387313364
0.10644009926332
0.101431378089401
0.10668551853337
0.104236826628998
0.105119556946703
0.103922281625789
0.105655685881509
0.101571673679349
0.104725726151956
0.103929038496754
0.106454257648488
0.0980389999590911
0.103472765815685
0.0995050396192175
0.102205204583395
0.0980140695309498
0.102588913198127
0.0987020584378112
0.102574646222141
0.0968683550975863
0.102289277090267
0.0960871504630208
0.101572637456492
0.0974092259810035
0.10237320282668
0.0972959446190403
0.100854730874461
0.0985433127026707
0.0997933940839869
0.0964793644020331
0.100638989175086
0.0960825909078341
0.101328051481756
0.0967208185748658
0.0999949191191023
0.0991203695367636
0.101666314995585
0.099010012864133
0.103228792530137
0.0969689422684298
0.0995746062500248
0.0956241246634624
0.102126896459329
0.0972640137616442
0.102683058745628
0.0980345908877081
0.106195612209772
0.0970714287919887
0.1062116281057
0.0991178999639386
0.0973870692065152
0.0840603166540172
0.0894261489870816
0.0885308921656789
0.102651812998126
0.0915211608965759
0.0899994416375633
0.0844431004867125
0.0991093827078983
0.0846836582944542
0.0971781803713624
0.0909087445112304
0.0952026144494794
0.0937351074303047
0.0982214777664095
0.0831580299811098
0.0940508502957152
0.0904890602908376
0.101002559893493
0.0899588889097393
0.0984110217758908
0.0966111237602588
0.0983053062781628
0.086658614085912
0.0962134123325399
0.0880867832693304
0.0956375693487645
0.0880960608683363
0.0949810165085891
0.0852705325836943
0.0960836253934208
0.0856099219681243
0.100822025719749
0.0877822653284268
0.0975399218605289
0.0894155774013383
0.100089577157923
0.0821463946948248
0.0940616347302455
0.0811715362712638
0.0886016829463423
0.0880914155772315
0.106073182565453
0.0918636777453201
0.0971739234311349
0.0843497387878534
0.094013454256285
0.094878000324685
0.100274671036381
0.0847151529863603
0.08716843708264
0.0980683478769362
0.103591468275945
0.0928688904374298
0.0846201830653107
0.10558969619331
0.0895027568460574
0.0997858033270645
0.0881554689202318
0.105958066423085
0.0872569868818394
0.102304433357937
0.0908040078163388
0.0991729388831944
0.0958141143452691
0.0938222858514366
0.0962322244976946
0.0935903871194262
0.10102428873132
0.0910185347307864
0.0981112768835198
0.0942000776978552
0.0964771703108533
0.0957012225153047
0.0948777939203393
0.0949578265834607
0.0918588819593291
0.0928379086178257
0.0957976981770712
0.0921429897071228
0.0947760987938875
0.0945825952711131
0.0947166030617096
0.0905033359472325
0.0936154636216083
0.0919690134395433
0.091731665863912
0.0940328504047478
0.0957586904906054
0.094638004983853
0.0961345286360314
0.0933215293918342
0.0939203850938422
0.0921410865898821
0.0958605705106285
0.0926237305720283
0.0959819334678031
0.0945660534099482
0.0970404807797395
0.0947422662354427
0.0957182238632022
0.095077223306696
0.0973837216441243
0.0961716420682527
0.0961488828208519
0.0959212520577438
0.0985220795992424
0.0956233880807743
0.0978062563435419
0.0973855994002175
0.0992826124306739
0.0961181331422231
0.0985043642563333
0.0962474508132845
0.0993059734221881
0.0986001935043721
0.0985020609355817
0.0955421795009917
0.097559028353152
0.0980280265590987
0.100516723909315
0.0977581227054032
0.0987679234564949
0.0958813712968553
0.0978199070713186
0.0997958159808459
0.102499035781728
0.0997500588859648
0.0988752216151417
0.0976578498625524
0.0999354545825096
0.0974108006490737
0.101501171743402
0.0988671618456718
0.0993224409615156
0.0968897155567575
0.101660000507304
0.0976826153671316
0.0985988507622071
0.100554974367414
0.104221427461954
0.0998279108943554
0.10308027041013
0.096443542740484
0.100459352592187
0.0989452176600771
0.102470051092324
0.100420398858712
0.103092404324389
0.0997754123532963
0.10223746144346
0.101662830324582
0.102465355993623
0.0988923851408811
0.103603264434324
0.100062360446799
0.104526939620591
0.100377289620638
0.103966445142372
0.102300536635891
0.104423718540612
0.10254507776868
0.105652018550147
0.10304829443509
0.105175030248043
0.104058898175124
0.105895682109592
0.102651141559333
0.105653401749128
0.105725244660399
0.106444930617516
0.106476700731765
0.107357001558125
0.102576734210854
0.110331632191049
0.106851963650587
0.106391644514549
0.10807469412468
0.110911161163101
0.106184148788011
0.10977105320037
0.107695986876898
0.109480838763111
0.106803472242177
0.108945151342565
0.108749717040242
0.11064338243414
0.107584604841603
0.109145809901364
0.106953243681871
0.110762028771406
0.106873377051045
0.109973389844768
0.109820330985621
0.111336057559033
0.108491824860422
0.112485786753546
0.109878301643873
0.109835033199437
0.108041801116263
0.112132204496642
0.111841288033243
0.111304014415337
0.109428746430591
0.115174658877067
0.109960510525373
0.113353815338213
0.111908178121241
0.113845051113625
0.111476605961914
0.112799743400089
0.109914113847871
0.114049577810051
0.114121625140633
0.114964508907379
0.110796026420016
0.113238190636514
0.113360417513107
0.116727082317857
0.114526531776334
0.11408961068966
0.112909138641097
0.116648182143982
0.115827815720905
0.116025525792347
0.11500699391647
0.118828826069362
0.114284436586645
0.116135892096053
0.113760558835819
0.118448355642367
0.114834814333571
0.118508828359325
0.118246784876116
0.119199719900485
0.115848103733029
0.119890965991138
0.117149735903766
0.119156943476464
0.115604467282557
0.118877225525061
0.115925509871583
0.117042676822746
0.117849913319212
0.118914398702587
0.118158978601855
0.118592438323102
0.114727687716897
0.117262889000899
0.115524789981767
0.116536766575175
0.112981587154716
0.116479709835177
0.114217134448974
0.115721503381035
0.115423902380024
0.11711223355157
0.114382975840283
0.115482893861674
0.112034880848467
0.117169968426904
0.114158815473895
0.115841087576107
0.11168978122321
0.114139743566909
0.112453486760787
0.115567205628246
0.114465060424809
0.115868151906141
0.11396035174495
0.114868639406335
0.113518455551574
0.114521598294099
0.111846575282202
0.115292214153122
0.111130035962491
0.112752461087866
0.110620145894366
0.11518448122387
0.112646896409906
0.114136074404343
0.111374267073279
0.114453382575088
0.11194323964707
0.112238635931177
0.111290153188538
0.114606536956168
0.112404911385393
0.112996141371992
0.109202006131488
0.113206894233191
0.110879125375172
0.112676509415525
0.111512534240669
0.113387455476713
0.111101947066594
0.113870568940267
0.110366518896408
0.111537253222136
0.110255780965653
0.114735863787109
0.110451279051786
0.11260471270236
0.110411343683066
0.112638524616775
0.110196433176453
0.111737297865346
0.106598983207123
0.110043502515731
0.109310544665904
0.111857210822596
0.108896969322898
0.111336409356447
0.107711284972473
0.111533464606901
0.107369886527024
0.109391862525544
0.10889925326692
0.108864263422142
0.107262591578011
0.109509914424449
0.106729785273646
0.109633348486454
0.107500575713659
0.109184227511907
0.107458803785723
0.110326548780637
0.109506142691992
0.110781850523421
0.107257105449874
0.108753289256515
0.106825610591759
0.109029455325776
0.105754776177799
0.106515433058476
0.104655914658297
0.107394646700175
0.106304335503686
0.107084220304079
0.105540478225746
0.107432261791418
0.104870556884176
0.106610913288686
0.10443828664732
0.107721761236639
0.105688015639923
0.104976029729824
0.104434068158695
0.106351231935309
0.104569352365672
0.106886705575577
0.102939033830692
0.107194590079636
0.105860055103396
0.105968490957597
0.101513166848664
0.104104393635894
0.100856454292326
0.103554767040329
0.102053592520018
0.102392099439461
0.10149194041727
0.104559798557959
0.0997879220076039
0.100686634337757
0.0995891620157816
0.103458857101827
0.101625716423591
0.102035479513273
0.097658106996496
0.100384719680871
0.0960505400897102
0.0982155361789489
0.0963967844262409
0.096829286513054
0.0942618505806384
0.0980630721577095
0.0947762060896765
0.0983977769844851
0.0991051393363616
0.0984258139360066
0.0933644845697716
0.0968756968516669
0.0934463445480644
0.0943680082540014
0.092775321589631
0.0963362165661632
0.0919819168966229
0.092672898226536
0.0914706781877192
0.0927195863377436
0.090494230259392
0.0918331621821927
0.0879602079184434
0.0924891528434231
0.0920494421305872
0.0902939133601731
0.0881622295249634
0.0910377128968238
0.0883988912569348
0.090595442703778
0.0878041023559767
0.0907862934610731
0.087660625246625
0.0873463785479559
0.0858252796198025
0.0966437892468768
0.0919553217016079
0.0885915061543748
0.0878979591727016
0.0900233436911449
0.0872061630808702
0.0888186854237531
0.0863167719227669
0.0878714071551388
0.0872767015358858
0.0875693588717893
0.0847664238414501
0.0874385639753562
0.0850560806982638
0.0873438677921067
0.0862904524227872
0.087685813658778
0.0852682367027015
0.0859277852320789
0.0862969952053282
0.083906535471976
0.0853443040436577
0.0880260732082758
0.0828887456734244
0.0827093817688291
0.0839127880310661
0.087617693664207
0.0843419358382064
0.0842044751466479
0.0832447215608247
0.0839558222047711
0.0826737665202559
0.0830314954194371
0.0815314654714674
0.0841586415558184
0.082226892446892
0.0799900072121854
0.0799529888034165
0.0820298217213143
0.0811498290586461
0.0824564952417985
0.0798609241363634
0.0821986761441855
0.0811513064240945
0.0807162799781837
0.0798655518554809
0.0822502150724001
0.0805840757531753
0.0819423020324183
0.0803871537194493
0.0808174844263873
0.0785909208509964
0.0829409033883298
0.0885005499015216
0.0824122064933903
0.0767604805896687
0.0807792530223281
0.0778227658369521
0.0796918586951591
0.0779854146176372
0.0811076229829545
0.0790067556044575
0.0816893175700827
0.0781828286477691
0.0799453610808618
0.0776047045096376
0.081609544722459
0.0783427231743429
0.0797336281966969
0.0776342853077386
0.0813833747201674
0.0781402611957878
0.0779930599213969
0.0771210722079403
0.0854750058165874
0.0814825509588161
0.0786255198407861
0.0777132833726742
0.0767746331403926
0.0821175862548472
0.091182955089192
0.0739177319529535
0.0809238222968568
0.0772632887937501
0.0805819015046249
0.0758578980258947
0.0779434671919205
0.0763842970899818
0.0823307931338991
0.0770933066901798
0.0805514250277702
0.0783331129603191
0.0769329746376209
0.0772907923672679
0.0752216107847998
0.0753810602548309
0.0795818886401328
0.074935469184667
0.0767719683761435
0.0754868637866442
0.0759348208007101
0.0747449229328509
0.0762174476869605
0.0744011769910727
0.0812060752731381
0.0752235875409539
0.0763828605267325
0.0759221135525115
0.0750576998693799
0.0779330317477584
0.0856443469744273
0.0766734860757202
0.0760695129345951
0.078145294142748
0.074434711125889
0.0750993729405766
0.0765988133593368
0.0754384337998945
0.0755260760246155
0.0756186956906249
0.0762573678687002
0.0763104114820327
0.0749521862152688
0.0757602087830379
0.0751300367098148
0.0741186144600249
0.0758863147170966
0.0735072481084949
0.0776766122258237
0.0723771266465752
0.0758689611246325
0.0787335350397824
0.0910656659038164
0.0788446213018177
0.0844877068213708
0.0787590631120749
0.0793661052453337
0.0769998901846473
0.0762361057479658
0.0766245610548621
0.074842629286217
0.0747750958254868
0.0749603334653768
0.0754230532002948
0.0764648069005195
0.0757927731611774
0.075593094689773
0.0740777609194933
0.0752460013718905
0.0778263669502976
0.0756873640484502
0.0764768671395312
0.0751106059557222
0.0774565425824513
0.0759568077092909
0.083618615202746
0.0740527959235311
0.0738439540097084
0.0810036985510718
0.096497105635626
0.0784363994073432
0.0806913800454471
0.0795861350417194
0.0742272973548121
0.077130698143431
0.073961262514092
0.0799497673531772
0.0754594081653636
0.0764244398504843
0.0750031147336026
0.0787760096499023
0.0771985128363327
0.0717072214478242
0.0760018506065748
0.0960577097974493
0.0852481593667921
0.0762798592167724
0.0756214452547357
0.0778556211043008
0.0928397935308874
0.0864921895826449
0.07450250096406
0.0818747561506475
0.0760671885713384
0.0798858361125495
0.0762536526356953
0.0795478291797751
0.0803598796966611
0.08374158787414
0.0764930765356204
0.0800757875128149
0.0797485098602013
0.0799763856079219
0.081661502172447
0.0838916582067735
0.085595395252266
0.082609637273827
0.0779790107335669
0.0847075199868854
0.0798795505802487
0.0857507173413129
0.0815413670413684
0.0823990986852436
0.0854905147917216
0.0886498194058121
0.0825435065228688
0.089344123910337
0.0899697062170502
0.0839331130928893
0.0827995498451994
0.0924873239393022
0.0840141971299275
0.0868947237546607
0.0808958523811932
0.100562879460968
0.0987523861593409
0.0917639695449777
0.0921106524223202
0.0810282082000379
0.0919872293244811
0.0823702377741907
0.0875827591462847
0.0835059211184533
0.0983189684638923
0.0810005441586999
0.0912216555988723
0.0866556867889007
0.0974372616681975
0.0894988331859865
0.09073963253126
0.0876663612114454
0.0901579004121487
0.0938401984820354
0.0944396571781106
0.0844906658968973
0.101680121543564
0.114340541452837
0.100206699285958
0.0992290822151696
0.0948696939189332
0.109912459359171
0.105800513325079
0.0910523893595525
0.0977012730022866
0.0953249393922081
0.0936853980555341
0.0942148644934625
0.113069752610278
0.112249007037748
0.0952692690464874
0.100146305633658
0.100399335843683
0.106153105935558
0.117159626827484
0.098684663693242
0.107318344667825
0.100950095396357
0.103048139863902
0.107774406844339
0.130834272971151
0.105571169462665
0.12481632647501
0.122385104262702
0.117272991736486
0.120229321014761
0.111793656925129
0.117116529357331
0.126251418162648
0.119915954282173
0.107686297231235
0.123051993396741
0.132349080812066
0.129651752567293
0.120121322187035
0.126293605791624
0.111368597270937
0.139954458190487
0.17187295287155
0.150316712452133
0.133581726479023
0.135137877163045
0.142459490148183
0.143800973584407
0.132528371947544
0.139942351798696
0.13696368565837
0.139840546403196
0.142367576123801
0.150002606775774
0.149651351411862
0.149484434846935
0.151517140250222
0.149665290190488
0.158594005984979
0.199037928833026
0.175782435110045
0.175232411384464
0.169474414516145
0.18652407339606
0.170083725848529
0.177475542146249
0.169699951784707
0.179813243156938
0.180119537341051
0.181233166645506
0.17880194450353
0.192924301223018
0.2009130379021
0.198726882254892
0.204726483848115
0.209618522369643
0.186967094943375
0.217149053305929
0.259444986250212
0.271311076089352
0.213477876712894
0.237118604757847
0.227181811029064
0.292050744354866
0.255813521404165
0.24865558941733
0.257738041923849
0.261993609188244
0.266167838186269
0.287686321808851
0.285142916368857
0.301789124446291
0.298324034027374
0.299493918004739
0.295083743364403
0.373431186252123
0.368838838657326
0.355258126674984
0.338548075925263
0.35417757768797
0.368082973304097
0.369088198544231
0.371824886266999
0.376042286542217
0.38016550897872
0.430054937900784
0.429314903341883
0.403591943614355
0.434243800348749
0.432795088304638
0.444966850835215
0.446834613066488
0.494338579020234
0.46207056425304
0.477399929321891
0.472869190323243
0.482547454131903
0.493619290246328
0.515176773416939
0.526270709369817
0.51254120752825
0.526668484137838
0.528487300408852
0.530598240553872
0.544530631379117
0.543272553549777
0.553007122535686
0.567810452227828
0.586028183527105
0.659054261089174
0.631044652453046
0.56835847536372
0.575415351314624
0.573855510248983
0.595425293751849
0.605774119688419
0.604525676821161
0.623799939595351
0.573974796355414
0.583281342628703
0.601325645415797
0.598083849496307
0.605738342359019
0.589382216188707
0.59917367703528
0.600064182551456
0.607134786670395
0.597136494903901
0.670084738123297
0.603312086533182
0.581883830221553
0.581805765227748
0.581064119282398
0.581897674728461
0.570231595896309
0.590035676658905
0.584091582016349
0.578604054762126
0.558662009095153
0.56564653172679
0.558696781418746
0.576004349375281
0.544708240642157
0.53814240204017
0.535990902694375
0.524840761520976
0.506823207266334
0.504758572951754
0.554201847621964
0.520910334023559
0.494298694183034
0.502383668943185
0.470534460645895
0.481245720280578
0.478983336588774
0.483229406706385
0.471331224798863
0.465462385911439
0.457661190189502
0.465512266975304
0.450432497318254
0.450879121027545
0.438524930300809
0.445398129047444
0.434385914825086
0.437367144848108
0.428727315896023
0.434648961543726
0.428205218357284
0.425727221537936
0.423542534185312
0.427511315204877
0.413544766181206
0.418750778411745
0.419510454504615
0.422408286664041
0.414753260532085
0.416405453060832
0.407304124987252
0.408875579388156
0.404312788998833
0.408798011063663
0.404822057554192
0.403627164973515
0.401194624794561
0.406126619700689
0.398874466567898
0.398038020720388
0.398515565390189
0.391014122393815
0.399435558139393
0.412550230291601
0.427578873121508
0.389384777094111
0.385433667493722
0.392725340402801
0.377879512587922
0.383548997421517
0.393467381870056
0.417660270079476
0.378640813324993
0.376604851727394
0.366116210985917
0.380880943613565
0.371941741512777
0.378112859613611
0.357486182184585
0.370384579754265
0.35606734002157
0.440542789404998
0.38777836282533
0.436616180128885
0.379055829958327
0.347985071509856
0.356193927946865
0.378403028765935
0.368925761477269
0.340370471224103
0.361123719202502
0.352991265990523
0.363971660231469
0.344358062675367
0.34160060656357
0.334993521536206
0.335712310935781
0.357985034217685
0.339602748978082
0.335190547681658
0.36112655572953
0.345476373294421
0.3414446560604
0.395021710929288
0.354409747410198
0.325382242734209
0.317337326182342
0.317100318672568
0.32605897785202
0.332301448333405
0.326696770527836
0.314236357970548
0.311058508573142
0.298354632904581
0.302162240299284
0.318326849448665
0.302973316351809
0.310486631366215
0.299079368252054
0.310024700926934
0.273818888274464
0.313560645744019
0.297014170798995
0.330376468343509
0.287806934879751
0.283770964749832
0.294811596893923
0.314057538745522
0.293209699414833
0.285108346677736
0.28054581486132
0.279670468408892
0.28905933019417
0.28092392495258
0.269755343883122
0.287156877770583
0.283359080293219
0.291782890919039
0.312441531727648
0.302270715330789
0.276550704393217
0.263659612605104
0.259704552478473
0.275241751847575
0.256453737796439
0.267178631973443
0.263239982102093
0.27919391547302
0.266965618333321
0.28923655561391
0.289826632863239
0.266964665240503
0.272356283236804
0.274355531428313
0.275097873378382
0.30558766152358
0.305041525985302
0.296205097643394
0.287614815316792
0.298942904533478
0.298156727720664
0.290417832581907
0.299760343672161
0.298054280726482
0.310749552610652
0.313064777383371
0.322475876085731
0.324310620694953
0.325904215704624
0.33114775811024
0.35464128862133
0.358632901850303
0.359522497373272
0.342549637796463
0.406656521239171
0.39003720512532
0.405644449303473
0.388435829760551
0.397509448472593
0.398768920251401
0.405872151659097
0.409581367138523
0.422284834188897
0.44063466358718
0.444958740402392
0.425096540715372
0.448833612452943
0.432046171157022
0.457357101498112
0.451683733184655
0.478921300067604
0.46977511059508
0.519462300048412
0.481812215344908
0.474506835050356
0.479609700432161
0.471647990983712
0.484800680324302
0.478325751078622
0.480371469648883
0.482747993017651
0.49175565468909
0.491969412063995
0.483778512872189
0.489051839316342
0.483216109998287
0.492547659477108
0.496999217289266
0.49526660124481
0.497449863788193
0.506252752030868
0.500155385190255
0.511658789458658
0.54299559879866
0.550637807130753
0.512555154512903
0.528940630137081
0.526303709947572
0.531343486408789
0.526386750258433
0.541173364080471
0.549331146332346
0.539054515796268
0.540110178589417
0.550888947820041
0.545873559107926
0.567423375959537
0.553672665728867
0.572724352179772
0.554442333847302
0.56193964396939
0.558019911195148
0.61476616309011
0.585061875700724
0.574916390650681
0.587006711197797
0.574432186819199
0.577984385688258
0.569944306064059
0.584730692983518
0.58288197023354
0.584675339211218
0.576828521149292
0.581833246641168
0.580821284948609
0.57449755104314
0.5783569972677
0.593313248020389
0.587339830267618
0.577346498244764
0.579165291001342
0.562841468466233
0.567849166069339
0.586167460819367
0.593822023862073
0.5692566903479
0.568976026713145
0.57535354811393
0.579734910549368
0.58414681060849
0.565739741236597
0.561958369762257
0.574453475023785
0.572898680900698
0.569191352003284
0.57527281886452
0.588425248017234
0.591964775488169
0.57454667301901
0.58388124590166
0.587268733387841
0.591475835650432
0.590248572175974
0.599186757415961
0.598844157895121
0.606634225405949
0.604263879861684
0.612785643296465
0.607848959317843
0.624416981799371
0.618369294993493
0.617278839214687
0.621045743930893
0.607594955286024
0.607463331803783
0.613140817655703
0.614245612420065
0.609889178077822
0.603306052681102
0.607076543862466
0.595091197121864
0.60722923096322
0.601338312352204
0.603845499438188
0.576503013287656
0.590724088235178
0.575868612321297
0.577354573282729
0.574591383479685
0.573624886711327
0.568085012088322
0.568271767054165
0.565417603384511
0.565414624617025
0.558625031222528
0.558374605323106
0.553806428191329
0.558458019108989
0.555694929851688
0.551616015238378
0.548845123976343
0.552338558169636
0.546811740196028
0.554135974203821
0.549383801416175
0.548418244337023
0.544052750859647
0.558775438281486
0.554395950232851
0.553694242098479
0.547875956980126
0.5499383958458
0.546728916140726
0.542158104488312
0.542954841008974
0.539850387085192
0.540515899541755
0.536674096194267
0.541767865434966
0.543651642109777
0.537653501168828
0.536914786488508
0.537863415343063
0.53257098037882
0.528765766375069
0.527588757894719
0.532638925635717
0.524240811848156
0.52555548867236
0.532019948469506
0.526646767481148
0.520208566876306
0.521779917798648
0.517130384939508
0.512620375679558
0.524010326997983
0.520328352037953
0.52065783916205
0.516677509693818
0.519055208230492
0.517800398186543
0.516487453319591
0.51443291759641
0.514898355157646
0.512534928329077
0.514274811198711
0.507616343485473
0.506326528555366
0.503404053020605
0.502211948944664
0.50163821524199
0.500025719836859
0.494228616841909
0.487200518243227
0.483883659422364
0.485032633130875
0.477924463904198
0.472490539199079
0.468870230205533
0.471055456155376
0.464851578848837
0.465672175198413
0.45980442307668
0.457404410773401
0.458708342786874
0.455416170660166
0.456863973961798
0.454239746005315
0.451043071297101
0.453063585787079
0.452520995996856
0.455086997782493
0.451227971950349
0.449994038851635
0.451226759834823
0.453027588124635
0.453728614423885
0.45558112121845
0.45387805934652
0.455390132144769
0.459558169535932
0.463094769648859
0.462553687747384
0.467013149545319
0.464635181864528
0.469179085643702
0.46866477855873
0.47011928376867
0.466531799370156
0.471996492294844
0.472396021661937
0.474315599171414
0.475903333192744
0.47890311302704
0.478323619705376
0.478728881920484
0.47673073356448
0.476606089216944
0.477381348774415
0.474596967959812
0.471131023778316
0.474715175258768
0.470530231172954
0.468970160248387
0.471576991943001
0.467293310069165
0.464963434331902
0.469341513687027
0.465490923655078
0.464311250157358
0.46169663464772
0.459535506090304
0.458558742495983
0.459104155968847
0.456747412182977
0.45440023852637
0.454158643791328
0.452063522981071
0.450173529708848
0.449285616716099
0.44635921498682
0.448713055552207
0.44446188244296
0.443478900888982
0.438505251456235
0.436702271981411
0.436226299769214
0.435020499375188
0.430341723954795
0.434842993626411
0.43335361377405
0.428872268302738
0.42554323853426
0.423865078471699
0.418696713470475
0.419487014976929
0.418747450202871
0.413606688496264
0.40719772523179
0.406511061910589
0.405209264955696
0.403709743071475
0.399924760909355
0.398760284778052
0.39719688625821
0.395328774073241
0.391911929969849
0.392536816400705
0.390322022549
0.390025942549505
0.386138513558765
0.3880049995482
0.389826405055727
0.38647033471625
0.385800415736246
0.386120884908395
0.383999149052251
0.380250869133353
0.379680077284809
0.378080911404359
0.376123220910287
0.371154352163342
0.36625512130344
0.363751977026803
0.356607391132825
0.354265854115835
0.350095985265896
0.343807171629932
0.340095751770778
0.337070063526472
0.334053689941839
0.330380120652223
0.33039846982856
0.331744825970437
0.332983486672469
0.337379974818859
0.34283942445664
0.346574670877711
0.351372951497411
0.360544524771892
0.367222260720037
0.377849424900534
0.391012438901044
0.403728053711183
0.418466903727213
0.431918407969012
0.445700141713785
0.463186680188073
0.479419382467129
0.49610325644527
0.516593612702244
0.534439661222791
0.549865384090495
0.572647365584663
0.588350563205317
0.613113252634354
0.634229261821767
0.65582587228323
0.676782287218967
0.694424127257586
0.710043684322619
0.731122450359588
0.750884194701015
0.768348633488372
0.778883571348795
0.796166581221517
0.81118265486297
0.820567249752153
0.825686230182136
0.834703089767247
0.84214858195359
0.852893287412989
0.85364745544792
0.851325590278865
0.842976329181633
0.844637635443998
0.834212825690871
0.834276480084056
0.829884755970064
0.827740911945852
0.829337178102713
0.820384381729503
0.814654469266506
0.817871367750079
0.816486843096346
0.815638694623385
0.809335336973568
0.809580094312549
0.811150371890092
0.818475275843008
0.816905665683557
0.830404324002817
0.828863857739849
0.831907897745784
0.853032107704955
0.858822340501847
0.866560572461298
0.872170994124117
0.885559059391945
0.899147301486572
0.90187872176149
0.923194738019468
0.92902195302974
0.936247612150915
0.945965299783317
0.950367302559391
0.958600106466239
0.963000786018016
0.960926782134214
0.962124393787922
0.98574589013295
0.973137221623013
0.956095967389838
0.974027791994095
0.965357138925005
0.960049718690848
0.958572185624536
0.963615950051115
0.95989830512469
0.965211577428473
0.970653159148409
0.978352630744409
0.984664085610288
1.00740574500577
1.00912481555869
1.02732781871823
1.03006524193061
1.03954337333066
1.05873372046651
1.0540484322505
1.06686228293072
1.09548748014796
1.0881802562027
1.10342865635187
1.11997331355692
1.13527729819384
1.16956210899283
1.15986217166484
1.16488778797866
1.21223123605502
1.21420396051144
1.28321044427879
1.29359168334808
1.31544914005315
1.3520714424081
1.36536415553843
1.38920565120391
1.42357300671991
1.4127081977474
1.44502681309985
1.456470960814
1.47800463305891
1.48947605242533
1.55233874859492
1.50510392847424
1.49833355248808
1.48379176009559
1.52366702731899
1.5149397333636
1.51941654838469
1.53345889212241
1.4769193089988
1.4653833382592
1.45766531825142
1.46996817663213
1.49283691885641
1.47962644607568
1.47759865060847
1.48606441767331
1.53125105463283
1.46622932400258
1.4906676404962
1.50524887608281
1.55472564196614
1.5519860700575
1.57501281229683
1.56875586716783
1.56590598991076
1.5566800772279
1.65501425209266
1.63404825429402
1.66260044426086
1.64501225020029
1.70020829518096
1.75631902808501
1.79341421679545
1.7606030213633
1.81966818840123
1.76464089672016
1.73137074930404
1.79186634814264
1.81445077438565
1.83778700677156
1.92535662643995
1.92994558108044
1.92821055068276
1.8263337997683
1.83398342217784
1.8791368460151
2.04814353662526
1.9433597494774
1.95800682284474
1.92025933727308
2.00226416998311
1.98779383554459
2.06345141397878
1.99194343367874
2.1070691038308
2.10584619596276
2.04468699258984
1.85185433232979
2.0943120339458
1.96464974605511
1.90190143969845
1.96030339488475
2.13414646139354
1.93978371274951
1.99448972782299
1.89945269992024
1.80708974736013
1.82401086097608
1.96413359055716
1.70822482325439
1.76716672953435
1.70577040899642
1.6050103134529
1.60856536738115
1.59212657293535
1.56798522716947
1.56680243789505
1.49222113403049
1.54817124978827
1.48705364041576
1.49319147391113
1.44861313705774
1.46004758400473
1.38964505058356
1.42574577210649
1.4015622832887
1.40744938924718
1.34896643346306
1.33624395446807
1.31946828320329
1.29806815297377
1.25535817943787
1.21611703953243
1.1744861864327
1.16663420547677
1.10674975295034
1.0760069267173
1.00602631794899
0.965702452237674
0.941392690391844
0.89505642561991
0.861338664234809
0.832332465521725
0.782558543161269
0.750897428974761
0.716388707511237
0.685539270626046
0.649509817889993
0.624692904086527
0.604406229439163
0.589811840114881
0.566486710080278
0.55496758121733
0.531657879948995
0.517316606997653
0.503826149120864
0.493663115531654
0.478253155145363
0.472278455167171
0.463972206993903
0.463445030396185
0.453447465544342
0.44779727670047
0.443824687692021
0.446610366716848
0.440600897078073
0.44014636730468
0.44058759942569
0.441963706356097
0.435218719424756
0.439061875096569
0.442928768538576
0.446957690335842
0.449083995798065
0.456846011439103
0.457256090892514
0.460286071031113
0.46130899116462
0.465214197981236
0.467517373518674
0.464517904088962
0.465530137807323
0.468576945366523
0.467277503537833
0.472372482678122
0.470048132491387
0.475661133666971
0.469045358330651
0.469805037072755
0.464564226193828
0.470765078617687
0.475796205041964
0.479260782728011
0.47986959343135
0.478274851393888
0.48967888675402
0.484885084790554
0.486685837488154
0.49148187331578
0.495178009779447
0.494515496438674
0.487809767578126
0.497160880168713
0.498023993382932
0.50367052479326
0.494690572887998
0.491803203246538
0.496865189179864
0.501446847910886
0.497243002496995
0.504235685568915
0.493162156414305
0.500752817583988
0.49763607146938
0.499654198851059
0.498087149376349
0.488869196286616
0.494799096166204
0.506101630990012
0.509469108969442
0.502577825157034
0.501452061991628
0.522261930312905
0.513765173507026
0.531890971219874
0.538377728874477
0.558913310479387
0.570576992334811
0.575442190843694
0.579647184241838
0.583484991895607
0.595261773726033
0.605228042142479
0.601394550443765
0.60752425702452
0.60186446335949
0.597956784747915
0.60066465142472
0.588701457026009
0.583480780711856
0.565377400790253
0.561903931491827
0.572270409039099
0.557603322846085
0.557007245321316
0.561958280273981
0.558430560450847
0.55034106972334
0.561494509064531
0.556375555636382
0.561376859808075
0.567810254043834
0.572533973159704
0.571347297099736
0.566616100936189
0.558175693481214
0.572687725693297
0.556330674593278
0.557387487210097
0.567029285354457
0.566241925289264
0.555226670903802
0.568005852810615
0.55952119194135
0.563715561083918
0.563413724974532
0.566244472000769
0.552999871900417
0.561381120173783
0.558768454138906
0.565377589497863
0.556907639882471
0.565803738169883
0.565564139288145
0.575326519366012
0.55784676069724
0.567988698602714
0.550555660843418
0.565452073029133
0.57496778835749
0.573882224400913
0.563785433191064
0.575669118134819
0.555633863810263
0.567939205176284
0.569420827940481
0.559594977054873
0.554676182473444
0.57698460244214
0.553446778941522
0.558222845818445
0.546526647264948
0.55561037912152
0.55351279706296
0.544015679864822
0.542389705078821
0.570224691744923
0.558544105542061
0.544263909580662
0.544797559273471
0.57913039699957
0.559057190143606
0.547827922122503
0.547206237225743
0.564258368292854
0.552479031180051
0.564321493892293
0.557371707438475
0.551700411243102
0.574672525351099
0.572205700036047
0.557460748986413
0.570450994722263
0.581778036016667
0.574352522381131
0.574158257160284
0.588988091430721
0.580869482450404
0.597038293465167
0.577026694446205
0.580970531718614
0.5896234574912
0.60815551251329
0.58940062208659
0.620648542398227
0.597650819627277
0.595656516651633
0.601033990666207
0.636069516579355
0.640525956125196
0.626285433744295
0.657514130874109
0.659779442718308
0.634790881374735
0.671828071625097
0.688674076510695
0.680670351887771
0.670155807305136
0.722042559533697
0.702661445967382
0.796001703284238
0.728201324581362
0.775602797344166
0.755542362631249
0.773158880868964
0.791545083451917
0.822209807564469
0.791267287086925
0.823975958443549
0.80007326518472
0.846565353407828
0.893288827804128
0.861320396650403
0.864324740530651
0.887747833344327
0.815530097117225
0.856915576630182
0.81710798660492
0.82608007595112
0.810633061739538
0.887784820822823
0.841954564414503
0.853418871062139
0.876668219979324
0.839952548218469
0.823781108609322
0.886829731248454
0.864981516002205
0.887082203817645
0.827995882656059
0.900423394582928
0.883654577667922
0.931511316427277
0.842703950398921
0.923849776217244
0.872348599866957
0.86599883135188
0.869207320532203
0.96240110414388
0.884933458687644
0.897435608103026
0.839198640413581
0.807607052987396
0.80363061622347
0.867306563849253
0.756126001527803
0.876871391799209
0.880629336004573
0.898098087456614
0.811951401566255
0.873693930722658
0.864222612436975
0.914583967681324
0.880834225083379
0.956535108205396
0.783596313379424
0.831894575874881
0.888796491303115
0.87563887956372
0.814906473199747
0.936084594540672
0.858922101239686
0.851141832569094
0.772374011439447
0.89025549256958
0.882367853352441
1.04010382969428
0.880564103237144
0.994658581063037
0.906731305579139
0.959566972474264
0.94565998761299
1.02499656329318
0.791354578242766
0.834165007330762
0.783747217689742
0.845734623214227
0.899297129439406
1.05324580339153
0.867754804318084
0.981824680791535
0.943154781325229
1.02468405101026
0.886892560059289
1.00570669534036
0.969654178875304
1.17941554164365
0.974544194793842
1.05872012089789
1.13603057465944
1.08369628600747
1.05556431023228
1.1067216262676
0.996470581721979
1.06192856302192
0.953227349472464
1.05699965818972
1.1169700107593
1.17605459718621
1.06734625149831
1.28933037623849
1.01240385592713
1.07291018940058
1.06059894359464
1.17849498505065
0.98993644276378
1.15069179834568
1.0965345413118
1.10812308976487
0.917236233815586
0.956587081721523
1.02833923636707
1.03873053479712
0.781437138853668
1.95828640664068
0.925838187875475
1.60141833377529
0.949666206457337
0.999461299346146
0.788830232777508
2.19623428450209
0.861126968807359
1.49574395759819
1.43951983167928
1.31977416631907
0.68680631804818
5
1.05737300628066
5
0.759244891759817
1.26997407807705
0.7696325362713
2.1120665972362
0.746373835841735
1.27582768325688
0.686055199798157
2.05504445219784
1.30249631396182
5
1.14543602134852
5
0.836820094880376
5
0.969318108894795
5
0.942414583515225
5
1.04814877090746
5
1.13928802971125
0.619146381223135
0.71193049165411
5
1.28448866593675
1.09733676974486
