3596
4000.36533379555
650.420452594757
1
2
2
0.0358989160831086
0.042540060813455
0.048008286175253
0.0440165790096203
0.0407441367137383
0.0349378684606696
0.0374583179033511
0.0430800243479797
0.0373534727922677
0.0469875793446504
0.0440195678567176
0.0409348216437073
0.0367770607162928
0.0393298842234444
0.04145091875461
0.0394621933727627
0.0325303863599016
0.0411031249091338
0.0414349115169636
0.038696040794894
0.0370549181863095
0.0359386917529348
0.0359105264611132
0.0376435389223201
0.0429621480510661
0.0447900278086793
0.0404331473048811
0.0368547335671627
0.0391899309996218
0.0390405460932543
0.0332808994509817
0.0382446617806386
0.0408016561169538
0.0412221376070017
0.037158609085395
0.0383909505885782
0.0392947502010267
0.0392539571908675
0.0380914595830177
0.0427525043570522
0.0493171590150058
0.0489547214257093
0.0382275823164741
0.0407023190338554
0.044979316081844
0.0412098350302109
0.0394145818792351
0.0486411553440714
0.0378566376459528
0.0368691973753417
0.0456468023302717
0.0375772171713963
0.0482614809385999
0.0515613464498448
0.0400191569044884
0.0532934501934331
0.0466728323835111
0.0427808505363009
0.0392861688075036
0.0329692251762989
0.0522779834206152
0.053303695886301
0.0442155315578809
0.0407115903846707
0.035843891122011
0.0433523911619045
0.0353020344775209
0.0342576795408459
0.041801401204511
0.0407849609012463
0.037185285983182
0.0560889778932921
0.0535003806037683
0.0419385172247103
0.0424003730680568
0.0497889788711582
0.0389320750120885
0.0345352840836157
0.0303355731565404
0.0426191317160754
0.046908655483655
0.0417339341887132
0.0377705476527425
0.0341281474196328
0.0403082367792997
0.0534157657211152
0.0322192120867142
0.0331968030324064
0.0444971211826142
0.0487773737567972
0.0382249874376203
0.0387042874054324
0.0404506248515085
0.0451779364475513
0.0405421161365082
0.0383679933892701
0.0395164956360711
0.0441247915222023
0.0318075707422609
0.045051732233941
0.0266109760151814
0.0433825881262264
0.0660957661193875
0.0394901080240177
0.0728650263568549
0.0539218233379964
0.0393815402181072
0.0663163046653305
0.0462311659846343
0.0442040815280185
0.0425501033663272
0.0323261582470961
0.0418388774350958
0.0446880585390855
0.0193824827324738
0.050247669787669
0.0583492199670303
0.0430513468859584
0.0388035133264805
0.044519429411521
0.0199839379934057
0.05281399951271
0.06653024438737
0.0455047336987743
0.0439365493783914
0.0389940193675148
0.0212773894759985
0.0595263722483328
0.055207484441033
0.0427744055429978
0.0348614696746752
0.0459541260548892
0.0291702423425142
0.0317484721939123
0.0627371655286282
0.0537474986113949
0.034737624946929
0.0213789444787456
0.0297071717028764
0.0754358303823662
0.0505496369721565
0.0420128763405421
0.0190499593446926
0.0396902136336794
0.0753765702308528
0.0509262625042787
0.0314689432853759
0.057232591811394
0.0432750796427836
0.0434142369399968
0.0336972764335804
0.0325919446930282
0.0532499628913532
0.0452724242020802
-0.016105825862164
0.0690766428320952
0.0763703949643264
0.0707358739866855
0.0740054709431008
0.0499441047546321
0.0420714943863254
0.0408444601369303
0.0351771066269361
0.0418408736074206
0.0443540479490017
0.0310529839201902
0.0450000090747556
0.0572950548902992
0.0320828227290914
0.0394289922183969
0.0619968937146996
0.038446915575925
0.0238114003452771
0.0905664683841904
0.0453029728448182
0.025803250261942
0.055779026750336
0.0605001872671422
0.0274148056830708
0.0488714135999966
0.0602179290032093
0.0446646786395149
0.0342124037646079
0.0339304902543528
0.0313643999568671
0.0574618235434653
0.041050707249325
0.0437055606272877
0.0334054564524715
0.0268224057446524
0.0295995233570338
0.0873865226478352
0.0637455346642912
0.0562938138632781
0.0334292434401245
0.00750176741035074
0.0614370620210038
0.0796929170203381
0.0403738110545526
0.0357966636576869
0.0350019462715746
0.0382150466494039
0.0255154982035471
0.0374943572587318
0.0192041166178518
0.020044328472608
0.0611869381386245
0.0608612574874602
0.0364014218105568
0.0341833206585643
0.0279893744406353
0.0190248155557877
0.0689400303131477
0.0623082429137517
0.041673620195831
0.0468932373535763
0.0315670508267317
0.0456787643214601
0.050131373392051
0.0440371828396852
0.0365343256441633
0.0397651847220443
0.0375227704501879
0.0356450885073979
0.0284183534903371
0.0349930152910904
0.0360209150986199
0.039933608940975
0.0336483667153796
0.0390109038230886
0.0456693670057183
0.0478441507320324
0.0391906571968083
0.0384699051154664
0.0224518689111062
0.0436648004573385
0.0598063182836791
0.0488498437110764
0.0329208219869047
0.0427917733613012
0.0359143376814614
0.0418594587622394
0.0321946524127365
0.0455707364909694
0.0249379222540336
0.03327920978323
0.0611181751556815
0.0533857935370164
0.0317343641455699
0.030220871669877
0.0528415706962591
0.0585852205170518
0.0418687839224722
0.0336805043738978
0.0419069825610153
0.0279160702203356
0.0302244138472849
0.0611894546131354
0.0467539559444434
0.0383500892274538
0.0494324160386785
0.0406805078294406
0.0411239100804373
0.0163310541958132
0.0173008847272622
0.0957776755478365
0.0401212600626457
0.0267536756931983
0.0950847371422906
0.0628729639097555
0.0534139382852335
0.02910483811478
0.0016733397083411
0.121916248594799
0.0971220624773169
0.0456719562682578
0.0428536647995465
0.0505835474900868
0.0353790344274651
0.0407069850030476
0.0278408853626536
0.0493740119320791
0.0364680576046438
0.0832128022663036
0.0775240692595391
0.0342120618569304
0.0498958704443779
0.0623780210463129
0.0430234585638604
0.0441972414972739
0.0303235699211485
0.0251436920289397
0.0475270197374774
0.045580712673327
0.05795245773686
0.043977504685432
0.0341177650445638
0.0587123765234745
0.0561508720163157
0.0335897728622293
0.0419606465524733
0.0504159338885752
0.0449385023168695
0.0363257219294025
0.0369115899851635
0.0486982588484604
0.0267082539689267
0.0240775522575494
0.0794432660169125
0.0471037746143789
0.0399934574148457
0.0664207701645253
0.0497543890221592
0.0438007177999068
0.0408800146186772
0.0360064586923916
0.0379617927375999
0.0306758781286508
0.0300172208646229
0.0627486709657994
0.0469665513801567
0.0431542753786219
0.0390411981932426
0.0449515270826061
0.0377160865838418
0.0380952201925536
0.0372303128592356
0.0423012697856609
0.0343396810000913
0.028274988193367
0.0599564735877636
0.0577994350243607
0.0167205769726309
0.0688768752924369
0.0684699605963102
0.0443145819196415
0.0325766586902631
0.0421503466222198
0.0379491410242586
0.0426202723278768
0.0378118604166435
0.0380066135308316
0.0386654576122883
0.0623981964995254
0.0504916407271234
0.0340181724238458
0.0223822645997714
0.0878134648880912
0.0891926217273965
0.0711906306456127
0.0433193450992729
0.0243704067399693
0.0740203651979196
0.0590332083511786
0.0630020839013533
0.0750230336147662
0.0462700764065648
0.0457228423332568
0.0493081705802498
0.0460451097636214
0.0462910861819936
0.0526852771913777
0.0494723684966176
0.0501066139065883
0.0456622803153489
0.0556754771004048
0.0323125621219238
0.0403262165460977
0.0757726083617214
0.065239413550399
0.0523055588699876
0.0541306611880385
0.0372025628457732
0.0694854808199818
0.0625673565275818
0.0938960904639293
0.0657728576869295
0.0799252349385881
0.0820537166760616
0.078388784548588
0.0538733191564606
0.0598657582706326
0.052632079157442
0.0612444845407788
0.0554952386272703
0.0681422329336573
0.0591651968350726
0.0695558453341281
0.0578520930922778
0.071445986589876
0.051106148745116
0.0672435239982465
0.0703843315831915
0.0749265618074201
0.0652838940405514
0.0525223313402784
0.0569548830086068
0.106926574409904
0.111873508706827
0.0774907710238193
0.0743105320583956
0.0790272762578
0.0818559959364247
0.0689828008480011
0.0714233258465385
0.0699037551242694
0.0755742229734905
0.101987372801036
0.0833123914000359
0.0985979950876563
0.0894508840362738
0.0809266867704745
0.0883052839474347
0.0852332586728072
0.0864601925302603
0.108595998041957
0.0850246221593033
0.0791901348156035
0.103364507886624
0.0921892327759671
0.0943924025779593
0.101168832126236
0.093991289390003
0.0933376423883973
0.0936756684759566
0.0911486426869754
0.0873996281212284
0.0997542675882304
0.0940191372428919
0.0955377116700906
0.095740402671401
0.110016413301656
0.0925571023996165
0.124084261777217
0.103178401682052
0.106987900183115
0.112421732601429
0.109578626429539
0.107792631092648
0.0983505512309215
0.119692536348146
0.122594768799257
0.119272051814114
0.142997947697021
0.115348436064059
0.118715531734739
0.114634414753542
0.117568982176784
0.11249938101045
0.115102821425946
0.123689678927329
0.137482016756126
0.125240110545487
0.12909828719162
0.119346226246951
0.128453774203392
0.12480208676364
0.135649606040066
0.121941951143371
0.138950465098728
0.141992159167495
0.129952863931598
0.140191435200572
0.147862193670828
0.149741354490052
0.145368828539783
0.153632383459811
0.15240784531737
0.153572386126739
0.156295606575835
0.142719613050937
0.163379725809021
0.163141358470575
0.161937646598163
0.162550307331257
0.171028169970831
0.150129778174245
0.17345274378808
0.166787602134218
0.17911913889872
0.177865400121097
0.180834398497479
0.172188146017576
0.169885475702862
0.169332498320138
0.186327753995014
0.170325104028526
0.183654485822805
0.19192740051072
0.193059504864784
0.188073584118214
0.200460614723247
0.182433940627429
0.199053204652565
0.195472913164132
0.195809652710184
0.190652809564599
0.207443130451336
0.199993660854294
0.206661682367532
0.20092952798422
0.205780313138751
0.2050171230984
0.207670813524677
0.209473442243591
0.219487688459544
0.22624372878121
0.225568314107388
0.208297902737545
0.225208409944801
0.227243051680522
0.244915272691134
0.219851180861499
0.239035624317875
0.227750443381115
0.237814555288073
0.22875671533313
0.24173512831573
0.236077676058826
0.24564151472271
0.232024626441672
0.248347674006126
0.245629983077278
0.270101819245443
0.244742485801996
0.264146189479567
0.254960792543301
0.257415063284705
0.260646137641541
0.270586269005329
0.259843609265013
0.271064523749777
0.25922910174793
0.285051115732379
0.273465272626144
0.279645951514123
0.282916776531226
0.286117990162253
0.268206685154045
0.290106223946955
0.293070490525348
0.29605239796788
0.286154107948267
0.298863207724508
0.275536847722758
0.300617256367068
0.27688056354352
0.289850140321214
0.285270911890682
0.314160128520779
0.30177946754549
0.305069270041629
0.3008106156309
0.312397283500299
0.304077414969843
0.328480831532042
0.317987459080423
0.320288872162178
0.313803263885892
0.314665524488446
0.305435791579629
0.325958687764246
0.316421808836565
0.332124385740891
0.319267855716532
0.333984458695372
0.326202063421633
0.341414137237476
0.331329507303048
0.345155573925474
0.330847668221191
0.334182688148817
0.343402097136682
0.351211912806349
0.332764869746439
0.367305415722972
0.352985392983257
0.352084415488834
0.348188644025704
0.366586831587469
0.356705471472931
0.369971518040152
0.354740799793395
0.371957334306127
0.360845279844668
0.364133727426407
0.367085433526659
0.3840637104082
0.355587458248296
0.386362982483179
0.381278444293807
0.383043295606201
0.370657331047383
0.392209315719013
0.372699686386192
0.401799609150599
0.375851723189084
0.398260358396655
0.388243467236956
0.387225222439804
0.383985595057737
0.408181663522962
0.370317333588416
0.392879081079153
0.380861117057356
0.412224878451858
0.400930778615241
0.407479040513981
0.393066233357185
0.409361566004203
0.403510572930814
0.424473341938854
0.395357466770897
0.43220575903411
0.439620375113696
0.422158663694186
0.402955619030108
0.431923082704759
0.401442446910353
0.446785258623734
0.411543551442484
0.421646953381988
0.400639429333754
0.432727796410094
0.413950485952736
0.444755443313613
0.418780638394072
0.420107542592479
0.425177375492731
0.458124483330234
0.425474421006956
0.4409240550948
0.423217045409246
0.443101085920945
0.440592421015548
0.453974267254149
0.441658194462498
0.443586547169545
0.436351802665064
0.44722592843587
0.432025850918781
0.438485964593342
0.454581863803432
0.459026748862075
0.445367479687541
0.474980805700766
0.444364487578492
0.456136947596187
0.45366029788955
0.469537165172002
0.449823730482593
0.451090897225171
0.433759211372387
0.464204600137895
0.443888847225482
0.484794772858789
0.459438019255751
0.476764055858942
0.463730956382838
0.481460929380006
0.460130068813239
0.493273511745951
0.465900920016471
0.472635661424016
0.467113476106195
0.491214493785586
0.465057209704141
0.481830357200458
0.454871577266702
0.476050237385729
0.461915485378765
0.482593241186555
0.462850919272107
0.478603597625737
0.449905181647619
0.491766184911869
0.463753424879856
0.486751321483598
0.458098533852104
0.475253814058486
0.474854354565735
0.48050703543138
0.474204958604996
0.483986308114037
0.464245607113741
0.484704942885802
0.480458403983935
0.491042067334095
0.467863151286729
0.484763409270324
0.477607463168392
0.486081945390471
0.46885445219195
0.480349835104336
0.474250984883814
0.491411607517786
0.464317227646096
0.482570116364085
0.490916092117741
0.496921955415727
0.466925036216105
0.499101624953419
0.485842467400586
0.485316186386683
0.473795500679597
0.4951466240695
0.480299834061207
0.49233251147734
0.459648918765766
0.494462803059849
0.473202023790793
0.48436229324279
0.485039816094099
0.506721517817672
0.470312284422368
0.480706043054224
0.479578433358122
0.496350975808642
0.47235803259367
0.49965345860504
0.465435197605279
0.489284627953596
0.461927759076573
0.469480167160235
0.472775575129118
0.498648604207184
0.480832721801643
0.482866249647475
0.473554886005712
0.490991164857188
0.47362948875034
0.47592835584282
0.472984657808306
0.484499639250755
0.474122342323296
0.498099190053125
0.477496080943392
0.48298086865131
0.469112927728425
0.484913068688008
0.458167733639808
0.473421038267481
0.468560306050158
0.455690310834242
0.460988893954486
0.481776454624992
0.453550985646895
0.481644244663839
0.473436910127165
0.468743324735244
0.454699835205542
0.477458765030499
0.457096434523284
0.482866988527001
0.456207429620666
0.465373012902932
0.455592305830513
0.471835671186135
0.457095573379112
0.457661340040382
0.462942417541276
0.471599183516018
0.450299708833485
0.472447748799888
0.46536042874298
0.469499417710144
0.451249281965694
0.461106774253809
0.45092119757896
0.46070868609852
0.450988461624268
0.459864430959422
0.442125018408606
0.459507216493159
0.446637199270587
0.455501814322915
0.428717927406733
0.45003611508452
0.436630469745285
0.449405616782943
0.436267185499763
0.450601199166751
0.439739949843362
0.44836934282357
0.438778893996739
0.448979361207223
0.43572725483387
0.450125440354849
0.432005755348211
0.44587696997047
0.439253471413196
0.450733563272138
0.434336750498462
0.450127650095427
0.430309363953908
0.435597489485603
0.42028374668731
0.438985592685331
0.417467816026612
0.435781348642103
0.407209288419718
0.426324493902842
0.410743836638627
0.421896174634046
0.409965601574503
0.420629723628034
0.411677943903735
0.419000000723432
0.403293319983067
0.434423573427047
0.406127351726346
0.427754816103445
0.397770405888183
0.412395676959177
0.400849928528017
0.404080395403767
0.395538576371138
0.408635277230315
0.386169869692628
0.416419798163703
0.384932147037975
0.399062328296322
0.400418680836289
0.401461019221842
0.389541953735819
0.405903330483492
0.38204182429926
0.393781488706329
0.385875269789186
0.385146198441305
0.378603045655276
0.398103627307154
0.378622541115008
0.397737244325969
0.381802596649276
0.388448495964474
0.377780488464499
0.389389244569119
0.371872183825188
0.380185648299431
0.371366254683748
0.374334672342818
0.367958445223154
0.376425524025274
0.356082506037961
0.374295606932659
0.358380921086939
0.364500270381557
0.352783913332574
0.364043188882298
0.352578881786579
0.363963988483866
0.351137205740043
0.356626292594959
0.343809118414672
0.364889231724808
0.338272810694124
0.360780607704265
0.337216077392422
0.342795149020545
0.342194205762083
0.347413761285067
0.334598939476281
0.354933027052171
0.329325324738621
0.334945547052012
0.320466441274916
0.333239103636096
0.321504727489252
0.337140503982003
0.311639282271065
0.327152235420956
0.327030570711859
0.321929055197653
0.314164650659111
0.328396251019151
0.316225596665119
0.324879372309992
0.312364952195869
0.313891866603708
0.301239698888892
0.315322588690815
0.301383511894238
0.308818915145168
0.292613064794335
0.305945187364038
0.2952471163086
0.307718895052181
0.294914784901236
0.303518749668364
0.289576910198548
0.299447760772932
0.295238698163527
0.30012064892223
0.286121515450922
0.296694001347325
0.28537325071119
0.290788236598619
0.278018986726149
0.287464459108724
0.278867617509602
0.289058807909697
0.268351114820683
0.279028056950997
0.266480918756118
0.282290247527805
0.274480979026027
0.272787271092595
0.261079138720806
0.264799843971408
0.25809206224956
0.267325110216691
0.25440299739513
0.266965622859669
0.254930821904215
0.266200618119574
0.254428767724149
0.250148336838936
0.250548366665803
0.255322149216443
0.246974853167431
0.251972609816719
0.238335028489807
0.249788045378952
0.238917715589679
0.249156299775117
0.244457284677816
0.243404495043899
0.228890887490306
0.24281802649687
0.235235751317936
0.238330175938698
0.231150632887961
0.234494055723984
0.228385475720723
0.234247892558823
0.220710182378779
0.228669621250085
0.221482372069181
0.227340084668095
0.22389313664036
0.221520709853077
0.217264542949339
0.225040198292282
0.208823292166011
0.216865791657979
0.220154309233231
0.219066175340177
0.209537941648499
0.216814290110188
0.204544104594097
0.210513416944242
0.199840516327636
0.210306661674374
0.201338605617252
0.207860853841314
0.200363571443835
0.212556173829388
0.194757659732553
0.205159586189486
0.196882715184485
0.198507684523781
0.192083141023685
0.200386034749001
0.190102728507118
0.1978096010652
0.188083206462531
0.190747768904695
0.182547799294045
0.185708488546137
0.183456685308424
0.194134094812
0.18268617682105
0.188542029202163
0.178561360469271
0.178736494774774
0.178924137168539
0.17921531834477
0.176896641691384
0.177866152270229
0.176011657397306
0.178085522185135
0.169231063935896
0.182001517382107
0.171310604293637
0.171678535500262
0.161728254505458
0.173195555663115
0.161968612520905
0.171885885968587
0.16490358580702
0.165519753490577
0.160941712842574
0.161632026726851
0.163524407772677
0.162197735141421
0.150278143641648
0.163144839067726
0.15489220898027
0.159542293913017
0.151033258155158
0.158777341135403
0.151581154881257
0.156553329041082
0.147375733157729
0.157593536030277
0.143545008783858
0.149594702812371
0.142871953343773
0.148865632989745
0.138430853611645
0.146287457971283
0.144536667519961
0.148053557379889
0.14442204107294
0.144727225579771
0.137125760069541
0.146143909503669
0.135100818061882
0.144996851458258
0.133204948676772
0.142678871089742
0.136906241170793
0.141710385666201
0.137634369039633
0.138746392227094
0.131586382698928
0.136144643947521
0.130666985965545
0.1313875083729
0.12544172949485
0.13592021220585
0.125754216557525
0.127085491461983
0.125510359960065
0.13108836880053
0.123317795647894
0.134226424876818
0.128601712834679
0.130145735174097
0.120792639424072
0.122207463173752
0.119434758366375
0.126461107472211
0.118971410831196
0.12581048193791
0.113757925124739
0.121099092616694
0.115077122207634
0.117897235115668
0.112754924807214
0.121506714875667
0.11063312730926
0.119647855075167
0.109429721657143
0.11578209384455
0.115263950377082
0.114174574497533
0.111583053731933
0.116603884729847
0.108599510529103
0.117975402675789
0.107638032027489
0.11696313184478
0.107532157356727
0.113524837004438
0.106196488853038
0.114614071159641
0.107611325569766
0.114668388432575
0.108807489261736
0.113604904756973
0.107401541058352
0.115143532917654
0.106160100801886
0.115520974283447
0.105958665850767
0.114699174811797
0.106648862120095
0.109202969694167
0.1036132381223
0.110558221157799
0.102689452773231
0.114098791502958
0.109624884538354
0.112638851175703
0.113046990832072
0.111935753026435
0.111058070787263
0.116671368623041
0.106026693808035
0.114440587780725
0.111478034103016
0.116883477528957
0.108555761258855
0.117254237446642
0.111576369820298
0.122255387704129
0.111860382825777
0.121461022466766
0.110186330538525
0.118957900986105
0.118027784310212
0.12427828693223
0.111943678338329
0.129221247086934
0.120337595563238
0.122586892615549
0.121693057931167
0.126697298171593
0.117420304100842
0.132924557885967
0.124101679433071
0.12675060611499
0.129545264011133
0.132867111316269
0.127977517211378
0.133124425620942
0.132909608342808
0.138905683235989
0.132754748372219
0.139923431080864
0.131887954948242
0.141918883329588
0.136454575876563
0.144060136743459
0.134962017508986
0.145776632921681
0.141146861916548
0.147199174783624
0.14432800572205
0.153454685428921
0.143838485932668
0.159251805104078
0.149861844508526
0.154997879942575
0.148157787420722
0.154939319176555
0.156085758012491
0.166161200272045
0.153102483313823
0.166386509738328
0.160920650060082
0.167577018081896
0.159834659518101
0.164146533470515
0.156675738797299
0.171623649331005
0.161615180550493
0.171037811217706
0.169524450120044
0.169728524458946
0.162815051674689
0.168871490943186
0.15775117328188
0.169490149064015
0.162803030860132
0.167999020909132
0.161862573707518
0.167299052817561
0.154984801591663
0.166212909016745
0.150869737000506
0.167523367805293
0.152373766173118
0.161464284150939
0.154227885604891
0.157794922596354
0.155297905411994
0.16127351861989
0.153191482386678
0.161738159842411
0.153814367246265
0.164328312388634
0.155468586239123
0.161373842851726
0.155411141505138
0.157935645986709
0.153995014738921
0.156717105792689
0.145488398101584
0.156803431432389
0.151042857045606
0.157351010072288
0.146740262783432
0.160407232162264
0.153900783791777
0.156865320277698
0.148177327914163
0.154986953642233
0.154150346391513
0.154391127032177
0.147117355266186
0.15381176538839
0.147326890255641
0.154618737380932
0.140028131852139
0.153771390797548
0.145966433169948
0.148723931476505
0.144660663829639
0.151365083345066
0.144130939653559
0.149044495940266
0.142273803528489
0.145746423550417
0.136931216256548
0.144955727987074
0.136171773669899
0.146535045226717
0.139621693378671
0.144452677805058
0.134022095378263
0.141405020307641
0.129806878215278
0.139130143221239
0.134560967831727
0.136401224139782
0.128087668849611
0.133723391571239
0.132504098678229
0.133984489711087
0.123969489949044
0.124830939054767
0.121492920449335
0.126403079193569
0.121661769068708
0.118559144182272
0.110544672949197
0.116112445757468
0.112792645412489
0.118055599707898
0.111924179652996
0.116736590982514
0.106406442242708
0.113336972954594
0.110903753721189
0.110463274371475
0.105827449109223
0.112047453804315
0.106559510014433
0.110003199490688
0.102630793378061
0.114391230533499
0.104151469929415
0.107837525271073
0.100051921249134
0.105748723414181
0.103589929733205
0.104053409892029
0.10098035382289
0.104589439155551
0.0990125103196568
0.102779384532263
0.0937852283530067
0.103041537961821
0.0962290353828047
0.10065892478354
0.0968814788340071
0.101010367373873
0.0956058433147615
0.0936356944548728
0.0897832382134635
0.0980794615490732
0.0887049177113035
0.0942020245927853
0.0944419653938353
0.094623220431235
0.0865203335317631
0.0940887452348307
0.0893190407587292
0.0945998442552742
0.0860583859700638
0.0898160528114013
0.0860553297218354
0.0945445761840172
0.087480246693277
0.0917597053848448
0.0828036420752996
0.087538501951362
0.0839187998973181
0.0910817522955165
0.0821899182982632
0.0860673679223321
0.0845050751953599
0.0835456082171352
0.0803269156566875
0.0831388734729896
0.0772658667158689
0.0854025049295268
0.075630165264289
0.0810731003945993
0.079798447174001
0.0833316883814861
0.0760039347934702
0.0837665436082256
0.0759763078186056
0.0833383535903688
0.0733755941420238
0.0799821904237264
0.0787357141495312
0.0820569461628699
0.0725254669558526
0.0802399721565106
0.075026367673477
0.0766625476154081
0.0763609876319559
0.0809132801035111
0.0765059260448059
0.0780298660001417
0.0744830247340096
0.0789991923122523
0.0766985935161251
0.0768027465113887
0.0703702284559292
0.0808897277396409
0.0725855391650223
0.0749581836063724
0.0754695733263332
0.077149708863672
0.0730343219377786
0.0756777260072476
0.068972139188337
0.0755344551054372
0.0683087504299865
0.0767910781109551
0.0707828361030903
0.0776832396442564
0.0705057967162573
0.0747490994184214
0.0734957614157618
0.0741789774045865
0.0707807239002086
0.0747156379736354
0.0670346419158254
0.0782029518268089
0.0634788225601968
0.0716016050141544
0.0689767107226425
0.0706722070823805
0.0682567792924519
0.0721800601813091
0.0665512504965596
0.0727454325028673
0.0690752948360469
0.0736021492589656
0.0653560240751218
0.0700772204780838
0.0654028731248188
0.0694043714936057
0.0644905223076282
0.0701867276549847
0.0665773288798961
0.068787718374247
0.0654166958738008
0.0680503386775727
0.064977662228773
0.0722023962183836
0.0661118332418373
0.0692701621597884
0.0632507240161858
0.0702735730825034
0.0635621381062854
0.0696779591068518
0.0676023947167459
0.0696569864156591
0.0633364900237144
0.0692193740633481
0.0653022426103518
0.065689617382074
0.0643554510395407
0.0650179326244845
0.0643146331534704
0.0718412527574479
0.0612945651711565
0.0679002086631162
0.0633967604297098
0.0660732408202634
0.0618335494243993
0.0694484095515406
0.0650001495275562
0.0674956993174427
0.0604383642354908
0.0682074868043634
0.0623039726018009
0.0656277873418011
0.0624072695761091
0.0665630292411446
0.0633035233886706
0.069555203466534
0.059696077026817
0.0668757019861376
0.0622042165188733
0.0641719165090014
0.0564234484661973
0.0688584118787287
0.0597886916392023
0.0618313981979744
0.0572851125022373
0.0620953978310255
0.0584806606588959
0.06169286951837
0.0631372070885828
0.0642811354268283
0.0563824141385622
0.0663238774687634
0.0567610993033432
0.0624417526164281
0.0587157194935742
0.0650596371748265
0.0565427248878762
0.0599054320087764
0.0539080804203907
0.061550365775452
0.0570608749569218
0.0608191968956394
0.0547186758488149
0.0595176190629173
0.0534350798500273
0.0608191372502778
0.0543875664999278
0.0552148180596396
0.0529568650100399
0.0591462205876401
0.0556782756069121
0.0561170879782709
0.053014940050492
0.0581260920303141
0.0553797589126097
0.0563010509088875
0.051515864194253
0.0563926831542602
0.0519568281923065
0.0573794459561247
0.0526371936785596
0.0603819661213492
0.0512108892125309
0.0525071792352913
0.0519061715199668
0.060345394238485
0.0516411797300833
0.0551018841413349
0.0538896565320366
0.0557284891253346
0.0519380610457605
0.0538779539062267
0.0515054847406679
0.0544501781687238
0.0474580659887138
0.0544426492934912
0.0501730149068709
0.0552016377454167
0.0503437627133308
0.0550354300673008
0.0498586423367281
0.0525427933403205
0.0494773310662075
0.0534281065729153
0.0466434093612951
0.0492243012188795
0.0478816950051842
0.0490128547231156
0.0452005072182752
0.0491963874384019
0.0456981731628956
0.0500097466814795
0.0467099119502566
0.0484054896889442
0.0457258072777693
0.0460741819970243
0.0428269310361518
0.0513111403953244
0.0454426740168297
0.0492688861550728
0.0414911204437583
0.0453867098427948
0.0433760677503549
0.0476707070575088
0.0415177922508223
0.0478725238567184
0.0413413234879765
0.049057012513119
0.0386042991955457
0.0433705185064956
0.0419816622274048
0.0452683837809532
0.041183942396333
0.0459864044955779
0.0426084939651873
0.047730989012276
0.0401841964650677
0.0463422482474748
0.0405014010446255
0.0475259003536039
0.042428685881489
0.0446612316335419
0.0386134391694074
0.0447518908146608
0.0424704887994097
0.0452977109835892
0.0403804880572378
0.0437649203595829
0.0398661387625092
0.0458924417714469
0.0407257259857572
0.0451152439383261
0.0430635647591736
0.0446976290335067
0.0391970309530226
0.0450089134339701
0.0406151423580168
0.0427658847204318
0.036097594240329
0.0470626296678338
0.0409476322677359
0.0449026279196015
0.0385696986290948
0.0445350868237791
0.0407418884594002
0.0416643059953297
0.0385248341309371
0.0432077511959873
0.0373153399433389
0.0422380725511564
0.0362835487680696
0.0415816293952643
0.0369281324803043
0.0395023834982807
0.0362099729142468
0.0407783123934791
0.0359507311229006
0.0394296741924254
0.0358365855659166
0.0411598756344015
0.0385501360754561
0.0426922225897544
0.0336480559308552
0.039110699777512
0.0352752050805578
0.0410910622915403
0.0372678684880556
0.039183928473097
0.0360045672412578
0.039679987914271
0.0322218934517804
0.0422544728001101
0.0345420986031939
0.0420165151671835
0.0364671013347644
0.0423977478477229
0.0348816138826155
0.0371536855014876
0.0343944327684888
0.0384259640570823
0.0347434994929524
0.0405588895462989
0.0380596482957441
0.041098550251729
0.0347219629270537
0.0400873070576075
0.0358828284101094
0.0414577028362947
0.035945883814385
0.0420179114791857
0.0356767925063047
0.0394354393402497
0.0349794439039199
0.0392724586417502
0.0329204293239102
0.0386913708757729
0.0347930083263586
0.0373713444943335
0.0372703400935617
0.0369398003973301
0.0351075026744446
0.041209439061387
0.0370955992714831
0.0387325608419359
0.0337559651374801
0.0362917350808059
0.0330250608765136
0.0357559080927514
0.0311141604437519
0.0381113918429417
0.0342843201542764
0.0363738222905303
0.0311948351743279
0.0349912592160694
0.0321980626913971
0.0345619806490386
0.0320892818714411
0.0381647639165753
0.0300859395840887
0.0346807995111011
0.0304716004625069
0.0329476091553715
0.0332439876074364
0.0356177754480992
0.0317424415979775
0.0365571451341042
0.0295099142641213
0.0340526995346616
0.0323022096852584
0.0345481674959592
0.0337909121571921
0.0364472415999585
0.0307722609466486
0.0362822213374506
0.0323100303045952
0.0371036368501482
0.0335436853024424
0.0328369790527018
0.0321427111910189
0.0369194825209501
0.0294980140554311
0.0361534824597463
0.0339274408201839
0.0334883079081372
0.0311919643543391
0.0343347024483023
0.0305596377747238
0.0353030795622234
0.0309235988303341
0.0342818906284531
0.0333927664358373
0.0364303822105906
0.035275711374903
0.0346925497986496
0.0318290497349029
0.0365796012746222
0.0311554135232973
0.0350914222204185
0.0309698640412258
0.0341408209295503
0.0279101353386449
0.0356070580104823
0.0284210681264926
0.0308569692114577
0.0295320652753973
0.0333602508797599
0.0309557601216588
0.0329090774749883
0.0292006072732579
0.0339990726401512
0.0280599511218299
0.0340607993262944
0.0295567270084006
0.0319851625011542
0.0278051129361276
0.0334375726796508
0.0255127151591442
0.0337196820045655
0.0279156960300079
0.02945333916966
0.0261205521320994
0.0313488869894553
0.027142820563628
0.0321543789196519
0.0273562966924573
0.0316377123925362
0.0247432742651033
0.0319898243099813
0.0278710065386958
0.0277457620238241
0.0255162686878213
0.0334855756847718
0.0276131932357357
0.0306098502020997
0.0268463860485696
0.0312765070932445
0.0261012372718485
0.0280868007701004
0.0262511705220446
0.030773699174241
0.0263665460370317
0.0319447198587044
0.0255046558567822
0.0315545615237977
0.0256990442050041
0.0287172605821094
0.0256424203484757
0.0273531432941928
0.0246421016879601
0.0289690852964033
0.0268254438741457
0.0281480820514474
0.0242409392500053
0.0314040030707402
0.0260059147188923
0.0308377903046698
0.0276629858987302
0.0289671631611174
0.0261984414069826
0.0263288175624244
0.0246764693646063
0.0283937194096251
0.0233215309990306
0.0266610314586597
0.0229325197237638
0.0279965288628605
0.0228190806657404
0.0269792009245885
0.0237706796715878
0.0277162266302095
0.022834126088955
0.0279755956230956
0.0230603000729212
0.0251738756397793
0.0247535287935453
0.0289174651096307
0.0215988993653379
0.0257530268367197
0.0230754122933522
0.0255739360671959
0.0225854257338503
0.0251237910829666
0.0242498799935697
0.0260567876506227
0.0202969086989901
0.024196514497176
0.0227411767670799
0.0245402556700393
0.0205344308635565
0.0279152077968458
0.0227251973430825
0.0248222531714517
0.0224353950042658
0.0258809134551518
0.0220969451685996
0.028488958979068
0.0219696279607126
0.027523509695712
0.0217736932361469
0.0247530333106525
0.0236794093777662
0.0276380596742713
0.0228675961226918
0.0269001826431563
0.0199981405303629
0.0243527826390845
0.0223694645602816
0.0300478416135898
0.0232745300135245
0.0306618540190325
0.0254503572836211
0.0344637093787535
0.0243421554180285
0.0319489700485668
0.0252405282463986
0.0270502619651617
0.014785055759673
0.0193726915471741
0.0174677287533049
0.0333941630171525
0.0204766277707385
0.0195792690233398
0.0129703248007924
0.0264570535918062
0.013423664419138
0.0225384996203213
0.0193669420239856
0.0242677685655559
0.0174507050191474
0.0248225192814467
0.0114416596434947
0.0239438719344299
0.0160538950733657
0.0298482765627473
0.015235274711793
0.0280858104495301
0.0227901919921342
0.0276978377376108
0.0146800180991185
0.0272741474580064
0.014275274393866
0.0267484444290123
0.0100086106404121
0.0263520098452635
0.0130479060855746
0.0289603003707557
0.0101528590708776
0.0309684498471753
0.0125694622803354
0.030062112701122
0.0153580437323367
0.0375856503625203
0.00810073337953852
0.0276209671346344
0.00454428276337412
0.0223445699953046
0.00857886298311426
0.0395011045853192
0.0129986536724987
0.0365021229672165
0.00595279740653264
0.0310774675382731
0.0123302155399613
0.042158082022984
0.00757082343782111
0.0252049935849134
0.0164973569759484
0.0385122130894203
0.0165568708546682
0.0201061758830214
0.0291445791374175
0.0222132717978446
0.0296485995243285
0.0198696119367657
0.0361162628411758
0.0129117603776424
0.0321788890520475
0.0166106590638691
0.0308361745248492
0.0205312207234835
0.0272946003059125
0.0229575751532662
0.0227913781482169
0.0268791389248828
0.0210068267334709
0.0279689619475612
0.0199047461353901
0.0268413299004039
0.0219472870695872
0.0224239522934441
0.0219281650515476
0.0216104151003579
0.0214483105848462
0.0201940025355821
0.0186549293787174
0.0212270510032151
0.0217132940522619
0.0225536392497768
0.0199535414722112
0.0221224920619179
0.0179726759766977
0.0183605917710754
0.019700870502108
0.0214228986453021
0.0215250074448078
0.0237656243020373
0.0212101508269696
0.0219051320741988
0.0192456151768354
0.0211305212132538
0.0203184031707512
0.0212506351408676
0.0191979623942798
0.0209213259851871
0.0223043009494382
0.022270662575613
0.0176603264542113
0.0227711092848827
0.0212581731019044
0.0217434101741271
0.0205578170176005
0.0232407022539992
0.0206336276253894
0.0210461366147539
0.0199890395429789
0.0228816840704537
0.018538028600171
0.0217080372408206
0.021395072056263
0.0224655642179714
0.0221459323831418
0.0225734617662286
0.0201914743511063
0.0212223621915921
0.0211414321468774
0.0214808900360379
0.0197034243329121
0.0200939236907816
0.0192779722478002
0.0222742336930375
0.0217337597695616
0.0239206898735737
0.0224012547660465
0.0224354122103235
0.0211968291905668
0.0235077216985258
0.0215685915301753
0.0214653800954957
0.0205440286585269
0.021480811130358
0.0193862683630057
0.0223255683874885
0.0185624964451535
0.0191665110775308
0.0214927917451326
0.0250995768866582
0.0207582027080929
0.0223814302875593
0.0167227525409534
0.0215994674782201
0.0191984739617642
0.0220970167671471
0.0197844176153834
0.0217675326703896
0.0198743163649302
0.021987540701401
0.0187242111783552
0.021860986352435
0.019576599841469
0.0198764427297392
0.0169893281158009
0.0208512408124234
0.0187499431444548
0.024799173742252
0.0189807635571698
0.0218495907794213
0.0208574124415918
0.0241100101395365
0.020322221239167
0.0215537309245253
0.0204407643797824
0.0214565163038861
0.0185440577544921
0.0226368371658651
0.0214332750918702
0.0206659418209805
0.0212742305102631
0.0220119892972174
0.0194485414446866
0.0227883099655033
0.0219829262816512
0.0217566479788155
0.0220508860101827
0.0229705286711319
0.0196619643996665
0.0241173235102633
0.0215756570110183
0.0236416461220923
0.0214414113149006
0.021994810166618
0.021271498793342
0.0229438690184344
0.020049941887958
0.0224848150743453
0.0190703368530468
0.0194467768755812
0.0200075216825167
0.0202433771291063
0.0199436452429842
0.0220381035199913
0.0207477545102314
0.0254621663138522
0.020863577041551
0.0207137070107969
0.020522353302661
0.0225830200274552
0.0222219712820432
0.0221900182733843
0.0198864732926544
0.024626023937232
0.0203596331023636
0.0247196937445051
0.0208776801875077
0.0219319743866526
0.0192117914691733
0.0211230691683212
0.0199433621961309
0.0224255720969254
0.0213332395260947
0.0233774605032916
0.020385693028603
0.0216784324936666
0.0217348534742932
0.0230489299863326
0.0221413074536475
0.0224599291842087
0.0199156821626885
0.0231043034324903
0.0204910056742707
0.0225428876965585
0.0218066581994044
0.0263265786009157
0.0199516777482208
0.0217533593979462
0.0201779522255582
0.0246967116312108
0.0218174730579316
0.0259623274705273
0.0214485255265202
0.023972402096256
0.0218914530382406
0.0230304915811896
0.022240986253741
0.0264098341343131
0.0209897137093384
0.0245976481356114
0.0217393980594768
0.0225326443869059
0.0225698185450158
0.0238539511530357
0.0223153286978296
0.0217562285580304
0.0221404280622237
0.0245779229219306
0.0219275924017757
0.0222731987399732
0.0195715030790385
0.0235197595304179
0.0204792927314514
0.0215343226045873
0.0205316407819285
0.0230127744929823
0.0211083091908869
0.02162998814686
0.0205857199946638
0.0219191313506418
0.0211260355760604
0.0226930449861982
0.0176454913728256
0.0223250890530588
0.0204469790212032
0.021757349589893
0.0203185099868132
0.0242188500746241
0.0183051705985539
0.0222178254895913
0.0214580498984375
0.0228181270481966
0.0188897094649555
0.0227016532944286
0.0222187744860257
0.0212234545384564
0.0201098368114512
0.0231425009076475
0.020170835779893
0.0221020767699462
0.0194914479316781
0.0225603733386404
0.0198971319700618
0.0214407682290236
0.0192514193307573
0.0221206775915231
0.0187438874869972
0.0220145216649889
0.0193563952377703
0.0229645693477819
0.0221991401910957
0.0238865334618212
0.0193469024040961
0.0221534366831629
0.0201504387366438
0.0232977988125291
0.0198476888653737
0.0225246187444221
0.0200888887038068
0.0251924695904644
0.0227824291783848
0.0227681932504188
0.0207047275131406
0.0231351639234861
0.0200776956811449
0.0219116565055717
0.0186298220953952
0.0220329023061121
0.0202206314814311
0.0227504439104683
0.0175322538406719
0.0201547549056398
0.0194027710047765
0.0218817399667998
0.0180123926727279
0.0202981241350041
0.0197333095130089
0.0199353113017669
0.0193709759864093
0.0212619129612072
0.0190365880426235
0.0209398918196523
0.0194464821756639
0.0216398410740075
0.0191032529438275
0.0206205940195305
0.0200999418290419
0.0221111479449683
0.0194248512957741
0.0207845405797988
0.0192102349374362
0.0220740983517966
0.0179166740084689
0.0210602513741892
0.0188700587174148
0.020704117845094
0.0196971440832662
0.0209178119680313
0.0190849150314944
0.0217829307755389
0.0191639993389403
0.0211541650721827
0.01810505386954
0.0212331958504348
0.0209910410539769
0.0210492734546759
0.0196550692209595
0.0218629775952756
0.0193731590664903
0.0221897209589193
0.0179145548144119
0.0210412332229214
0.0214035629117587
0.0217916100463607
0.0187194175756004
0.0206940480574945
0.01849895460682
0.0211062500647876
0.018918607399868
0.021195436330351
0.0188094767791714
0.022215197541413
0.0188323901346543
0.0196069719747344
0.017038012177431
0.0227079858755883
0.0183689649603437
0.0197503336354318
0.0165188148803686
0.0220229499473923
0.016302331546719
0.0198567537273808
0.0175413334910302
0.018083376557112
0.0172031452960792
0.0203791689533983
0.0169708413556308
0.0196187514382649
0.0212703709553
0.021367170933085
0.0153024490693683
0.0192294485280427
0.0181244858915258
0.0185135003214033
0.015896902552584
0.0202435493183609
0.0187231602175531
0.0181662209106444
0.0165099919550193
0.0188153623548672
0.01576525726423
0.0187558427667748
0.0144322094155064
0.0174864473673863
0.0153327288791541
0.0169426360277999
0.0164300734711446
0.0192892225831538
0.0169869574889486
0.017402247470164
0.0152149868577397
0.019136809983722
0.0156319823284647
0.0166013901865292
0.0151091193251628
0.025900043384024
0.0186395432593218
0.0196882465071247
0.0188029738566681
0.019963215038658
0.0161791538268809
0.0190932305677336
0.0167431182848729
0.0181253792851077
0.0155538278085948
0.0187786171136809
0.0162413907512066
0.0193289811060768
0.0163013026385467
0.0178912276320219
0.0154857338604321
0.018884296537975
0.0172724399776167
0.0173736149284017
0.0168617865123587
0.0175142581801606
0.0165349042744855
0.0175463488573589
0.0149940108350783
0.0162951113124954
0.016929707495854
0.0214546482451355
0.0170410391430316
0.0197324477356452
0.0172300826450012
0.0174697821132397
0.0153087101243894
0.0169666338135835
0.0166958774142872
0.0174189276467714
0.0164405434483224
0.0178739117033382
0.0141479797245646
0.0165612143467932
0.013909784471492
0.0167150193804817
0.015335338275339
0.0164011892394513
0.0149089028112864
0.0155118805533765
0.0146742778099696
0.0187051725677976
0.0152334273923284
0.0159152202184913
0.0150670335298407
0.0187989625098119
0.0161754165255948
0.0173558837571682
0.0265127807649696
0.0196027653685449
0.0140417661373019
0.0171383346051652
0.0143618467032731
0.0179938719399135
0.0150185492705631
0.015564567275062
0.0148555250310106
0.017634158351
0.0146624170523082
0.0163908550088846
0.015029832724722
0.0190293761403222
0.0158302057551469
0.0184058173507973
0.0133685835758544
0.0175992222475173
0.017485022462497
0.0161548708025529
0.0152616182961801
0.0238255038757709
0.0200752327098468
0.0182117375901726
0.0154024154219369
0.0124510474176584
0.0219043593552301
0.0294974508379204
0.013087334060519
0.0189625383931476
0.0143797953125792
0.0180128045568317
0.0139931943167492
0.0182181518763003
0.0130286681726381
0.0199409835701366
0.016181548774931
0.0214421751838072
0.0151804631819143
0.0151135864680838
0.0153524879553036
0.0145177631465679
0.0138802508824315
0.0168223670155982
0.0129226237155229
0.0161746329071404
0.0146153718209741
0.0149382226538663
0.0142934164290502
0.016049556287969
0.0130330859206031
0.020175612151
0.0147083845667538
0.0164847136424619
0.0141275354247155
0.0150484538886456
0.0158656449223741
0.0276157453446105
0.0151386770232498
0.0169827853703077
0.0151884306887631
0.0148561764316213
0.0142700383396809
0.0162909961372886
0.0149640331171432
0.0158347286513527
0.0169284416632561
0.0151009228818842
0.0145561129133408
0.015895554596083
0.0146423235515529
0.0157061746321406
0.0147143928378044
0.0158554148564809
0.0148392056732591
0.0166158046050681
0.0122550312690101
0.0157986332947233
0.0200256562061476
0.0331573773350305
0.0192472308848773
0.0248932883073034
0.017080894210418
0.0186979981721909
0.013631620749845
0.0169892735666268
0.012738316629162
0.0160893212887588
0.0133148887781073
0.0163582569089105
0.0152855761270353
0.0154326836334541
0.013364497095843
0.0151015544939393
0.0118504833833295
0.0138373759924323
0.0144386769916987
0.0162610942899995
0.0144381336063599
0.0156176689396384
0.0161110441446153
0.017555177270048
0.023074276226427
0.0159029755924413
0.010868261623697
0.0217989626093391
0.0378416630199257
0.0189128664672353
0.0194320329435916
0.0168632978582186
0.0135739236655239
0.0149794748180147
0.0125914332797716
0.0185717191860109
0.0146916341242429
0.0152908930114361
0.0151876327741158
0.0171662947957506
0.0157800864971483
0.00978188192035102
0.0125837632007604
0.0356423135111529
0.0244654084405087
0.0185539625145722
0.0138618449296054
0.0114500494997702
0.0290388254644795
0.0208273855689339
0.0129420588884165
0.0187279176863474
0.0116735679587291
0.0172702410622557
0.0146734444540423
0.0161908698621115
0.017235941910146
0.0195490763609924
0.0114381354164044
0.0191160753685403
0.0164008832412333
0.017834214406839
0.0149499505042587
0.0189514019198798
0.0217886583169289
0.0185384192752763
0.0144878421189343
0.0207869300944472
0.015414173104283
0.0195239706338313
0.012549075779514
0.0167274750828496
0.0185197067760915
0.025102102942761
0.0179729847349566
0.0217818179533841
0.023163350401137
0.018529704721765
0.0143418852020377
0.0241355058771099
0.017621368515579
0.0184278601959461
0.00812364712250112
0.0346028172593401
0.024552531482757
0.0265084893164439
0.0212141998520177
0.0136174751549983
0.0201925960047574
0.0141615415559031
0.0151746693753844
0.0177805217103962
0.0252893231231864
0.0116169728680143
0.0190398998248552
0.0152777565384649
0.0276229069713869
0.0160552109787841
0.0182830552526254
0.0159231674300439
0.0145799412221912
0.0168241240892587
0.0209501503247802
0.00810062975193558
0.0302320179428713
0.0418498287591403
0.0239451970780804
0.026186041558254
0.0166163237775605
0.0371402228788182
0.0292544834546587
0.0158275477019491
0.0184364144427769
0.0187723084582932
0.0164200019024288
0.00841087729543809
0.0319805930560183
0.0334371561979275
0.0140077322484213
0.0221371297420933
0.0163437666351951
0.027498039452516
0.0365005710059968
0.0159848262542439
0.0225230455428051
0.0195727643382766
0.0156670139878393
0.021084909987135
0.0451799826203594
0.0167965515860689
0.0356818082344167
0.0306304326500534
0.0298588399175436
0.0307781985682925
0.0214837257030978
0.0226338054556715
0.032035322648401
0.0253183795645866
0.0134827912899322
0.025718776494179
0.0379053955788289
0.0264122307564359
0.0221530080262577
0.0253947246975169
0.00794342599353345
0.0338660762022047
0.0666473913481382
0.0450589141415614
0.0267236275116982
0.0269633070298026
0.0348387017383786
0.0318660282156275
0.0216564798870454
0.0250622867871269
0.0201836196307256
0.0239412677659764
0.0228697396325544
0.0314473947328027
0.0283300273248909
0.0242050061557152
0.0253155296964914
0.0206491076564358
0.0310349124994028
0.0636141193322399
0.0504716134886241
0.042327081667615
0.039268320769562
0.0495610122854602
0.0293059260689757
0.0340447359636924
0.0247847787641217
0.0361806248013934
0.0320246728867382
0.0304187342066942
0.0264157885043711
0.0377872001315423
0.0432671910878807
0.0378573922219248
0.0491032741971843
0.0413944490242472
0.0226272976785744
0.0341141058489662
0.0809266177783724
0.0861117897700174
0.0319118447565135
0.049701503300237
0.0251530788599382
0.0931128565855783
0.0524934675821591
0.0410145954668147
0.0420523944182199
0.0446420262291435
0.0410556392112402
0.0549272687039329
0.0496577797954061
0.0595041294005175
0.0489892018765147
0.0469671474849464
0.0372646323039709
0.106389562682204
0.0903880944149502
0.0754130015725995
0.0570211729462939
0.06781657139335
0.0675616148118914
0.0656189822296266
0.0598857817771917
0.0634748402415449
0.0575071413223797
0.0995667946946588
0.0812707152464709
0.0627786442900206
0.0780630587184241
0.0774104040882727
0.08468132998362
0.0811329871396616
0.114070807573721
0.0756828714824054
0.0846433020302129
0.0818217070414347
0.080098849563494
0.0789377677769481
0.100127033178383
0.103917432349462
0.0864191998569624
0.0946278237473643
0.0874144079297638
0.0894899780509816
0.0931189811911261
0.0930382155863671
0.0968002628897301
0.100415772758095
0.116249359775187
0.150694652658449
0.136945277722189
0.0988448931211107
0.104189617176459
0.0937358592703644
0.108497941592106
0.11478293710631
0.105547249329442
0.130072009119447
0.0954593616987
0.0967581038428693
0.0954230976069228
0.0976426883005935
0.102643057259645
0.0893605710780569
0.100330527298866
0.0976917791721067
0.104928115821209
0.0906561199216426
0.150705881964958
0.105275584604234
0.0909248676745745
0.0961314051180645
0.0940695305211198
0.0913482596010957
0.0908409936881531
0.0911263272852784
0.0940606024718907
0.0941597034086011
0.0808615015860272
0.0906813349133649
0.0830112005152342
0.110838223138962
0.0858937508783584
0.0847499566286762
0.0879813837268737
0.0794204981508438
0.0778702381481023
0.0746777999450426
0.110310670105702
0.0916134236304592
0.0705532686287448
0.0831984680789083
0.0710826753474549
0.0760476422451994
0.072626195264638
0.0777044248421644
0.0724934759588871
0.0750212086364966
0.0680361032714659
0.0766920495017871
0.0658758928035035
0.0687527699607205
0.0642909734750565
0.0735480639392026
0.0670761472160627
0.0707747802411527
0.0625360718981546
0.0683372212431405
0.0632380363809823
0.0664291207652524
0.0627833514035642
0.0685505598400932
0.0647206740679316
0.0676349339381528
0.062495679765816
0.0692516927295143
0.0635101971026109
0.0686465773173778
0.0644893314575566
0.0662827280938466
0.0602665879749291
0.0636128206236358
0.0611139931404132
0.0649228672492327
0.0611407032706636
0.0642344693577867
0.0617134257052875
0.0631717347072913
0.0597522255345205
0.0568448066659835
0.0609180609828735
0.0678170878226531
0.0923442090982068
0.0618397237753345
0.0610934254317594
0.0645292947249217
0.0550266228004409
0.0603447692536675
0.0670656523844017
0.0906159989558908
0.059614696073249
0.0613143999692535
0.0492157808311115
0.0598772233514564
0.0579823437031201
0.0632092049216423
0.0467228602827974
0.0580461593611904
0.0404931590216237
0.13192929801483
0.0637434464331997
0.122828125201115
0.0714099078855205
0.050619297919401
0.0527268709064497
0.0787383558211011
0.0662128257914089
0.0448096973706706
0.0608308067648875
0.0597183428815271
0.0684931088031801
0.0521953774456251
0.0532479832384194
0.0492177174422685
0.0501405635408113
0.0672583714303734
0.0583990950090632
0.0553357933667697
0.0808188197587846
0.0616229871005159
0.0571761836630639
0.102631731022998
0.0790899644135648
0.0566548345719328
0.0530171747530851
0.054664604261555
0.0565028855932324
0.0750449203501366
0.0683828013032265
0.0563842512279768
0.0537728105082484
0.0443920340190127
0.0514505813393988
0.061247114682146
0.0534207773803664
0.058711417515626
0.0573979689214342
0.0630283979221449
0.0329336300716358
0.0749598262964365
0.0618091709300037
0.0941421347000029
0.0499230695056928
0.0498609660376401
0.0545585242837386
0.0790783686167543
0.0581022045816543
0.0547568843743222
0.0496320323716153
0.047246319650157
0.057538289097325
0.0556934848517184
0.0465708517283028
0.0631360984440188
0.0567573365216185
0.0693473632629299
0.088482669429397
0.0835602073638273
0.059602368763251
0.0457149507195365
0.0418927652467302
0.0560654937156755
0.0395141417887746
0.0503466790810582
0.0410942296699627
0.0622234918436203
0.0468834934018453
0.0711110445828477
0.0641033431388973
0.0449117424697429
0.0500828689600782
0.0494372271142784
0.0503432326785047
0.0776962604322075
0.076649008012501
0.0689109450142003
0.0509258924300936
0.0665253776472158
0.0599867340360125
0.056976018125757
0.0584045410990862
0.0550041948002713
0.0582929726127717
0.0610111932584651
0.067025362365438
0.0644795816818235
0.0651049716571989
0.0674084560885327
0.0770568231475957
0.0835360121126218
0.0784588666582073
0.0591399493032689
0.111888928377789
0.0921576917859535
0.102146834063393
0.0794207185576244
0.0850683210032884
0.084164152784108
0.0845284392129383
0.08772149734534
0.0881594561745032
0.103583728558134
0.105728348543396
0.0854427827086033
0.102637186833549
0.0865862330879601
0.10757035782103
0.0969262627966765
0.129346489516709
0.109603187796115
0.148519640078172
0.113948623179716
0.109103579585978
0.106266258439163
0.103442656321887
0.11588009303558
0.102117045180986
0.102412789670053
0.10510986685202
0.118172366379585
0.114351947930171
0.103481745645927
0.10999114113968
0.105345452600432
0.107701478872337
0.107865475821741
0.108432627800385
0.109700103961493
0.110791769990498
0.109543608193037
0.117309366615458
0.129062411991604
0.14406145017914
0.107679555813837
0.12144372555811
0.114675476288774
0.121021198084349
0.115364243456766
0.12293260440933
0.128688186017728
0.121769362269928
0.121710756649873
0.124640671657871
0.118285650449606
0.138478584411163
0.130078753226296
0.139231924565641
0.114736149626091
0.134129992671445
0.112514066984295
0.163328383521828
0.140245243245376
0.135563639563808
0.140595483310048
0.127294928729371
0.13519940295969
0.127658129052661
0.135766131913301
0.128742247852305
0.132622948297255
0.127287908856945
0.133352933808578
0.129806709965678
0.124324984116221
0.130727459986382
0.136137799151193
0.13251244334956
0.122134470986434
0.13074124700818
0.121628532957444
0.124504762355738
0.131917874620607
0.14254294694877
0.127529311036216
0.124272344808322
0.128518711489182
0.13407429243707
0.134335314619987
0.124515468607321
0.11617899729035
0.126030995015342
0.122078739447972
0.12454178306155
0.123793096931697
0.130159565458694
0.135634816055813
0.122365773497648
0.127017021935199
0.125317121932058
0.131714031823563
0.12760149359159
0.13418237056311
0.130841788627757
0.135015802988374
0.134210920930289
0.134057410779583
0.132706028481608
0.144109625451216
0.138554738149859
0.142945134438286
0.140119293299371
0.13477747576401
0.135293450003854
0.134070522055481
0.13955164151252
0.136263924670722
0.132098139645699
0.13433546678153
0.125866258965081
0.137945212585695
0.13983518303689
0.143208222913542
0.12535798924578
0.139481561782059
0.121954640960697
0.132575145540334
0.125978930737004
0.127937217735375
0.123285525028099
0.125158385801881
0.123323630232176
0.122803331740992
0.119965817992422
0.123120899275918
0.123351269152091
0.122541880048916
0.119045761943436
0.120568015333545
0.118670491173977
0.121374643606225
0.115951681097637
0.121242515374964
0.116062286473065
0.121829179589854
0.122241091041536
0.131238425004117
0.123523329444165
0.124638344171571
0.120072545347024
0.12340742421402
0.118202534656713
0.114982295650709
0.117161926013408
0.117399074051588
0.117284994004366
0.115456837424211
0.116816552268478
0.11600753252521
0.114891022663
0.11474598713324
0.114040423562862
0.111365612979604
0.11336470702903
0.111018053987096
0.111960474236746
0.109249816405709
0.114467542630424
0.113415346769059
0.111164030561044
0.110440142166169
0.110432184779573
0.109183258609787
0.106425122246164
0.111471984823377
0.108203890726392
0.109082021178564
0.105011911664273
0.108252941693674
0.106658557423724
0.106717680632569
0.105351545065093
0.10533823634063
0.105862002223666
0.105734603810164
0.10521039799483
0.104921541936982
0.102778705456365
0.104989657274796
0.105009235247192
0.101326786744785
0.100182387136651
0.1006459066801
0.0984600036997826
0.0974357635547754
0.0973420828848656
0.0953811712657371
0.0933455170740723
0.0935712305100199
0.093818336931455
0.0934770907272382
0.0920435890005565
0.0934262105071555
0.0917156857537674
0.0889438946651919
0.0909868332892737
0.0899415124995589
0.0895328763329676
0.0917812975612927
0.0906623219411141
0.0915721441190511
0.0894670076208823
0.0899615481051352
0.0906566486661256
0.0914652217436005
0.0893934130451947
0.0904109520197136
0.0889879859560918
0.0913355671459788
0.0919963535625871
0.094349354676023
0.0923535339662631
0.093877889467739
0.0933858777295866
0.0945815921474738
0.0927806778206622
0.095223575318689
0.0933853538057875
0.0962838183494756
0.0940522695143573
0.0945748952619742
0.0956346691271139
0.0979046909627645
0.0952055233290531
0.0963641577504226
0.0955580034371709
0.0954089032417459
0.0966856296460704
0.0948417262804715
0.094964917399058
0.0962263403374202
0.09516848163451
0.0956879944640673
0.0948827430785653
0.0971668464578316
0.0947055772069908
0.0946096824439943
0.0953119961258928
0.0943254596922075
0.0955782493341823
0.0935489432317963
0.0915736164903709
0.09290913803372
0.0936782724371497
0.0931323512085695
0.0907026133083434
0.0916823954747694
0.0888999800646918
0.0903153252655122
0.0913536068754351
0.0919622132075462
0.0893435975864291
0.0908229317961438
0.0884428906383496
0.0881612476079186
0.0867053920910374
0.0866791088142705
0.0869716386488098
0.0869191419175119
0.0855049065226691
0.0867857546807362
0.0840827983980945
0.0845169388192814
0.0835073047676523
0.0828634182287176
0.0821200925460789
0.0810618690736246
0.0803967978387104
0.080686511266138
0.0790966709865092
0.0793391059964052
0.0779748808843495
0.0798610841093169
0.0789811318264586
0.0785488307683025
0.0782344333594723
0.078769976959973
0.0786859456310376
0.0794505185880155
0.0785798234444281
0.0790635681461657
0.0787814512396157
0.0788747265835003
0.07918823089089
0.078627884982094
0.0785919641157
0.0780677399240504
0.0773267594403002
0.078102026143297
0.0773713210447061
0.0746179653010597
0.0737211975735505
0.0740171805378614
0.0720661770136783
0.0728242944976639
0.0717966478669916
0.0697801768740852
0.0684996425261999
0.0671690781002317
0.0668958223196833
0.0670326003376733
0.0658564825189505
0.0664191979150868
0.0668428947849506
0.0682737640973993
0.0691724756756101
0.0715918345715575
0.0737199822311841
0.0755100035249697
0.077662814913922
0.0818222574368109
0.083296920169444
0.0884845960291846
0.0934960026963333
0.0945552100461458
0.0979211586159794
0.105888253127073
0.108545589107174
0.113204467452933
0.119648565042776
0.127062073711361
0.133274053842235
0.139824325975152
0.146031489928602
0.154117115539884
0.161002317058618
0.167316843706373
0.177180536639753
0.183569717478541
0.189497284050421
0.196552727049092
0.201872281878303
0.209033568085326
0.216328341390117
0.218709378079176
0.222471137621763
0.227779494400482
0.231610260827484
0.234213319320841
0.233711112689628
0.234754323047857
0.234456245330479
0.232054608189345
0.231151149583464
0.230572362615704
0.227477274201985
0.226727764196561
0.222567633422704
0.220278870259264
0.218842856252629
0.217168419214424
0.211965607934889
0.211282800360379
0.21146017107604
0.210348429962355
0.208338117633457
0.208878855506424
0.206196934986005
0.208562317177099
0.209534825421721
0.211161277671885
0.214196306667476
0.214427799378188
0.215821160118015
0.220065212842245
0.220686018249509
0.224641523004777
0.228311076498968
0.231477566903688
0.233501613878965
0.236914652036403
0.237493942289851
0.239806591499945
0.243178937394368
0.245893936926925
0.244538028158952
0.245678784477252
0.249564833027878
0.250104925602998
0.250876310201304
0.252622175435745
0.252952005305647
0.25034487102064
0.25327918546979
0.254092302008717
0.253780298307237
0.255104921173349
0.257476622154034
0.258307520124195
0.261564884552802
0.263271989744668
0.264652799430257
0.268022989199622
0.270384291572418
0.271156154905912
0.276236615877216
0.280344816537228
0.281621734643867
0.28410481799828
0.287221003705714
0.293060089280844
0.293254836280466
0.29884243314063
0.303844825697987
0.31093341637384
0.31731021853459
0.322198764718911
0.32955838916626
0.33974323974568
0.346429986083876
0.35607860168323
0.364539406188445
0.374475666444393
0.38341420115617
0.393497442459029
0.397333526043339
0.401207238014461
0.405625094212568
0.409030867580558
0.412531539634211
0.410071587153436
0.410183965154283
0.40963852398063
0.406554231330814
0.405543057829325
0.402456670538277
0.399857882080634
0.39645512978599
0.395485916366432
0.39230897613713
0.39348348671527
0.390430628441229
0.387918046402399
0.389798978754663
0.392947355443525
0.39418144694021
0.397648954606071
0.401508523688257
0.405620912455421
0.407432015922784
0.413894769567572
0.4228073577898
0.422767398656213
0.424144260175498
0.432091919348259
0.435461355490477
0.444219596007832
0.447718182079035
0.45052773013
0.452839050783587
0.46611338704103
0.468022252009085
0.469084255100681
0.473631296975621
0.483640460623856
0.48730169983487
0.492506299232785
0.491813095594562
0.493704222394667
0.497979303380116
0.507572579120518
0.510900830206023
0.514256377919154
0.513100836718207
0.52557234449702
0.522811577084941
0.526915746309807
0.527333411615744
0.531078219675837
0.537895204165805
0.537426312728508
0.535922419976971
0.533407642410904
0.535736543970704
0.539769250426293
0.531472309857341
0.524618661138868
0.525036154948478
0.522744298773998
0.51604081994888
0.507776142757439
0.499535135497541
0.487533293776645
0.480832599018475
0.469237619872795
0.451635808178127
0.447594771743004
0.42984110494854
0.419802753101737
0.404596531129387
0.392695210390472
0.38393344575472
0.373905310759403
0.361987809592804
0.350608579356009
0.342551104210409
0.337133060560078
0.331649341974626
0.325824714071666
0.315474279722774
0.314376069669632
0.312660496149606
0.30511507175803
0.296595741329847
0.295683300582622
0.28814381753416
0.282465585428096
0.280497890426538
0.270310584195713
0.260373295332842
0.255987003428064
0.242912851267246
0.236858865944874
0.227569800255357
0.216564304283925
0.20788342471759
0.201138982090958
0.188436379255015
0.178011169647416
0.169759650416686
0.16055384782502
0.150901380326082
0.141117105258297
0.133832576649668
0.126790004499197
0.118876277950788
0.11364684967655
0.107494046652338
0.10028552881487
0.0946993819352829
0.0893967224253863
0.0871391681093129
0.0837218953014354
0.0820700376870119
0.0782291397983426
0.0725904656760163
0.0710356332460933
0.0668573365580787
0.0665385282094858
0.0654333747099695
0.0633717999904106
0.0617380391588459
0.0617623376253208
0.0568501540796813
0.058084135828833
0.0584643354075292
0.057817117137609
0.0601332299795962
0.0595584264075385
0.0608231405327697
0.0590621459889197
0.0580712788274006
0.0586140926819187
0.0605822096716009
0.0597776456151068
0.0604262920019939
0.0622767009891188
0.0615068784140676
0.0659106340849102
0.0661042929306643
0.0656806806886407
0.0672825481382778
0.0664921933830124
0.0693572401761135
0.0700025682625815
0.0712711066997397
0.0710696417411569
0.0728305768149257
0.0716284527264219
0.0719449558716058
0.0737775401190176
0.0729985035524463
0.074910944694735
0.0762557481780607
0.0768023675136518
0.0761278891576646
0.0765731024695113
0.075539356177215
0.0777404051492963
0.0788432778845685
0.0742745334605524
0.0751926129015949
0.0751792932896754
0.0777688136186609
0.0787105445165694
0.0757722554148791
0.0754807521838499
0.0740956284775832
0.0766015954594203
0.0771365434119517
0.076684579895496
0.0736126237429664
0.0751956168377472
0.074220974583757
0.0754123174518076
0.0728454381648381
0.0772322429759431
0.0736758611252061
0.0701849463315538
0.0759049732091904
0.0725731724578812
0.0748524173673786
0.0703033520719621
0.0724930167246268
0.0738104160951041
0.0741013022893219
0.0745907158664534
0.0822097989712963
0.0850432313897537
0.0804544396130931
0.0833241377877046
0.080398983057352
0.0828165557576266
0.0862312122428053
0.087593316520692
0.086852582375377
0.0842790098331305
0.0855129663621988
0.0873749790382886
0.0820176413443671
0.0804309749255578
0.0777957085420161
0.0741995747988848
0.0759757659929569
0.0788541956158489
0.0697101422979314
0.0772149612433033
0.075674977788534
0.0697549311499044
0.0712034557974555
0.080213043302047
0.0771102594786241
0.0791254740424402
0.0755835924563957
0.0773104182652954
0.0776021223944306
0.077816205645027
0.0733602919610739
0.0771030675105902
0.0787916023564351
0.0781896049565087
0.0812248766058086
0.0779959696707994
0.0739863339070947
0.081060538356763
0.0807263136238307
0.0782439867257363
0.079866031171042
0.0802974605469675
0.0807096603403773
0.0806010566386291
0.0773580622706267
0.0778781217397509
0.0834022606320257
0.0764824981417619
0.0754810547253357
0.0804348993894996
0.081580578162095
0.0856075692421401
0.0800510907911118
0.080143111552149
0.0811681550792313
0.0779396140280031
0.0769517768282376
0.0816237905732185
0.0706655214916067
0.0757326760247594
0.0736484593048378
0.0761401082132765
0.0738954547577174
0.0807294989321999
0.0757844466914341
0.0733661580317442
0.068185765620488
0.0742255463915896
0.0738173179014755
0.0694517996577087
0.0664105798985708
0.079367256734387
0.0683199871351953
0.0699912513816825
0.0680827565823376
0.0722288702120289
0.0705547515992737
0.0672198230157458
0.0715594396340991
0.0696656379312312
0.0635714248681972
0.0679193678857853
0.0673093254812007
0.0600523730465491
0.0693145004916693
0.0701574447105865
0.0697575717538598
0.0672523035741005
0.0672570652533525
0.0671748935623506
0.0713124606808866
0.0705800746394686
0.0733008139860369
0.0742776086358945
0.0675583640314872
0.0687659290872138
0.0790891062278537
0.077384318208417
0.0737831040672313
0.0841934092611513
0.0786332704353751
0.0784578865795072
0.0792870420723504
0.0817778059869083
0.0841270747878878
0.0745968211351794
0.0784345573860381
0.0827825461847924
0.0863618343315233
0.0889733840761716
0.0917546157826921
0.0931445565272245
0.0995847210169926
0.0949989555814871
0.0965042512478232
0.112701275216343
0.106978260452866
0.10989245431303
0.120598175080831
0.109211160025667
0.103864579922679
0.121224147212737
0.109630811748359
0.113517547431304
0.112861894122956
0.112179347390711
0.124503596500125
0.1140494110249
0.117239903135396
0.127986393516064
0.118925048111916
0.124330071042465
0.122667262819723
0.122729939537713
0.106604000855369
0.109539183042658
0.125746615674229
0.133121888059954
0.132788112891586
0.12570876095402
0.11363490162612
0.119209870209622
0.119771187919247
0.109333297940912
0.12292313661492
0.130411681386033
0.109522344316173
0.112102327784447
0.121403194512858
0.112802481051398
0.122401274730565
0.131090168098108
0.116212050577879
0.11729855669219
0.114656387192654
0.131499518121071
0.12262172426849
0.11823362663124
0.110518243980678
0.124581061754008
0.133740687502213
0.103525325412721
0.105497225481112
0.126148326439728
0.1181182479288
0.102920402734675
0.100118722377417
0.117249674548351
0.111815005438692
0.121699069740437
0.117736214422952
0.103713449790428
0.120199000333803
0.132115659923591
0.129344211329311
0.110759373476823
0.116841889614996
0.101328106686307
0.123639797550094
0.127609268871939
0.131224108911596
0.136055979414291
0.102173675165303
0.127008710642707
0.104235966848234
0.108497202798968
0.126737785399274
0.109781581163709
0.100973014148214
0.12237577115433
0.106129182007338
0.132424040504212
0.11893476678428
0.129674937842569
0.10366261802285
0.12518740094665
0.129541610046503
0.12883858389153
0.131150485762305
0.148270362098677
0.147907661582664
0.156495055459092
0.130126898957999
0.155128593735532
0.128175366051922
0.158775584183865
0.165889442279037
0.173085342592319
0.158367901737179
0.142367964244728
0.142273309059863
0.155948001552744
0.169760827064906
0.166867123521982
0.167109427854601
0.132886043136908
0.149756925166906
0.15218612437582
0.151174183221109
0.146410545785828
0.143533101817617
0.177817710412189
0.121450801632612
0.116939372080595
0.181612967235681
0.132179151452166
0.148930213416798
0.146851217507744
0.138165400109109
0.106778948872119
0.155181483501115
0.160458833261861
0.157517354575416
0.138167788549255
0.103681186364898
0.184671885800194
0.146883529484121
0.139408184210643
0.124585386630902
0.197441866704765
0.142611398074984
0.103332189209886
0.132286064171395
0.14443718880602
0.142205057186612
0.145305611294692
0.0798825995854949
0.203023995096443
0.120944855328082
0.126978958761516
0.000742342048347244
0.0589745357635901
0.196102406599395
0.149131396048522
0.172098426382746
0.204107284388692
0.171355473720118
0.0648406506846833
0.0827793885548389
0.215475508847819
0.117250153896761
0.144727369419823
0.0820926988924948
0.201634778314949
0.147194194275078
0.141394212219795
0.217658292852993
0.200822005282572
0.206292873111865
0.353202306996472
