3596
4000.36533379555
650.420452594757
1
2
2
0.0703060748063462
0.0797323856379696
0.0803649775382922
0.0782063765003801
0.0785837286679184
0.0649968607980936
0.074647447918189
0.0735144741770914
0.0689579075088555
0.0656476515173775
0.0809860405464935
0.0815138835810796
0.0675418163328127
0.0692313038678134
0.0771056513927233
0.0747703874214802
0.0685982836717908
0.0665313983051386
0.0682488389961313
0.067587074721868
0.0720108640611882
0.0675001298673053
0.0713203191495358
0.068034227287824
0.0822446029614538
0.0753374588808193
0.0712720518759415
0.0649760616336761
0.0709829472069719
0.072986251111401
0.0743334887217051
0.0757530817976072
0.0712234597953215
0.070193400316907
0.071393275707477
0.0663502690831585
0.070202721075485
0.0719898775793332
0.0731118105134052
0.0767036411615858
0.0857046821383075
0.0708380463057696
0.0705682263382373
0.0759396434067663
0.0785467603325817
0.0721924590489092
0.077113202938691
0.0761635787734755
0.0738362135575352
0.0711156452460203
0.0796381019869643
0.0753104239796949
0.0798344454468579
0.0763118121356169
0.0707854297775754
0.0809053197180641
0.0757091654274574
0.0672095131131197
0.0751315494613218
0.0653607277519982
0.0826957631028347
0.0824292481179539
0.0723153497350599
0.0729014228720892
0.0708887020377364
0.0733915312995877
0.0688112125890634
0.0672836047124595
0.0791173703178273
0.0747805931664252
0.0689816259944304
0.0816149643432979
0.084397754158123
0.067072607025267
0.0705690997909272
0.0751241968821647
0.0771486597606051
0.0685635842482556
0.0655060359589261
0.0802106428401768
0.0793084466277285
0.0653161936889615
0.0705574996652559
0.0646750166937747
0.0665021612804266
0.0817271236886512
0.0625806598836879
0.0583110287309575
0.0788703610294474
0.0798478098306675
0.0763533284213948
0.0593586072112103
0.0653913450737772
0.0706511668675387
0.0669417475235167
0.0630296285903425
0.0650719466950884
0.0693434190602094
0.0650129572296167
0.0725251490375993
0.0633943593705874
0.0693798300095011
0.104309234600638
0.0617066352134431
0.101376285928043
0.0773921852516593
0.0604638364572286
0.0940864751213512
0.0790509540651621
0.0746024526584151
0.0718050104979668
0.0599841251082296
0.0627548270528388
0.0759321150168355
0.0554840868133236
0.0768662659015556
0.0980757153859051
0.0673412449472459
0.0661891232551945
0.0693098409720246
0.0457487236608745
0.0782027805314093
0.102429024750727
0.0644978804654785
0.072147985361583
0.0657774980847211
0.0594935799700425
0.0903828183172334
0.0849273641165758
0.0654157814188951
0.0673500698636427
0.063824347556387
0.0542672715841387
0.0530855870800286
0.0926604871530647
0.0740629116358465
0.0628527569283381
0.0441006137972054
0.061381273167141
0.107323532785417
0.0805441034999267
0.0635458313334446
0.044847233056101
0.0558491199743946
0.108334611164871
0.0779453613020616
0.0549251140887557
0.0705770506430053
0.0685225315910076
0.0639080221725249
0.0592296410896962
0.0549958347340891
0.0843388892777793
0.0681829504309959
0.0192424749541379
0.0940571228124994
0.113029279751764
0.0758965418793444
0.106583573714499
0.0678329448739851
0.067572209322195
0.0602210182251262
0.0598926929878997
0.0661032681998113
0.0710159906545176
0.0571736420514772
0.0730814362139523
0.0815946522016762
0.0614964750750787
0.0628130453467721
0.080663733970394
0.0630870655786866
0.0521543382267555
0.127052181821338
0.0772473002324293
0.0489053436430954
0.094003110819575
0.080384659639636
0.0557230563158102
0.0658671100302424
0.0875544031995699
0.0640339650100807
0.060915153392891
0.0582815954639166
0.0600319938643504
0.0778253619046187
0.0712576268414083
0.0669273374522238
0.0644715578546438
0.0491370061585744
0.0691982886309367
0.114206532417771
0.0860615072277342
0.0734276155111227
0.0684818813142399
0.036520524551505
0.0904894245248521
0.104537465668369
0.0680571146867064
0.0573583454131675
0.059176136332569
0.0653190208780177
0.0548292136014996
0.0604369778240567
0.052282932985338
0.0444807320618594
0.0982047367204608
0.075460772209942
0.0595694771944865
0.0623198942628445
0.0557983999034603
0.0455112906784145
0.0963247600379208
0.0916900310858258
0.0684397349339606
0.0715222595680907
0.0595180700164093
0.0744858175714734
0.0814170296519228
0.0660470810850235
0.0606716888189258
0.0627470855839617
0.0621344651546584
0.0634856416855371
0.0627793138873234
0.0624756055787591
0.0680029039966186
0.0665940320492401
0.0619811419674523
0.0659470953344779
0.0772317737454969
0.0798100798593867
0.069191817637526
0.0654978005175521
0.0520975692889836
0.0690450856678837
0.0897106888495157
0.0703888020712081
0.0610991474699804
0.0671457165885339
0.0671511835139902
0.0675967566732867
0.0645033048761006
0.0672255950831326
0.0619015294821216
0.0641548359916746
0.0952000708903569
0.0810456139401469
0.0688040169577421
0.0602141704385628
0.0749170202277435
0.0830213208497132
0.0706007204931232
0.0658848467595463
0.0720200498591196
0.0636326437228126
0.0621687015574443
0.0942944332485126
0.0786070662831181
0.0627661782337382
0.0826247378568731
0.0744561747496853
0.06556413385938
0.051691706767702
0.0504139683462508
0.125243359936389
0.0692979106666425
0.0494272313768614
0.124500820638244
0.0874924920952561
0.0771771875972742
0.0585847053990537
0.0288269514121621
0.140800508464697
0.127954181701101
0.077893607784639
0.0746410844913348
0.0784269635076991
0.0682836057302732
0.0757915812594809
0.0663134517979481
0.0788179828779813
0.078479833408513
0.10010354468241
0.107215895772989
0.0611059140186871
0.0814570935406575
0.1000155651863
0.0754988581408841
0.0769174647035197
0.0694068199122508
0.0607905791168041
0.0834437728037367
0.0869669201783409
0.0880125928585598
0.0780576669858256
0.0714727871384491
0.0934241418504493
0.0884772086557558
0.0688942780343965
0.0768784733587942
0.0874962069651009
0.074993514160805
0.0735203400894021
0.0736012781884175
0.0794307376231719
0.0642141480144632
0.062774526905452
0.119710783098801
0.0868894699632197
0.0818824245961619
0.10719583373217
0.0864679288368519
0.0847110148182412
0.0818584556592776
0.0729955739445746
0.0742309499083619
0.0678022923186191
0.0722858440974416
0.101225417630298
0.0879872240080051
0.0783998400478698
0.0786933677224255
0.0817663455140714
0.0810732846790943
0.0794483662079239
0.0774163189417743
0.0798253039851367
0.0784623503554732
0.0672942532438267
0.100572073840648
0.10026039996908
0.0658258670642205
0.108281083368019
0.11050101827059
0.0888356965180309
0.0853145362117805
0.0849703044440227
0.0888384362139372
0.0954873625644939
0.091802305926429
0.0886093656055406
0.0941729629882958
0.113904137050022
0.103267990942974
0.0892842759782488
0.0850045805973762
0.145036242549759
0.158314009288602
0.12042006866431
0.0980097954068226
0.0879671603231733
0.12717260894685
0.127734734878325
0.124192005798365
0.134269125047511
0.108799714488189
0.108465636009752
0.11699782138598
0.113695942185498
0.117615734472606
0.1161591658401
0.116273740210987
0.120752899722755
0.116607856216593
0.126426286650071
0.119270023740733
0.124669153025228
0.15994667987711
0.143510076328144
0.131877396148599
0.134376182360472
0.124096706673577
0.149740315014129
0.162888521971443
0.179743261715418
0.155218048431063
0.160785346167455
0.176932329119787
0.162124728486193
0.145355289758384
0.153552687619326
0.148620818280265
0.161784214200345
0.164941538269255
0.165336521044537
0.157696159513859
0.16839799773717
0.175360335527747
0.178409362674932
0.163096544014637
0.17189301381356
0.189624610569111
0.193379377094527
0.182844514150784
0.173608057640447
0.177568725885104
0.233456037142174
0.233831614336996
0.202159061001415
0.20248850529325
0.204530285090046
0.200029936569105
0.213769404116466
0.214277574189919
0.206990494959355
0.215654609322064
0.238607724384108
0.238106698524541
0.24682733743352
0.235267307273708
0.228106063184635
0.237031659775179
0.246590824581958
0.252445248494574
0.269316716597403
0.247183808890518
0.240411936352567
0.265246340535876
0.266248726837095
0.262694982302555
0.271176077421037
0.25412332195865
0.257652851776417
0.267914248888312
0.269405185725495
0.275121314846243
0.283830559305434
0.28157050684443
0.281564350505304
0.281700198179592
0.301381229115624
0.284937264330221
0.324197021751051
0.311374523940103
0.316228815717801
0.321687661139862
0.316096097406209
0.311835364197098
0.315464995096336
0.343607464867933
0.345446570683291
0.345617251600902
0.362271597421761
0.332243338753272
0.34606917998071
0.346190488853049
0.345436530533271
0.354389002409948
0.362656621194418
0.378165909825955
0.379828923456521
0.358059672972599
0.386845411650795
0.374555687306874
0.374874491313413
0.382521167172616
0.392350737734738
0.384142708131397
0.408526825399682
0.401478302951556
0.402496231687018
0.425807458054233
0.449045196486622
0.436308694864353
0.446349503081055
0.44435138428918
0.447694496362818
0.433089109295801
0.448659323132836
0.44583773388177
0.471919831207192
0.468707049728713
0.472258653421854
0.471307988674845
0.498890332384355
0.470772272075569
0.467239174352225
0.48760011598263
0.514009272080549
0.503859460168414
0.512243437316456
0.497770386498925
0.507139538602835
0.501191779862889
0.536080901026892
0.541401227345827
0.528058825554984
0.515883638853488
0.538684787882492
0.536023539170232
0.563580455628409
0.542929299606738
0.570294522741158
0.560420771358381
0.570384732485732
0.560864599193443
0.616737526832361
0.587029611525897
0.578449289406716
0.56952416672587
0.581561962347832
0.585929117400942
0.614969159600117
0.587433175843657
0.619348630717753
0.614232757618077
0.649074916949699
0.614888132534506
0.627507015873693
0.630899680982743
0.667966528210874
0.661387814262282
0.652285550138204
0.64626679256622
0.661838053203593
0.653585548959236
0.687950247966934
0.67253850119021
0.664887616511947
0.675028624689802
0.715823935208187
0.70931179855325
0.745415024516816
0.718078484929805
0.742598668929393
0.695704666512271
0.691687286578453
0.700641603137342
0.727142466964092
0.701507017753113
0.743835814684224
0.720874130422301
0.78825921445297
0.75809132531147
0.784065101061402
0.750452713153267
0.822561134672955
0.776399080146247
0.81488153348957
0.787554587461307
0.807118993879257
0.779974733723366
0.817566386078566
0.806529668090994
0.843628294453351
0.839825006409731
0.876907652475804
0.794503708944254
0.824196670004674
0.850257454828864
0.835247993525902
0.817389574399244
0.90456995811635
0.838839946153393
0.886523356731725
0.86155865783465
0.9086888541894
0.901410631551848
0.92269265940464
0.844533072883932
0.90940959810658
0.913065532382319
0.904727847012175
0.87685927832244
0.918438790678127
0.900139337969832
0.903016480016938
0.882778544708949
0.928030007776372
0.893425795755513
0.926885088650416
0.950008827510668
0.989391711093703
0.95031341285085
0.97716771919334
0.98521696134122
1.04436841096992
0.977233277790675
1.01585676769255
0.983780152568555
1.03775635741739
1.00477569404464
0.992637610660136
0.964212832977639
1.03767415209914
1.01693457271933
1.04811424400551
1.01934072764423
1.10420155051651
1.03199133158235
1.06696923099711
0.98042071708561
1.06010894965376
1.00273288969579
1.00417918965436
1.01436795323543
1.0716712734419
1.06456105566656
1.133324284421
1.07904437076009
1.11401756098001
1.0130925600916
1.02194759828222
1.0405286108603
1.04617012405779
1.10685826405108
1.21599227655639
1.10098657281268
1.16312032633612
1.08410568222954
1.21415406599687
1.21441337112676
1.27402663193669
1.17664138483445
1.15918328518457
1.16086932004528
1.20099479287272
1.15640407808891
1.2182315773373
1.12104048208527
1.22748378734847
1.18494760806371
1.20054625748584
1.21769376519923
1.2329572804924
1.19656579853229
1.3021739208893
1.25760821220527
1.26760032111945
1.1750829812505
1.25125298689355
1.17144580582568
1.22014462911072
1.25006572378851
1.23513480433801
1.2253540671238
1.31267790750137
1.28025827300377
1.20913348695644
1.14001827712494
1.24706882722694
1.16436576785449
1.38400371811579
1.30405339668794
1.32391489942993
1.23440915586227
1.29724059581167
1.24453870437699
1.19342108186827
1.25591575130418
1.46037923478823
1.23551753178347
1.27689930771402
1.29833687619766
1.52088516554333
1.33495307580408
1.36814173464461
1.27960049541954
1.39331532103514
1.26079307330305
1.40344699600789
1.39500358836166
1.34585048145415
1.35319986112363
1.41517129062243
1.31472675180518
1.43566156624991
1.31709427337583
1.43229485890381
1.35102644119718
1.37309383560037
1.37693996956395
1.48316442724375
1.29729642970512
1.41216558699269
1.25672596460588
1.38619984429334
1.35432212431714
1.42775258278806
1.35424583320476
1.45825627251278
1.39652547009171
1.44069703126767
1.35104318102916
1.4122480065022
1.29688524408158
1.49757284758453
1.3870768129454
1.4974316776008
1.40845378079673
1.44481070244213
1.34225122914326
1.53071880772111
1.32597005270752
1.42519933358896
1.41829770180843
1.41602700973712
1.3420623578785
1.4666793864388
1.2982637593286
1.5400812962319
1.34827942297784
1.33597839324285
1.42327225095133
1.49998205750627
1.39755853425137
1.51870901636377
1.33838901781596
1.42164785455123
1.37873932301062
1.40934078744259
1.37546339925538
1.49442997098062
1.488382318597
1.52709990475255
1.38686022455881
1.49795940843727
1.40797106980408
1.43624023255664
1.37850214962099
1.57088277753862
1.46851686967794
1.46390188523534
1.33392638178115
1.42676446195307
1.3517957310033
1.46802041274447
1.44569920928577
1.46086531569988
1.40036636743785
1.42635366545022
1.34611741600354
1.47084124836065
1.46919057162681
1.39136501053244
1.44306082663914
1.47262221499777
1.40218118254512
1.5352753133951
1.35769161685403
1.51232925279884
1.65133846477587
1.55419084993361
1.40857516180674
1.42964974514969
1.48198420983578
1.61924136058242
1.39374815675163
1.45947809784596
1.42263238954188
1.50756234079406
1.45684519214561
1.57281910934804
1.3828977835068
1.4171793906933
1.48001806717004
1.478727990267
1.41448214978549
1.46054264392516
1.52350364787583
1.46258556760893
1.38161755725469
1.5164375832266
1.40248881632288
1.54676043522161
1.4287123092563
1.48372776807668
1.39010984023647
1.44989099872492
1.43360052736433
1.44258244907779
1.42021570782856
1.45799830803375
1.36313066648708
1.49591503567053
1.36586126921074
1.48979188238084
1.35715944261031
1.47384249934858
1.38896687265565
1.37167557250473
1.33870773328909
1.4087431007103
1.39347840612049
1.59405265767846
1.50693201974518
1.37478544947364
1.35236753362675
1.44779176373055
1.38457052525677
1.4831983225767
1.35996833248129
1.46949356110965
1.37512525134029
1.4640567151507
1.36661981653137
1.38428500998475
1.41512901630116
1.40755863041629
1.34800477299091
1.43733260621132
1.40312727805171
1.37660413001944
1.27466602419081
1.33121852447313
1.33491652454916
1.35313343701066
1.37184713138075
1.43922963193144
1.34881904543967
1.28373702956893
1.33536300826799
1.391764175637
1.38419106205058
1.37249434268954
1.3362546000785
1.54219372439793
1.4151078421601
1.35180015649696
1.23847956202141
1.40216220806305
1.35451464760344
1.39251247025993
1.37377055013103
1.4231000517147
1.27494441537353
1.33888288405317
1.29195814299593
1.3047476507853
1.335837080844
1.30035411663155
1.28187189805927
1.29855848055034
1.23641393811277
1.33070252721604
1.31502300515059
1.29096821987451
1.23776536999387
1.28041647786126
1.30375210653766
1.31515351268279
1.25784490237668
1.30177577355711
1.27221008451179
1.3591456312439
1.23325283052571
1.31528563133551
1.25150885260471
1.25181674571714
1.21998600148949
1.23401254336626
1.19976571349139
1.30754788867189
1.17429211900549
1.30491246978613
1.19487323361743
1.22290083109074
1.20804951243103
1.19863740979007
1.18238537164426
1.24469064658597
1.20583434535376
1.1772738265626
1.13816875061081
1.2073701647111
1.16799528004695
1.17595528910035
1.15580469928816
1.20139960272027
1.16767684191594
1.19290892840304
1.14465722270102
1.1928383418225
1.10147994583225
1.15712224263157
1.10657583605529
1.15656295808859
1.09850272492325
1.09830249041282
1.09748585546242
1.15647458119126
1.09986514996282
1.10929926953551
1.10071440885574
1.09963400038024
1.02524740573046
1.11231913001719
1.04538903129237
1.1126919220184
1.03346346965472
1.04362218990524
1.03239082861469
1.06731911162419
1.02932778834538
1.07865162332651
1.00476735046112
1.01669647017795
1.0389449745736
1.02501235424311
0.992750326587769
1.04004840862775
1.00265674688189
1.00981708387085
0.984623941007072
1.00203844350615
0.985064087779072
0.991569288105551
0.960231253072205
0.962980333728373
0.936440763482942
0.983632580629565
0.979684113470136
0.952878596397249
0.927159879682887
0.945671622370748
0.913534990460073
0.927031476537565
0.922863731699805
0.940537759309456
0.910636293116295
0.913142100564169
0.871263000584917
0.916381091613483
0.895408342735965
0.899689477632943
0.874271519483168
0.920033758408085
0.858697945484578
0.882911985993798
0.888577744573124
0.869651861852049
0.835631513420799
0.887288710906084
0.8456828414466
0.84286617569094
0.861768565846721
0.877452503587896
0.829593637978912
0.829927271329725
0.801083966347563
0.823836131789945
0.812915532535948
0.799210507152484
0.812173649659268
0.830548254463728
0.804265475427872
0.815765653039989
0.785794113700026
0.797257799596444
0.762282317250344
0.780096557282619
0.764818575782896
0.769684112250204
0.757354877393379
0.758527681391561
0.730728214157037
0.771280708493784
0.740427916578486
0.745862899419792
0.743340635876252
0.734981237622548
0.717613178904589
0.739533056743248
0.721688531990441
0.741666946827985
0.717153235863895
0.712071570096335
0.706633207985609
0.713934249068877
0.696932558479623
0.717741504925389
0.700067422746162
0.705859775129718
0.685406236291983
0.695241692296605
0.661567873481658
0.667249717566074
0.67348884487939
0.670093980730681
0.65726399637002
0.66192735976498
0.647602040223337
0.671450798270785
0.652062812592404
0.665655884161132
0.637798792107656
0.659448046294214
0.629546162409742
0.647565612457433
0.62831602986252
0.623380867400016
0.622658918116466
0.625273755569922
0.611989089318222
0.614222584533166
0.603239332347774
0.598322469708834
0.590451027278009
0.606085324758214
0.589929131732645
0.594877337742311
0.588427509772878
0.583463796182606
0.567961439240936
0.591484179676816
0.569153342034434
0.582837772772268
0.561135803068582
0.572693839881685
0.554854058481843
0.562624640785263
0.543035456931536
0.566364178181824
0.556958190468424
0.555646669090475
0.543847784033885
0.549535637163492
0.536562454379919
0.546537333192637
0.5270505143379
0.52688294555781
0.524079932180546
0.53316503087472
0.515143720244767
0.525501820615004
0.509529314993939
0.523672841395683
0.506752834248862
0.508709167181475
0.496470760215422
0.512595439554752
0.496975922378594
0.49687938604027
0.491963421794646
0.495920720183702
0.478613511897076
0.499701818105441
0.495810734297495
0.496381075917622
0.480109097008488
0.492891832199042
0.472005351730994
0.483001536737476
0.464761605497988
0.469111666341801
0.462327545096588
0.469272839948599
0.465980659250928
0.465860900890191
0.459858218705373
0.464403213875445
0.443920400674352
0.464948058184218
0.446038475915218
0.459252999707201
0.448099083269916
0.443337213167479
0.440875103699571
0.444367149202465
0.435819135826047
0.446174267282588
0.437521514971837
0.447693693449907
0.432074513947799
0.440357968612103
0.424144879486286
0.438918080060464
0.429926526786388
0.438253157702674
0.421279895140184
0.438862971178661
0.428430846051862
0.429164623393598
0.418585638347824
0.429714823585339
0.422245667250881
0.434116909618871
0.417101402554863
0.42105348468096
0.422554427232868
0.425066050543437
0.422214837322108
0.425364925399607
0.422309921099961
0.433431723457987
0.424757071403304
0.434391958092032
0.428135514696576
0.436615748848923
0.423006754504873
0.431845264918291
0.433900678542199
0.444427582854225
0.43224343966326
0.444277034708481
0.428016398258587
0.448630455987587
0.432096139005302
0.442849228022387
0.440558156093183
0.446908535147996
0.441377081725991
0.45249387444647
0.442004687852001
0.450698479976392
0.450656386421472
0.46053478542648
0.452898116055034
0.460718632676516
0.455619040867929
0.474841764564348
0.456141367941045
0.466169922299718
0.468497981640677
0.481356468864795
0.476418426531244
0.485920930455078
0.476116417994697
0.486771892263203
0.483422477064583
0.497866031645974
0.492928682811539
0.496428099652975
0.501078918670057
0.511344808729139
0.508783352217662
0.520599240321558
0.511216940786335
0.512894722181718
0.52367061909259
0.539955438708342
0.535111652119786
0.543586255770591
0.543600785857298
0.559846753149706
0.542755597837807
0.577467665298478
0.561124815181121
0.570370160473179
0.558284511593181
0.58405905186615
0.564410814628027
0.58030964749532
0.579223410488745
0.581539703157793
0.566297000275998
0.60129851876331
0.591863643257425
0.604350479721831
0.583302876033777
0.60726400116249
0.583961725314712
0.599121752270699
0.582093831650811
0.604126589064752
0.581542334273855
0.581053810981823
0.582722425704382
0.601453091653648
0.576721561057154
0.600854675108492
0.566951625313298
0.589560735123466
0.567515086002419
0.58545510507594
0.571472995235642
0.581943853234672
0.56059429603674
0.58349360206144
0.558105207387834
0.574128150138506
0.564281916238284
0.566038859884073
0.552746895387917
0.564781009416569
0.543011163853776
0.570983524954554
0.557870010038433
0.569974876658434
0.546333588885246
0.560610028937552
0.551191375848063
0.561217026269221
0.557262960221046
0.562225792904726
0.552393519694436
0.563031194036602
0.550218427112497
0.574357595533482
0.551178168502245
0.563225737086953
0.553135653099443
0.561533174409368
0.542170321149224
0.557331462954559
0.546262149770147
0.559526102936789
0.541742425201768
0.544920336679015
0.5400752396192
0.544106154053342
0.530581638421847
0.537991157037091
0.524748212214585
0.532175426122274
0.522312640501405
0.525750166518791
0.515987283181243
0.523594047262885
0.503650525675205
0.521934094293599
0.503285215948554
0.515729797671293
0.491114869283732
0.507651176567714
0.481101148384964
0.501914924471531
0.481145884353739
0.496145037135311
0.477489529086849
0.488884094218597
0.463289879162263
0.473888349104975
0.463450907256606
0.470357293369935
0.457853789619219
0.462126763933548
0.445697778674354
0.456051272487975
0.445719201976806
0.450863211503752
0.439215677507489
0.44188064894708
0.431759779516104
0.440362333138863
0.428944380232634
0.434260336141711
0.427474239816088
0.438830644070165
0.420824825827172
0.424163554557646
0.411741736849196
0.426201554547208
0.418585846165244
0.414054291362546
0.406417472709849
0.411621236334468
0.402719163863005
0.405045681988025
0.396534503809848
0.408169705640939
0.398900672525936
0.399735718957014
0.389435430470134
0.399923617369467
0.390550798019215
0.388322687049125
0.386384868303308
0.39221277654141
0.383202489605502
0.389876485032755
0.380791501121867
0.384789489792104
0.373688471388177
0.379402116687767
0.371661766925501
0.381588210284094
0.363070125698671
0.375312347886585
0.36293191281253
0.377029406783096
0.365722620791638
0.370618687238065
0.360957580237736
0.364295928217521
0.349279887292024
0.366024626782815
0.353562082557207
0.360065620552903
0.348128786021331
0.353564213990792
0.346877214619241
0.352403086168488
0.343508058411189
0.344567758023643
0.343792843754702
0.349946615218463
0.33612319668653
0.348031184113987
0.335307300090161
0.342825141957898
0.334725604012666
0.345055386385706
0.33422828248145
0.342452174676602
0.336153081337748
0.346446137063844
0.335183522437242
0.338686493628525
0.329610271606654
0.334305060693118
0.323545170346397
0.33371135444748
0.328176911242367
0.326382964706251
0.323769839935175
0.332770332265639
0.317501862893058
0.326222387423521
0.32328019062069
0.328860830937779
0.324004542358743
0.324230606171754
0.316243750370231
0.326387593401721
0.317942195397953
0.318492188150507
0.320379489563469
0.3225841394159
0.307608990771216
0.31900962376366
0.314698950159219
0.322341752128558
0.308030129486476
0.319738633073596
0.310010366744313
0.315755013646848
0.307811071932679
0.319064596242479
0.305741743048008
0.318575480944834
0.308205626225006
0.315526741930244
0.3032036753627
0.313133334948469
0.301051116202383
0.306923235836201
0.307941016500025
0.313211895419333
0.298914883375958
0.305886587419786
0.300561049702601
0.3054052023363
0.295506890173508
0.305952556627607
0.30242678987758
0.307725175382339
0.296732688674576
0.301392961799462
0.295660872893742
0.301696648053017
0.296695072126073
0.297820711212145
0.292564939041953
0.300888243515578
0.29609554077385
0.299783253308855
0.292479989667339
0.292718618380696
0.288528078513554
0.299942392801175
0.286642986695795
0.301594805052047
0.28885048231704
0.298258951151542
0.288555791146333
0.29396537938474
0.294793983412341
0.293336192532521
0.289000742760766
0.294981000930875
0.286242737744398
0.29368779910396
0.288558721580991
0.288550997412744
0.283976696056478
0.287496018278001
0.282678272390251
0.292511854243302
0.284471926466052
0.290339624955537
0.281142147111929
0.291158604619948
0.28199171089577
0.286120787817271
0.280098683714837
0.289407232574336
0.285719421931689
0.289538671354019
0.281580099572738
0.284870048801439
0.275723111509597
0.282396697747409
0.276557481448623
0.280221303629573
0.27614708478013
0.278340842911923
0.272547053891734
0.281425420688687
0.269830485435645
0.274531052019144
0.274688123275034
0.275691207381806
0.270308944884317
0.278413956600797
0.266776785552708
0.275551970016523
0.26929059562019
0.272435032042078
0.264299565916232
0.276040166464368
0.267511329061441
0.269803987419451
0.268193164979089
0.267170574169284
0.260471523252209
0.267675865269576
0.256854856932968
0.263732596081234
0.260880965955881
0.263557588090057
0.252367903616811
0.263986902733955
0.254618751881522
0.266166402974097
0.256913575464956
0.265652441676674
0.256802934939786
0.261139294434428
0.250898604337987
0.259239104513746
0.254875681310722
0.261884939050823
0.250682880778124
0.258858860433484
0.250583482266134
0.254923055699032
0.248006284333314
0.260723198354811
0.248212845464621
0.253465125437153
0.250570499996696
0.249213674510107
0.247162512198606
0.250073830133484
0.246034317354633
0.248992392762619
0.239448623043812
0.24757834662343
0.239923586864908
0.245434957109875
0.234977629479549
0.240721729244491
0.23290837642817
0.24278194369341
0.23574554894397
0.245352964188386
0.232611010897267
0.235693161257798
0.231506028612934
0.230790722662757
0.227995933107481
0.235466741942498
0.228873813835303
0.235135204825176
0.22737038809134
0.233367130119937
0.22583290886468
0.228138978800906
0.223647247501096
0.231546989088089
0.222768475588682
0.226875453484393
0.220059248289969
0.230603923840728
0.22264267337431
0.221441424479779
0.21805449288422
0.220998733053743
0.216561534021925
0.220728417067866
0.214815779781249
0.217990773891372
0.215051284879366
0.220037640594459
0.214307854457776
0.222189442261602
0.214721187898098
0.222210333909912
0.213318226122463
0.217310663895944
0.211849704592659
0.216492309244648
0.213395477659689
0.216354814320817
0.208539910889658
0.214250889590637
0.211386604942352
0.212608774355883
0.20739117852322
0.209277967522683
0.206503352143537
0.21177868079822
0.205313289772561
0.208106670563519
0.20734049401793
0.21286520171505
0.200346862706996
0.211485901613572
0.204258635501471
0.209169080779206
0.201659981633226
0.206780479389099
0.200799309582027
0.208411456509625
0.197774554183183
0.207150369216022
0.199222899600754
0.20253108072494
0.197175510571654
0.202492126703846
0.202652918541073
0.206984316827529
0.19367740860695
0.202237142359369
0.200473282365543
0.199438440400468
0.19183020667586
0.199208918372885
0.192669201771533
0.201613347198012
0.195500094222755
0.199567901956879
0.193772305278571
0.197569965664841
0.192691190000613
0.19653393986733
0.187136022786329
0.194472000412002
0.192694639112714
0.194844893054519
0.191739217519073
0.196478160962733
0.187980782481263
0.196863349014607
0.189439357130609
0.194420638592855
0.190713730148177
0.193925098227943
0.190948277959953
0.190601763137823
0.192399132217752
0.194777614875509
0.187760881040088
0.194517480237459
0.189609945413701
0.195817628888371
0.183421339989126
0.191906510389649
0.188824013616195
0.194211739508007
0.184130978016636
0.190405033547371
0.188684882451033
0.186744208777353
0.182242501685497
0.18894155298322
0.18107271741755
0.185870471972582
0.182388005349705
0.184640315357286
0.178663262118756
0.186078957665664
0.178406763705376
0.189207226959139
0.183322878144314
0.186216894230525
0.179251779607519
0.182933020416376
0.177178462097602
0.178362880557371
0.174737666376317
0.182265393141738
0.177102132103463
0.179051373478851
0.172860744536306
0.182048212135436
0.177904463459596
0.180522474841658
0.172485359149517
0.179037808878992
0.17191439857534
0.179036513305942
0.172936787374338
0.176322566131444
0.172070903828828
0.176486881612381
0.170021725723167
0.175401580767601
0.169777135836131
0.176408574438909
0.173321229887889
0.174095719038948
0.169808981270658
0.176999250361517
0.172571013893732
0.176262125845539
0.169983034461609
0.174801039935138
0.174802450639027
0.171441937110172
0.170833978056546
0.172394437050697
0.167179033187086
0.172366392092433
0.167842753701233
0.172983550438605
0.164195490562403
0.171347425459615
0.16743501554737
0.170889878100823
0.16692242510294
0.172116147475571
0.167141071689346
0.171251390701507
0.167478536155791
0.167547061904421
0.166046731870109
0.167352033092081
0.163144860741358
0.169081125387348
0.163189483697245
0.1628056365507
0.160763442934687
0.165463618131555
0.158555206160592
0.165482920859129
0.158211618754323
0.163354639074885
0.157009833480552
0.163587221999302
0.154514400450212
0.160291689462171
0.157730653957667
0.162104400065091
0.151914063345483
0.160245995429035
0.152704322412991
0.159747021425444
0.15230717049745
0.159764867505952
0.150586616240869
0.155808090858247
0.152769875010212
0.158281865573439
0.149713035859705
0.155213258358566
0.149308065847171
0.156080986386476
0.149084587791731
0.154583140055041
0.147714301227363
0.149808125327568
0.147354842423484
0.151851625869947
0.147800662811715
0.151325630464337
0.14237361285658
0.150368086475743
0.143647410657162
0.149001676512085
0.142552963277797
0.147878285570833
0.146243876299504
0.148023758200022
0.141451209653249
0.148118289477041
0.145402685462721
0.142844900908748
0.141430863807625
0.14487355880914
0.141030638760731
0.142086054616382
0.137444986040874
0.141617447581048
0.13659670442377
0.143070514436476
0.137324080205682
0.142032428070524
0.137650721745982
0.141244333243173
0.135270792653899
0.139560795677769
0.138114593336641
0.140839080806223
0.133469853609437
0.135448311137451
0.132658747578464
0.136325029176102
0.130640463968085
0.135534541268156
0.132815879370232
0.13229401850182
0.13056243846742
0.135745720089861
0.12926370413755
0.132937398251879
0.127847363800947
0.135528614630424
0.124997119897635
0.130365638191068
0.126575088052136
0.131003211178577
0.12443526346201
0.128415045993817
0.127302315827714
0.128586072433459
0.121952453039939
0.128072882779568
0.120819423946077
0.128180553052954
0.122420878295825
0.127985520513915
0.121580620348631
0.128261049250162
0.123876293204116
0.128819480957989
0.123250061456913
0.126178504802992
0.121566357227015
0.12774646906163
0.122485275912241
0.126615359025952
0.12441325058852
0.127412022117026
0.123174972943661
0.127883107770337
0.119349497586131
0.123129783165592
0.124397622388144
0.129463326224476
0.122137399094064
0.12773872021431
0.122145348576101
0.130059669494274
0.124105796401429
0.129790100779428
0.121164112597935
0.125553396102172
0.112227076608665
0.113947134058108
0.110434661811831
0.128070386036978
0.117429332816015
0.115556980417615
0.106486254934085
0.124029254131324
0.110692061090632
0.120933270101261
0.116730320650362
0.125060352086981
0.1131939532719
0.121675248562206
0.103361494502475
0.119286274339255
0.110931288537688
0.12364374165842
0.112226443503979
0.118383429996763
0.117691549261412
0.121104678397979
0.106757783205864
0.11864710047787
0.10523817941091
0.116626721967163
0.103725763487843
0.119406014414037
0.10314683587604
0.119571131369152
0.097622268947087
0.125401588125669
0.10205527486455
0.122135722435353
0.105574007495308
0.129581063999543
0.100146520821082
0.123578149190208
0.0947345428168065
0.119934533613582
0.0968178785550303
0.134724307063168
0.0997650026429648
0.132386028072297
0.0908781752691672
0.128382916450596
0.0992011361726937
0.138139105176467
0.0919716127482954
0.125930116844333
0.0991267499956248
0.139000781619819
0.0993372811436193
0.120694913567827
0.10898860845565
0.120197995428501
0.109981982699058
0.114861552293227
0.122631772504154
0.104882680737956
0.119154711081352
0.105574932864928
0.119156612713263
0.107884251961251
0.118915715868465
0.108438821829188
0.11505237475179
0.111853485777536
0.107721985857238
0.116292356798553
0.10970809564688
0.115347548013209
0.109035595520199
0.111979298240208
0.10936552986874
0.110753380830876
0.110378633081172
0.10807285705199
0.108446282627568
0.109944893892596
0.1067530321969
0.111279964884982
0.105863395853469
0.111241242046391
0.105353319347781
0.108723831018369
0.106414909027987
0.108815470450842
0.110350800897919
0.109460738966554
0.110029145852076
0.109839280636957
0.107388293102038
0.110165305453039
0.107578181711865
0.109379279809849
0.106640567210634
0.109913075675188
0.110350969817684
0.108276381822906
0.107394476192392
0.108550362002182
0.107549826633639
0.109798565513092
0.108247498612154
0.11204100390851
0.109338956724849
0.111494501168183
0.108683222763885
0.113977797106218
0.108779771609128
0.109557371333085
0.108821500067605
0.113411254700372
0.11146035049403
0.109906072784385
0.110000039023754
0.11104869271264
0.108745740387079
0.109841006906357
0.108595782199801
0.109335186199374
0.108357755574477
0.109383181623124
0.111302062942602
0.112839471232282
0.109180187100604
0.111384164041704
0.109360407172703
0.112691076452282
0.110807559126146
0.111577468660349
0.112313925064424
0.10984395036974
0.109793007896785
0.112070858960337
0.107969900459826
0.10971715910339
0.110649227183938
0.114187355975513
0.110320541016494
0.114477505930828
0.109705985146802
0.111209686567035
0.109204760781504
0.113817338117804
0.110629179263319
0.113918325627656
0.110213381893426
0.114313620491668
0.111493235217838
0.11281036039611
0.110135375615185
0.115557006597737
0.108054856426763
0.113807484271854
0.11018716561579
0.114676204976158
0.109893041279212
0.113459062308889
0.111196843944708
0.113862178470218
0.114601841804441
0.113495758825364
0.113011880760789
0.114931262608784
0.111619295264381
0.116053060407534
0.112674384446856
0.116425960036561
0.11420632564243
0.1152035576986
0.113035355634141
0.117291008410872
0.116392961019695
0.117585446316028
0.117193389193869
0.116875348648426
0.113514431399726
0.118184102274642
0.115029032915262
0.118284687050706
0.114334175999148
0.116609691289357
0.114905878117547
0.118615730304269
0.114218624747025
0.116020636585601
0.116587831919091
0.115971344916882
0.116218297715287
0.116344628404406
0.1147108366105
0.11812223109641
0.116743494178016
0.120302633439999
0.116866488413106
0.118661073495829
0.114162886130882
0.118457645873735
0.120055142505187
0.120922710847189
0.113724890840495
0.120445688946541
0.118260132309041
0.122230435062652
0.117133986022011
0.120366071345452
0.118746284555954
0.120568149580963
0.117692555722834
0.119855067919454
0.119560020260904
0.122243306556489
0.120233367379493
0.12259988014586
0.121887027320092
0.123118253555068
0.119748943042926
0.124041362367721
0.11974952162082
0.12370331115368
0.122886612356844
0.12507791781338
0.122425884333069
0.127401480117847
0.122207207774528
0.125028897408545
0.121181702459833
0.125130794166421
0.120999288282054
0.125479387774642
0.121725545574853
0.126621760747208
0.122984007289669
0.124458676203673
0.121841652769617
0.126513488598455
0.123246143560177
0.125344636077744
0.122810742414408
0.126802431958585
0.122878390889399
0.125731659549186
0.12476562617026
0.124383793921024
0.121094242534058
0.126018471369375
0.12059414221853
0.12351023909911
0.120859645997191
0.123702964878175
0.120319025901687
0.122806742512114
0.119767362391163
0.12465143934594
0.120632820508414
0.1220794749326
0.118142524658655
0.121665176895016
0.11685590840299
0.122055011396146
0.116248597306563
0.118693061802872
0.118521649072558
0.120910195056096
0.118856937737375
0.122029214870723
0.118699056105023
0.121917782961238
0.118257195625159
0.118766653987645
0.116407052497617
0.120240623014218
0.116921941813746
0.120804148163623
0.118107895928524
0.120683820232586
0.118650204675197
0.119809486632009
0.117792240127283
0.119631119288633
0.116428587129214
0.119819722257176
0.117051781313897
0.11980587546923
0.114091339348311
0.11785397895903
0.118637639706249
0.118819815032474
0.114980774317161
0.120060003051629
0.116446053758977
0.119678051809741
0.11626253097443
0.119693817537111
0.11465944393408
0.11808374670911
0.114895718335188
0.120273038104305
0.117654074438736
0.119235326952067
0.115966146778587
0.119500456517524
0.116646158639906
0.117342949765372
0.11468481782036
0.117678229727456
0.112501426189698
0.118420261294323
0.11257518282597
0.114119509404443
0.114669015963094
0.118200088282626
0.113732929612825
0.115472863871648
0.116266319148905
0.117057568384559
0.112946455292702
0.114256231336389
0.11232634837831
0.115548696839632
0.112940334956133
0.114763119739511
0.111194357232814
0.115622855112522
0.112592205070539
0.115493269795555
0.11286860889568
0.114662373156995
0.110273417166801
0.112684297212038
0.112845959956622
0.114751074778218
0.109000194311635
0.112434720943322
0.11204737601587
0.113972742610823
0.112710782130296
0.115091541267638
0.112168410036166
0.113525547625679
0.111085679810885
0.111937980236228
0.110513538360838
0.112834367435748
0.110193891730005
0.113221941922356
0.109105420967506
0.112279209758842
0.108162138348829
0.109899932952735
0.108441923268532
0.111513191792783
0.109243945075333
0.111497929510285
0.108113988062955
0.110035599423295
0.107927423503915
0.109802684754125
0.106903814094737
0.11093310139495
0.106964633721034
0.107340490533862
0.103972435451126
0.108759717531954
0.10659753190446
0.106235101932573
0.102183568691471
0.104903839635409
0.100614117502935
0.103946898802793
0.101192068614074
0.102106123775622
0.100930239844337
0.102859992804846
0.101257297172849
0.103397687232986
0.101666517983276
0.102818465066302
0.0971453268318449
0.101604967213713
0.0975750835130067
0.0982591838938709
0.0961455012874226
0.100816166338536
0.0971904020690537
0.0974186490777059
0.0959169251245662
0.0968910756387564
0.0946407517875265
0.0957344020306745
0.091540693079252
0.0953406245793204
0.0935290100656561
0.0945794537772648
0.092596707823859
0.0962965978102621
0.0915076374775498
0.0921829198992021
0.0916762038228087
0.095481948116574
0.0914218428738773
0.0932410150113396
0.0899047105075568
0.0999724817219425
0.093759998022925
0.0957787852122677
0.0919442477835329
0.0953733938589102
0.0890999949992745
0.0935430391399616
0.090805163960288
0.0945648779486705
0.0901194198173118
0.0924608973571733
0.0900406348750526
0.0938863421680037
0.0885283626959699
0.0909595739336964
0.0898423805008857
0.0921759043114223
0.0859815107204421
0.090755098949662
0.0897232956147013
0.0885618140434257
0.0876728797069001
0.0906793311118533
0.0867785312598547
0.0881267286549263
0.0891232306306135
0.0957161312128748
0.090084644760701
0.0900739849537523
0.0881186172252818
0.0913125002973837
0.0869078640575711
0.0891914556487188
0.0871912174560764
0.0892150635069748
0.0860388615324379
0.0880294852917929
0.0845519357544228
0.0870223412679522
0.0842989191669947
0.0882762356600487
0.0836154685205413
0.086571563623719
0.0833364598939881
0.0856340755393373
0.0851193555499333
0.0881763348260524
0.0840682370059722
0.0866853952161603
0.0831962155637559
0.0891358192143687
0.085181915953166
0.0869814245393622
0.0984688597644085
0.0875111764594374
0.0833045562539519
0.0859769903485214
0.0813570724979359
0.084273849198216
0.0832010075869805
0.0861038536647205
0.083333306848796
0.0852004548032481
0.0826577869872927
0.085756310137496
0.0834874470619281
0.0852632444464488
0.0825300746067354
0.083977306381578
0.0821587229767035
0.0857527789693986
0.0842430844969531
0.082232834427851
0.0831178331433031
0.0910163147922577
0.0847509515557874
0.0848316314974843
0.081422071460578
0.0802678158299343
0.0910196707736139
0.0940839173394601
0.0772871835035391
0.0828147557047664
0.0803023224508972
0.0845768002571783
0.0801642855344559
0.082846918149495
0.0780759137581194
0.0862699407769056
0.0799666148863777
0.0854192310259916
0.080770148445927
0.0809725397460862
0.0809782195114232
0.0792632600575419
0.0783514149074293
0.0814137353500982
0.0775822434596404
0.0817628845817792
0.0771799928178024
0.0786384814063699
0.0779108256815211
0.0791049764301937
0.0770188872878901
0.0854495285031889
0.0780501031460865
0.0799134766419318
0.0783262935915941
0.079868162304561
0.0815224749164534
0.0931562905124265
0.0775528653732852
0.0795911414676562
0.078668537438398
0.0816070942045038
0.0786721188147313
0.081191055527738
0.0750209123558896
0.0782916368286474
0.0778841127973414
0.0790708559093486
0.0770401814464978
0.0781662989362164
0.0764404736487439
0.0789773552491572
0.0776605213388991
0.0768698573304492
0.0774233632174177
0.078888549234395
0.0754480388762626
0.079431627607899
0.0847700910215732
0.0975135757023719
0.0803710692979421
0.0901029314515142
0.080506472650853
0.0811740054115279
0.0762365700092981
0.0797494795308157
0.0761982066969323
0.0796933258078857
0.0742531385709395
0.0766869136100818
0.0739087025318148
0.0783090690570438
0.0753449516969058
0.0779048206294226
0.0726652966637212
0.0762012489991091
0.0764195910649663
0.0779743941074513
0.0747420298770736
0.0794479613430184
0.0756236435814805
0.0817985021476868
0.0821207639983684
0.0803229493913483
0.0707591898585841
0.0872899942831441
0.0997460592066053
0.0785638611736899
0.0833918297968533
0.0782855168075497
0.0732879365288739
0.0753401768483808
0.0759032725654855
0.0816189453246686
0.0757864852506587
0.0732660857345914
0.0750025772531198
0.0799172385611927
0.0783717758424249
0.0702793346655508
0.0772364582339209
0.103226190884061
0.0847471541350827
0.0798639146310211
0.0750121750635068
0.0780252202126187
0.0950070705630044
0.0842043448753241
0.075610962962698
0.0823360441549469
0.0755189692894201
0.0807962740582828
0.076650170633792
0.0786469726427702
0.0797739353385658
0.0822855819561075
0.0758372759459914
0.0808386682524588
0.0778736514115482
0.0804925697547498
0.0789951156744774
0.0834616114201844
0.0838839120573349
0.0817687242339447
0.0793844946861903
0.0831137245269489
0.0805356877879787
0.0852338663946183
0.079231562064671
0.0810255155314971
0.0840039834499114
0.0920445045488789
0.0804707662666722
0.0888054225171978
0.0885574593740125
0.0815275747294814
0.0809321396838643
0.0898458330879991
0.0844069304609219
0.0811588794227335
0.0759206723173406
0.110417664244269
0.0918790569665566
0.0946033362221657
0.0853114813016694
0.0843702044730764
0.0836381035666673
0.0814451422153261
0.0795426257282681
0.0875125063600371
0.0913232574787629
0.0816628429503483
0.0844778782013791
0.0844706049390752
0.0959606559709924
0.0873163271243298
0.0868606686290066
0.0860924120643086
0.0846709047737581
0.0906560979783324
0.0917721694398862
0.078225445793353
0.1046543689784
0.114082488982683
0.0975663324298887
0.0942935508259103
0.084973149848044
0.114965648550444
0.0962887822428625
0.0893366382258519
0.0934943060438194
0.0939297798431861
0.0893099327686544
0.0844049441423314
0.112769397914182
0.108553407518717
0.0883371334744104
0.0974720842838259
0.0901928882619551
0.106936197213376
0.110194719356743
0.0929560927898408
0.0955131568117751
0.0982099670355106
0.0925062695396956
0.109124408684631
0.123160920626611
0.0970145303768392
0.119577461694587
0.111485872783825
0.111842808600436
0.108944597837588
0.101953115796705
0.106066777209431
0.11747849157098
0.107898174222546
0.0970718743730323
0.113364755365809
0.125474415456214
0.107886478727422
0.10896510324189
0.11104315533226
0.0968446375988487
0.128203228483626
0.159987735094418
0.135085064004387
0.116561727238634
0.114650941951681
0.12850261472572
0.123680137332057
0.114641719076668
0.119211667389649
0.117017485179567
0.121036754351747
0.119478909574951
0.1303965515471
0.12532568042291
0.120773933140499
0.124174160126877
0.122797582392293
0.135997679839978
0.173986151431381
0.160212487844788
0.14580482736514
0.152690889831418
0.161582073527946
0.143455696767765
0.144449147289776
0.136842901021435
0.151608540578289
0.145493978997619
0.148119176806193
0.148287188583897
0.16232720080579
0.164379736333911
0.158177481426755
0.172404717268692
0.164419930063106
0.151153586348633
0.162447913427125
0.258452805871984
0.216473690051715
0.170448312083073
0.189662633734444
0.165120681124323
0.253339682474716
0.199127955403413
0.189923112204968
0.195925485851537
0.199404218121246
0.202865410419223
0.217382178304239
0.216487131388847
0.2324420213434
0.224674738928226
0.221377692864176
0.223161349219719
0.305493193423421
0.2840058545663
0.268082098816237
0.250813966084165
0.272022656138484
0.274608495118916
0.272525293458123
0.272379197819651
0.280022336695414
0.274035094995727
0.332434391880267
0.304506025815731
0.301490330449146
0.31185928223856
0.322505061822223
0.321450300297201
0.341662655338363
0.373613451910603
0.330003498321971
0.34674701021399
0.344497435726444
0.351809955264238
0.347900558226103
0.385275914978299
0.389500964957357
0.366891398012719
0.383947528070047
0.38025675865678
0.38663848575882
0.389269917170974
0.395862522944674
0.3967667680236
0.416372698308572
0.431658782394138
0.513065323694535
0.453052686469504
0.405556632199643
0.41735019087241
0.404908855065358
0.445088823243328
0.441991635756095
0.430002340430873
0.459009547987896
0.421027380305147
0.426680335509455
0.424668509558126
0.429724808670581
0.424308420425054
0.424471830148651
0.429766551470586
0.433434135922186
0.430131977365583
0.426470998777959
0.518293453279085
0.425912691891016
0.405485708367098
0.417349364255525
0.412626302694035
0.405908315350818
0.404809004010047
0.407356864510431
0.417432109937566
0.406443614045497
0.391962161615962
0.391014218872653
0.390856541565695
0.421804306874685
0.385566613446307
0.385432604654456
0.38337362399479
0.369899789756685
0.365884314404583
0.363481008056809
0.417828015525299
0.375760507799341
0.349090334531059
0.360034623393692
0.34591985987116
0.345263440244151
0.332011999668558
0.344832023457619
0.336651191286913
0.333242090842939
0.332230213006668
0.334609435736828
0.323408424155139
0.327104059594829
0.318839879871794
0.3251968237012
0.315856685783526
0.319731666871039
0.309781211519523
0.313881349750598
0.305401616527465
0.309515398289033
0.304595936240365
0.308420445477646
0.306072880023123
0.303497087547537
0.301236997153639
0.30031589756679
0.297730641806385
0.30808335628547
0.296987051650955
0.299079436278895
0.29357685816967
0.29988048750372
0.288891457641265
0.292996637940587
0.289878980620614
0.297134760704614
0.288073772613594
0.289704023319232
0.286267747766246
0.285388168179169
0.287261699660371
0.310284931510683
0.324401499180234
0.283375968201724
0.283568053436147
0.280421760750382
0.273480491060514
0.277348578026073
0.293680017160687
0.305644018431566
0.27212761179664
0.272392009908014
0.262301212595739
0.274262211377567
0.275549321710303
0.272182640274658
0.255583827560018
0.261897038880342
0.253871723000512
0.358021231496331
0.283532943944073
0.344088030118773
0.269948017358135
0.251496008015629
0.25385264643256
0.287571143768784
0.261755032356264
0.242254178409992
0.253755234905293
0.262873668625212
0.266613944519286
0.242992068658256
0.244275384413288
0.238977853022414
0.241437356445037
0.26537192344633
0.248037109120728
0.243991211289591
0.281519898371182
0.251773203522104
0.250213193279914
0.29640739525546
0.26472862277741
0.236195065129557
0.233395414852025
0.236836109615329
0.239970825367618
0.264378994547964
0.24946185976505
0.238199727933488
0.231954071231737
0.217048840082899
0.228331378596443
0.242215005721754
0.230343670422599
0.231678679056972
0.239507132185928
0.231630809893492
0.208281004706116
0.24647240428772
0.236293176371282
0.271133066786844
0.221037489042769
0.21749609525756
0.225644479726224
0.255794905794982
0.228681552943388
0.226339980281045
0.216782097929894
0.215947584034953
0.231824373573803
0.221118939457528
0.208840352045652
0.231823180307792
0.223612775251142
0.241782182181907
0.264123394568164
0.253143860075318
0.226644218432803
0.211706736932123
0.211114303866531
0.224091089122349
0.210383358314179
0.220614139361824
0.216263160429727
0.238667885324366
0.214544479579087
0.258909726500632
0.241118960144586
0.220494733971118
0.228503595181711
0.228260102685876
0.234105396039921
0.264849182629106
0.265459977796098
0.259198272280289
0.240477179678937
0.262341506607323
0.253462206325261
0.254602983667475
0.26002890943596
0.261811971131839
0.265497559549873
0.275102236521775
0.28120493361926
0.285963562423622
0.289058809667491
0.295772287035594
0.312029594616356
0.32906786390855
0.310692802392249
0.313174228918513
0.365315871595179
0.356344585504795
0.369611349391268
0.346770545841881
0.359018471192546
0.358498240261472
0.368946890148946
0.37544442224903
0.374397177326649
0.411341674249116
0.403348362746263
0.395047175488678
0.412849441176826
0.398153774200234
0.423925143872078
0.424813677593686
0.45313884697027
0.446829087400972
0.492224402180742
0.440339502759858
0.441413510000329
0.440272160536328
0.442936137035424
0.453148480153634
0.435319624305493
0.439466671184959
0.448095029552088
0.459607253162735
0.454624984243307
0.44404508191068
0.453360141402218
0.45129864325604
0.453738397328794
0.460275307092277
0.459878853440955
0.45864864055438
0.463530831720612
0.464696693669267
0.463012815813997
0.501937722613661
0.509166037185416
0.468490062959759
0.489264343943709
0.48712001255489
0.489611932391204
0.47978496448182
0.498942865701369
0.506745868985717
0.50082199925091
0.50857541306928
0.512046990003591
0.504257096646215
0.524146595764143
0.525624942882819
0.528653448997379
0.506384417788987
0.521535762696318
0.507575930098368
0.577947685689544
0.539176254391221
0.543181001836247
0.542120105077731
0.53344825871261
0.532611414311319
0.532049598220829
0.545925011460047
0.541455722510398
0.543038242745282
0.537936639073263
0.543729331317824
0.532028664086428
0.528084080633338
0.536812789391284
0.54892270726229
0.538558316213375
0.523004712004183
0.530009364531828
0.522778613740085
0.529189994636304
0.535716975731552
0.539035492055582
0.520736543416279
0.523677807492285
0.520351291856193
0.532626980498705
0.526954185613426
0.511805132405435
0.510271515400884
0.51931799830704
0.517334633938864
0.515491362738894
0.517747871291338
0.547946309750716
0.542745914171195
0.525864614793061
0.531294030344674
0.530119011312847
0.541049210332349
0.543443017636162
0.551169033313176
0.54866880683338
0.556977607879017
0.563984261479011
0.562266698012419
0.559757903069181
0.578780506114293
0.583282896035315
0.581057710832054
0.575039163647799
0.577269387093375
0.581614479573386
0.577047136232328
0.587134891353413
0.583252658399216
0.574028553429451
0.579608869799905
0.573084932515489
0.578169348009663
0.586833811783694
0.581176613548069
0.566190219054058
0.582092379020031
0.561368988737681
0.569991805773991
0.564448284348612
0.565616526411324
0.553615138668051
0.555764847651634
0.554508604391613
0.552722442535943
0.544556701470101
0.547880988431364
0.547259195489731
0.548869676563307
0.545851651066882
0.541548219456901
0.537956630103675
0.538861927404126
0.536036165096349
0.542416466499003
0.535985278026662
0.538242901063745
0.543193095497024
0.555261174890125
0.54657475261166
0.545345040116933
0.53684588460992
0.545267483398729
0.536909802684882
0.535027879239681
0.532870381997125
0.5329298916812
0.531795353627391
0.52345061868306
0.524188677717511
0.529903719599613
0.526943304714955
0.523205092816749
0.522451416364147
0.515712806054135
0.512733807699939
0.50739285095743
0.507013311754566
0.506562928274488
0.507530240009236
0.504199048306174
0.500776208111414
0.493926066136004
0.493671500573987
0.494392901302459
0.491411133696686
0.494544570660392
0.48984365643551
0.486393353488667
0.480609854125081
0.48044728446768
0.481144224262474
0.48254201511572
0.481119141741579
0.483093395360686
0.481308916542934
0.482321053062361
0.479483422789329
0.477640272351661
0.472960920478338
0.471291557890521
0.471654507740272
0.468960496334632
0.465596238458318
0.460777378183332
0.455095473764675
0.451014310738504
0.446779093814618
0.445605593236751
0.442935384123675
0.435648204473454
0.436114664870919
0.433786724467649
0.430103843007356
0.430863689820816
0.425790914271657
0.422480214665686
0.423457174637263
0.420798618336313
0.420282462651403
0.419221301787043
0.417183900898762
0.418600917441768
0.415899370670325
0.415323194015332
0.417052975379977
0.420550660990505
0.418599457764944
0.41954024391343
0.421410250409241
0.423128348240132
0.422224325437453
0.422286594188218
0.420522370903725
0.424080942105903
0.426919434064219
0.429042928410085
0.428175740867931
0.429447415044841
0.428631141633399
0.433030931406733
0.431239453499408
0.433891936828078
0.431963530399657
0.438351854004347
0.436621641129461
0.432833296530848
0.432613132916971
0.435046424618613
0.433579727481839
0.431798432938327
0.432079731883173
0.433018413495153
0.434041637483018
0.433170781227779
0.433226073146424
0.433891329725682
0.431602864412869
0.430010248277366
0.428538015664531
0.42753182125063
0.426668636517046
0.425883138022831
0.423120105302458
0.422219288723384
0.4222327009023
0.421902286209203
0.415244157879103
0.417150835858262
0.417980791703129
0.416868127720373
0.413746759566416
0.411252951224734
0.408922780386389
0.407274703466469
0.405466730023828
0.406431942220318
0.400405217495889
0.398973177857029
0.397104355000701
0.393586990735755
0.392030163771957
0.389038674897552
0.384830427180575
0.383344443264156
0.377196827500263
0.373822903899239
0.371886483771199
0.370872495905955
0.367078623351233
0.3627281822298
0.362411917450577
0.362250774607989
0.359450178759719
0.359967512685322
0.356617953892608
0.356886793292907
0.356848775428781
0.358253650113877
0.354085798514537
0.357435932260984
0.358670779230969
0.357367412822522
0.356114881677384
0.356157465038059
0.355861830336352
0.353767391081044
0.351874938797154
0.349981417053312
0.348700044657252
0.3462795184053
0.342843369440243
0.337638460148753
0.332444690647933
0.326810875365031
0.321641059035008
0.31900942504505
0.314355733959092
0.307665148646889
0.300768152522674
0.299262146119883
0.295436449473899
0.292062946585857
0.290459564156985
0.288450817269469
0.289409746737583
0.291343727541926
0.292136552940102
0.294851465930525
0.297336574513662
0.304915656496291
0.310653258854893
0.318077240713518
0.327160651155313
0.33706506226283
0.350525265355186
0.360802274049041
0.373040533563473
0.391833610964252
0.403316500606105
0.421955471134841
0.444647987532819
0.461388797874645
0.480672924277573
0.503237215112443
0.526325558828524
0.555373664007281
0.583590102168401
0.609313076322256
0.636058932153597
0.662727265101378
0.688206936121477
0.716057698366598
0.741452631123394
0.772632474032752
0.798336155998326
0.818377240353517
0.832896482914739
0.847896703519841
0.866317266801678
0.88049245552104
0.886973180296031
0.892947790414261
0.902059507794049
0.899335377580683
0.886520552825626
0.893896150152874
0.892334581461317
0.882190604499694
0.87592166129496
0.865775505426543
0.847894661421356
0.843164369701444
0.840397828263671
0.828717068878454
0.816994447965102
0.803499305944454
0.798213257657677
0.797476641323328
0.792980971868592
0.789418884614274
0.78684317603297
0.793038462146321
0.794146422075543
0.800099772057824
0.804755650960394
0.808150035987718
0.813204118182456
0.814830335943768
0.827495426590028
0.836347468111241
0.841742716300343
0.852724417935661
0.854724204157385
0.872533893612341
0.882175277660929
0.878781500844605
0.886505492679168
0.891903828900435
0.902992458120334
0.912170679821874
0.916602421981234
0.916221833021909
0.912386112772894
0.91946523613476
0.928004741867637
0.928664885561675
0.927168876412666
0.931178979404216
0.941318765882669
0.928648610752585
0.939243533461141
0.953933562830542
0.949508018947243
0.961538918308169
0.964314400818469
0.970894193820658
0.975004063739731
0.974293629169681
0.965484446716944
0.980675595169329
0.978047557500103
0.987373357102484
0.982237972577168
0.992881674131203
1.01550377524509
1.0405389810138
1.05194975271765
1.05469459756992
1.06913900168433
1.10773544642928
1.13929003464717
1.17053042519096
1.20912951130348
1.23443884015002
1.2734893869493
1.31939068458799
1.31397977944976
1.33535752023024
1.35972617380681
1.39993724928069
1.38790188047148
1.38013477318531
1.37824070163177
1.39932842320468
1.39482849793782
1.39043492389291
1.38012497152012
1.35077994787641
1.32993320361794
1.32882709624699
1.32503306090471
1.32760405379768
1.30693778061541
1.30273514279304
1.30736254622624
1.3037465295145
1.33137562567589
1.37553887440703
1.36838554318335
1.37027187351464
1.36670120001485
1.38050715560284
1.39030949282719
1.46613389170515
1.47299091404396
1.47106611250648
1.47237015478732
1.52255813200055
1.51188394079742
1.51972982707504
1.5566432820504
1.55867898334291
1.60952302440881
1.61904931462162
1.62719758111842
1.6200547335873
1.66616861402742
1.74709293411525
1.69638778365405
1.73285239393022
1.78539634099992
1.82508387005827
1.79377179380592
1.83991358223384
1.83431298464091
1.90362784841896
1.86463391700124
1.92963836979115
1.89719367647243
1.93895488653888
1.96179034420328
1.97378864453526
1.9443625437059
1.95529880950651
1.96911973117775
2.04836061852343
2.32487190143096
2.29905379486326
2.10413572556595
2.0944620742579
2.17453237665204
2.27626319421857
2.16107735658025
2.1457318065428
2.53570088752181
2.15950068859467
2.06145396678193
2.37919952582198
2.17418612920941
2.08904238430825
2.00249307287705
2.07758359945585
2.0904665450062
2.0686302487302
1.97437916323602
1.95087961740109
1.86814892356015
1.97951676571024
1.96482762752428
1.90668624561415
1.87595683957958
1.8709721677243
1.83159293426498
1.94558474374599
1.91821093355595
1.8598591535444
1.79410672255337
1.83083795270925
1.74915181802052
1.76717422600755
1.6942339680754
1.75985678663308
1.71637440484769
1.7269313248938
1.65715887340777
1.60411137889409
1.59387298934582
1.57311527729991
1.46263050305633
1.45271884037719
1.42055323327749
1.40662400069669
1.3405449836296
1.34147293602632
1.28684615920098
1.27335738547653
1.23571742355807
1.15346294425069
1.11444276753223
1.08578913062094
1.03334703264179
1.01244188258212
0.953972207199828
0.920081348262724
0.879632378560912
0.847320077228487
0.810852432290083
0.776727796230701
0.742243376322128
0.715636162296432
0.694805939643476
0.669136147479298
0.646949096957188
0.642426229203117
0.618330236365557
0.603703448201181
0.607175923867581
0.59249330724676
0.573934692097571
0.574383479596737
0.565033202989441
0.555192302881099
0.560271308473773
0.555318401459116
0.552764018322372
0.554079672705614
0.559103157753827
0.562807742565258
0.554660300416744
0.567548324544012
0.578691794389512
0.572800515568645
0.580494524180787
0.588744715418029
0.592732609359965
0.610644613863474
0.604905605114904
0.609029938480788
0.616834623740373
0.618609519839824
0.620295745979751
0.625882288524413
0.620967895755836
0.625116290321689
0.626370333862031
0.637612616575799
0.644463584137867
0.639902363724092
0.635271070821137
0.64405099470834
0.634880869068661
0.639390471724929
0.636893193248728
0.640004073142533
0.635426726283884
0.633067774233226
0.629241424774594
0.623753723459721
0.610201537768714
0.613049317640407
0.613868510145763
0.618388398568189
0.606985590814852
0.608235443764399
0.585785438682382
0.594351527284982
0.589860859742947
0.579391077810521
0.578424185568372
0.578866150787158
0.57896191205904
0.573275907946943
0.573600696857434
0.571829306129813
0.569100805343369
0.5713339376435
0.581888611736449
0.576802793552498
0.587610064505937
0.607855527006216
0.591553226827288
0.601613265192693
0.600052065774993
0.611841581360975
0.625465454472404
0.627483917109251
0.621534547184208
0.611248081955827
0.601404785274808
0.605667523200396
0.5964184952347
0.601374442823902
0.582589567877406
0.569041903880039
0.565467272572271
0.574528025363707
0.555810762066903
0.549459761201009
0.559886066063193
0.557342321895857
0.540707121688592
0.549786000261315
0.558497311051432
0.558018248838003
0.557030185955808
0.565803586096126
0.567176629687422
0.56999171090151
0.561952718237658
0.570530026345462
0.570602681833925
0.579816085975192
0.57495446346701
0.564583589840423
0.578861761260608
0.589989357708463
0.590203786697527
0.601570282416296
0.58680610357565
0.600264553957387
0.601883134211925
0.601644092667452
0.599245812759761
0.604335748548377
0.600912529040539
0.616440241244984
0.61542162944005
0.612809881039984
0.612843847274998
0.612766581451734
0.60177380603779
0.616120473865742
0.611128051246604
0.619636110888511
0.606132105424273
0.614262966292484
0.610575306528347
0.613088425182614
0.609953541741888
0.61835527235135
0.601693777854068
0.608588937344338
0.596065620390407
0.593099903154767
0.580589889804719
0.58715551844078
0.579189510880399
0.586732107287248
0.574233504938074
0.586180467723046
0.571457632224072
0.570889935885192
0.573485334572746
0.579602756989291
0.550891353428703
0.542176888806267
0.541389788234588
0.552866272754227
0.546295132817185
0.5602806092081
0.550320236253964
0.54325867841962
0.542903416047626
0.558177355633194
0.547260263400498
0.559932277559562
0.554816994706153
0.54480516028319
0.546642109492494
0.577977317491103
0.566701630782177
0.561195350859961
0.555042223305789
0.56446526851271
0.572481367128875
0.580075956816604
0.574020707597459
0.579697767497304
0.555588629290528
0.577127749991116
0.586756474047578
0.591086087235576
0.587261153916247
0.588445716282261
0.57439074632491
0.609547280827026
0.619802954027842
0.618811830246144
0.639737410264333
0.671700149975596
0.632666021621899
0.668924794353589
0.696234938589339
0.688630910679683
0.686836628309583
0.710721618415204
0.698669821931286
0.734240456390185
0.704872078727308
0.73424530747471
0.736269979782995
0.760717955016935
0.741769000407786
0.746632175504427
0.724665265593889
0.772330935389572
0.750512693773039
0.771671244799384
0.778897575155582
0.771560162109011
0.779822309172829
0.812290343042209
0.77603705075172
0.829910689833587
0.785575078979446
0.794662687040065
0.822134753837787
0.821778182901682
0.766096009410806
0.818223301026696
0.816500519375372
0.863801735489358
0.848342408516875
0.873164829964723
0.880794888635697
0.945006708437774
0.832784036611232
0.882308037137287
0.858808748479088
0.827491024448461
0.844393016908167
0.865188316131809
0.860524102184079
0.928064239166413
0.843467134576341
0.918157673573507
0.817566090883383
0.873889629254576
0.824976922217132
0.85499547295952
0.821033218108999
0.823576775620243
0.779287868844043
0.813629612643594
0.709498502763427
0.842514103083986
0.815959193526614
0.855270422725302
0.810721990448158
0.763030408229333
0.804089599757211
0.867996312923843
0.787116219614467
0.879198573944183
0.750618716684313
0.841635614243967
0.808262418525645
0.820945852996793
0.826432801267889
0.812927292395173
0.746177803634758
0.869578154488209
0.839501460437758
0.807807867628966
0.809048293049202
0.867573416479621
0.853777431822365
0.89718486647439
0.88420330772424
0.839752038799387
0.879088803998189
0.923672323807088
0.864611292189006
0.828490319135715
0.873283333449706
0.997338189849131
0.847821946799289
0.967092711474186
0.876964283171797
1.0822792732671
0.875165267588849
0.914716392576777
0.959961707284484
1.17314415793297
0.994893683375203
1.06135754756745
1.08105316783682
1.16158402271415
1.13720288866167
1.262666677467
0.992225248797288
1.0055785191238
1.10542112479991
1.18939978501896
0.973042471091289
1.12431443520446
0.89613199638312
0.994458909547989
0.922262850026138
0.983947378764053
0.994519134818461
0.797622787686455
0.866906387017273
1.08025452086355
0.805728035502126
0.997614235455234
0.896374038724442
0.94868193763757
0.898872757867758
1.03999071150583
0.981111152563337
1.38809696653289
0.859248278607424
1.01371363710893
0.848154094574712
0.959620610151532
0.748036309788161
1.08437143618297
1.27991654760214
1.30075480339756
1.05173189904358
5
1.15087941413389
1.22435413837001
0.867560048085232
1.17985006144751
0.696135539404013
1.10938252397662
0.780359470502089
1.22557519646501
0.908133547746645
0.932351490686013
0.874543775218044
5
1.50528560587217
5
0.893711163074874
1.59819673355177
0.761460811592263
0.949455472461138
0.984979242319786
5
0.87941601815969
1.3777141984359
0.971833166696169
1.12099097000571
1.25309681917965
1.18680193783321
