3596
4000.36533379555
650.420452594757
1
2
2
0.0597239111205918
0.0410314189017639
0.0605190706826786
0.0467135924877011
0.0517710425815959
0.0528454580524567
0.0664846153267155
0.0489595109396834
0.0621771414112901
0.0561098416859404
0.0615228320346535
0.0520984502935995
0.0596940622580476
0.0521663921580621
0.0578555790182279
0.0493318799162756
0.0584314058786515
0.0498348349653219
0.0570029311912633
0.0422219260919442
0.0553582132114317
0.0536586915765453
0.0585652924958356
0.0514466920999348
0.0613584875724121
0.0471987622101689
0.0582444819020254
0.0456568116263311
0.0533863168643262
0.0526900690635515
0.0539008580766204
0.0478041670364578
0.0602573148374292
0.0426996262206107
0.056305018770067
0.0527284743322122
0.0571140616761264
0.0371715086922789
0.0530841004487031
0.049101750745561
0.0580215337800683
0.0408674019821388
0.0610061354256954
0.048766271806873
0.0577888624974621
0.0452711479492171
0.0618570339844841
0.0456358966902044
0.0600099499224396
0.0447353701709788
0.052898060869516
0.0516549470226435
0.0579616425093808
0.0553070631425837
0.0528110351326455
0.052401570537269
0.0589902771209041
0.0459120442798787
0.062970156759996
0.0527235772558305
0.0546758827088514
0.0563931244392474
0.0509557637729945
0.0496295807062074
0.0581411571178193
0.0475082508202404
0.0619908122042248
0.0549535710928066
0.0529293232951476
0.0488989587780499
0.0585449368499548
0.0497154294424569
0.0556675345664573
0.0402633777148953
0.0591888592485969
0.0501560949480106
0.0489606089150885
0.0519607876326983
0.051912126143924
0.0413538248353758
0.0524082466678213
0.046362616623549
0.0516800759626484
0.0493575822145617
0.0533907205977625
0.0532074238532259
0.049529112855624
0.0399799858468158
0.0610657318564804
0.0428348200809292
0.0523811047199965
0.0424181564461899
0.0465851285706025
0.0493763845089785
0.0485264707905501
0.043414947822083
0.050967946547958
0.0473058961837421
0.0548935382584815
0.0352214408633746
0.0589207229021357
0.0200822620361929
0.0706141349709141
0.0391179388023152
0.0528373517349244
0.0502671453075976
0.0443719834822519
0.0558261027056229
0.0524130260934132
0.0490785345367915
0.0455250603762804
0.0538145923416129
0.0555525568802624
0.0426266865403913
0.0454327708489725
0.0515562531154044
0.0532660369465625
0.0436606474611777
0.0533902014544427
0.047619550175748
0.047304439160241
0.032927988431435
0.068061895877071
0.0398305981463307
0.0591134856819414
0.0462360543413903
0.0496064131109295
0.0490968227094967
0.0637218936707613
0.0424352855558108
0.0562943396256431
0.038696642165638
0.0585500679772618
0.0291228501344775
0.0621685040431848
0.0413090262162667
0.0600418400000155
0.0446546250376587
0.0472453575163324
0.0510490730792638
0.0468648810475072
0.0415804010339526
0.0476708875404753
0.0356668662702871
0.055792129763143
0.0473028450572152
0.0507242997245008
0.0413315558571188
0.0537013560919397
0.0418488584058327
0.0578545080631483
0.0441443332958067
0.052014280588108
0.046297941959239
0.0395377732622219
0.0157684001314651
0.0799925047533082
0.0200034709348754
0.0717718557451662
0.0260918053832107
0.0576132809509193
0.0327008904710502
0.056048890047375
0.042413697295756
0.0538775807970764
0.0397172566941831
0.0475720341411523
0.0485269226597158
0.0502127603200975
0.0467518924260239
0.0514643520685511
0.0566268312837811
0.0503094260022492
0.0604629904495926
0.066073493210376
0.0388109493540604
0.0622209464764302
0.0415521270972507
0.0517963263496962
0.0328072320727511
0.0661517371557216
0.0363603143968648
0.0549870411072515
0.0349605435224157
0.0506258206291634
0.0440929367890421
0.0525689848080326
0.0373908708981682
0.0600137435249938
0.0354754842187981
0.0577514429309126
0.0454323452428448
0.0647515054070046
0.033079123034119
0.0628313200009626
0.0304384474765376
0.0569998423430925
0.0462702830260195
0.0539025534547892
0.0457195913543806
0.0446108996994838
0.0463124372451676
0.0564835459632722
0.0385385347088375
0.0560886976959253
0.0337728325203171
0.0586526875936296
0.0400972434106604
0.0591769708950368
0.0416753982327056
0.064839322797775
0.0353767122082784
0.0602133803163002
0.0513271407850698
0.0450348178310672
0.0428499738289158
0.0420342511249253
0.04661918285109
0.0521955670522508
0.042863039872086
0.0528692823736512
0.0456091018008471
0.0550045414006965
0.0464760701662485
0.0496861829381627
0.0465456477064287
0.0493853697382102
0.0443746719560531
0.054071871673778
0.0430725892229182
0.0542395078588671
0.0467549378127233
0.0528594462867943
0.0451469081410755
0.0509885503488809
0.0443290941475542
0.0671884250625902
0.0473521016001296
0.0588225222955474
0.046517211106848
0.0573022982963999
0.0420112319872094
0.0608440357089216
0.043920274695193
0.0622320683193738
0.0340990909928429
0.0741105135948289
0.0409470139406416
0.0581944655484294
0.0400758554162349
0.0584509262134111
0.0479965220831509
0.0545717544056644
0.0527190463307746
0.0575720886937369
0.0468535313204294
0.0534623278960818
0.0579608347701714
0.0515696217083038
0.0446582257478084
0.0539007336269484
0.0516581566672479
0.054119834021964
0.0524883926854258
0.0355032932865752
0.066136632678547
0.0619202165707022
0.0321353155254233
0.0719145542939968
0.045646889128244
0.0504626447848523
0.0543412565422078
0.0473899359779609
0.0650445841620336
0.0580585470422267
0.0486384082942593
0.0485726405803049
0.0529760149010982
0.055409789268339
0.0515416174568601
0.0575765257686323
0.0390837506259278
0.0729527133363884
0.0416221228960212
0.0739928841654167
0.0379723352130637
0.0627311343946994
0.0492423431248278
0.0529258083555369
0.0505189354563449
0.0590160545748838
0.0438542626648162
0.0557908908158931
0.0541288724750224
0.0534861549019552
0.0584483919022805
0.0508449101941139
0.0618722668071615
0.0552796293819131
0.0544914966062831
0.0548820484099697
0.0554332634652482
0.0513430150248653
0.0566107360065813
0.05378823966507
0.0581513789008668
0.0667458790983431
0.0506944139256342
0.0757572995559976
0.054175388162945
0.0624300162519237
0.0652480503357314
0.0589085541666191
0.0581312138081944
0.0631341068722951
0.0642214729053158
0.0600029904597441
0.0579833704413203
0.0574029042627558
0.0666796659288451
0.0676206666307902
0.0589837647531101
0.0639270912837158
0.0593016451333446
0.0649015963569109
0.0589570929127713
0.0659763523325907
0.0637117693642946
0.0667481645368307
0.0577588766964077
0.0684030996997837
0.0769124220584671
0.0639916044036244
0.0729085516231137
0.0817818281876011
0.0636840373498967
0.078709026750288
0.0621029579798754
0.0762504645376332
0.0681634420663901
0.0772831204815081
0.0610850945524495
0.079992472177486
0.0763727941605809
0.0821498775067747
0.0693077496820591
0.0855161131735183
0.0682137773169288
0.0966042529038509
0.071059939551719
0.0866423299799411
0.0679562470594006
0.0941947699032185
0.0913582339782153
0.0820502873739776
0.0906572518171039
0.0876740509418416
0.0930252940306136
0.0866266925290087
0.0942064953211565
0.100780607924366
0.0976612119378539
0.103042067685286
0.101241865023852
0.10971961019006
0.1033710267021
0.106657931745865
0.107383767394287
0.123191226277944
0.113891039799917
0.111752020698907
0.112391645453457
0.117823950169681
0.12630170997097
0.125875676450422
0.119941703105781
0.14449041555714
0.111358056382036
0.14029643404322
0.121198159827154
0.137279689368349
0.125194168411592
0.146426817504557
0.134362890347425
0.149650446766799
0.136703984142963
0.150414600113287
0.136835025538258
0.154811473357018
0.140878547385408
0.169457335014084
0.151529117458096
0.171722360278097
0.157757727109347
0.183837088926422
0.158969866699622
0.177105877463681
0.173192625675886
0.199770759780655
0.17356278148389
0.177346161629042
0.177127363927923
0.188190724103772
0.184005731336432
0.1824323786403
0.196386973132406
0.201649129259275
0.204051559384097
0.212197517665148
0.198825845463253
0.222917119743103
0.19447976629241
0.226407823827459
0.213379044821548
0.220233676238915
0.22044444253416
0.224868578378068
0.21900914775147
0.238294371535125
0.23559494068359
0.232375168774863
0.24045500519211
0.249846711813675
0.242613139341139
0.248889854362524
0.252471056855112
0.25968245773609
0.262287598626751
0.267536855736371
0.257774161280769
0.271830105254924
0.26351177903835
0.274132621175062
0.281099303790349
0.287943156605941
0.269500448007169
0.30088043413889
0.285169357074118
0.309714394161992
0.283803098954626
0.314699617765082
0.307036949872131
0.309181427323902
0.321584015098395
0.319689841441109
0.312102922191545
0.321172204783194
0.319385194616286
0.324011375330775
0.330679121975609
0.330514307145246
0.328686843160493
0.34264748126829
0.343158745998443
0.349820688253595
0.350725511877249
0.367457465513849
0.347267069861406
0.372789020251832
0.36704306954339
0.384477921572783
0.372402034984605
0.380482057847514
0.378111643954839
0.389364234526425
0.380941890875197
0.399788064671038
0.394589092200129
0.400655684375759
0.396547416927982
0.415767741660401
0.426831930776238
0.432388381785742
0.39715530148877
0.420325181729354
0.425164842118308
0.449677877662357
0.440282214932472
0.459216274946254
0.446355759116426
0.469344964807725
0.45319836744099
0.460671685504344
0.447769351972797
0.46550841581404
0.462859058044134
0.465137397876419
0.463008795210432
0.498020776310515
0.485001179983077
0.486816672965241
0.489455062699588
0.509154390476696
0.480262554641294
0.52541470453129
0.516516916528614
0.524999201914201
0.49928599772675
0.546458776665959
0.532382009616457
0.538056382708959
0.512003079043639
0.550963826380547
0.525855082483189
0.566582748073005
0.549535427297027
0.572009100946836
0.548928376516096
0.569314625020243
0.546636712587892
0.571931252838142
0.592493042428332
0.572629160686024
0.572026745750311
0.598036812384823
0.596511383255413
0.625294813572474
0.568753003572052
0.619625570242727
0.593769461948169
0.623587143771307
0.614077674277963
0.627131586094514
0.621048941459799
0.638011986113672
0.607235826664937
0.641724501056842
0.614082651526142
0.662030089682331
0.668839332705961
0.684948810965328
0.646361378523387
0.666436316085087
0.636514187159382
0.684108239815078
0.682813000136884
0.699383601209911
0.649474356631148
0.678634395983936
0.687487540936467
0.706939425846898
0.668668999740167
0.715067762683906
0.711130461192041
0.745026502562098
0.704410964397638
0.73849273005896
0.728397775473057
0.747028245955707
0.702176996137586
0.744072190146764
0.729945061857444
0.772533740629527
0.729595966000398
0.768751011859093
0.741721353351352
0.753713907095926
0.71036974282828
0.767016568333291
0.787614225621633
0.793730741405467
0.753750930218121
0.810277028318114
0.783106920233118
0.80659673558169
0.787392011655011
0.822432201933329
0.777677520519562
0.793267584763905
0.786670981264534
0.831964282832692
0.794619534518677
0.837846533133945
0.819126624636207
0.842296713331392
0.851260310506627
0.865725099707136
0.842059000455987
0.868883927266322
0.859663556264773
0.886791644702109
0.874011350074244
0.871436701028757
0.849292813456407
0.888744622584887
0.855347458144919
0.876247803043553
0.878415679474773
0.916603906518277
0.879144490846034
0.937613265562387
0.87652369159729
0.902021548638761
0.888161089166363
0.892246920251622
0.948215421830662
0.930766289332649
0.86338831719604
0.933704705946769
0.931231074934037
0.918855912605104
0.899226381477088
0.912020465585177
0.909505660583125
0.961261435163407
0.903212358153671
1.01867961511698
0.906238792461461
0.924705342415836
0.946842628999623
1.01941795695365
1.00407895077354
0.976850437458866
0.999429510574774
1.02998166235681
0.988822432370704
1.01029912405247
0.966510211918775
1.03189841923109
0.957729388260954
1.01243971272673
0.940190195740556
1.04875266123941
1.07262660786926
1.02779402269637
1.02651602238081
1.04926576112089
1.01102193178101
1.08452002609999
0.995989535356643
1.04546891822602
0.999769705948867
1.02724541017288
1.04223512740478
1.09509766684179
1.07871578478151
1.11919002944335
1.04722521431152
1.10085860514856
1.01230274440514
1.03056892348232
1.01859832970344
1.05176433960543
1.06640073769325
1.11125971819147
1.05998822795601
1.09884908875503
1.05314581801083
1.09446282735252
1.05043216061487
1.06928449365596
1.09815700313329
1.12952910540003
1.08449500538631
1.08322515344238
1.04620345381413
1.18035279427556
1.14666055454561
1.19592001283195
1.12452513447654
1.19362411366343
1.115549777154
1.14900770773279
1.07694416376657
1.10199493188919
1.15324940256085
1.25763335675951
1.17401949624841
1.16001278702167
1.13319947480429
1.21834471510102
1.18242179827471
1.19583561603749
1.08875301603742
1.16579375485561
1.18579870712204
1.14873159301235
1.11680169537522
1.16985477241819
1.17351429515445
1.23140442644517
1.14826617895074
1.22350765373312
1.12679160008636
1.12869141353986
1.14861020350943
1.2448487332054
1.13745750900425
1.19980473990825
1.24049067513734
1.18956180760685
1.16631095476118
1.23196177869623
1.17891790149967
1.17228952288373
1.15502822162601
1.20138462789223
1.16901577093204
1.26711951318701
1.17447104650683
1.2033743668817
1.20107601548367
1.25637361083917
1.27104490382447
1.22367751271472
1.17217791821386
1.18990069385214
1.24521572523123
1.23729751374098
1.20510156112732
1.32414143505126
1.2587578882066
1.28226449720694
1.247558722268
1.23956293925591
1.20004247592131
1.19003482857184
1.27236700841942
1.26600044994947
1.28452312291764
1.23423792090288
1.23262896457259
1.24789092686947
1.22188796198468
1.23081287007395
1.25132577151013
1.24298124154424
1.18713777375355
1.25237123648577
1.2420155911651
1.27164306145355
1.24661013966891
1.27374296411913
1.27486278843839
1.30867699591236
1.25025687356722
1.28847324557603
1.23700871818598
1.26627188390549
1.21130664214743
1.22939863471394
1.21698062766978
1.24359662524888
1.26473151500666
1.25912619192781
1.25588189333069
1.26954808484145
1.19580143325203
1.23870230764432
1.30377738888187
1.30150385859803
1.19983262509322
1.30814030465525
1.29911076469761
1.31487301526685
1.22830084243905
1.25583011327026
1.21152650352542
1.24882860220692
1.24769312815871
1.31404761559483
1.25136537497749
1.23776429034086
1.23791167446096
1.28163789706152
1.2398384259596
1.20491207888103
1.25266735242698
1.23254956378944
1.21442082709297
1.24544974571584
1.29433148249018
1.25096124097278
1.20848297416506
1.25333062516654
1.22513944265717
1.26571116508493
1.24283370030602
1.27161421697589
1.19117788233816
1.26029062361633
1.21838531081289
1.24806125332046
1.29461342417516
1.31850238522731
1.26540278712855
1.23393368179971
1.25387145107925
1.30138509530445
1.21987771708104
1.21498383947229
1.17163682349968
1.24365660343771
1.27034863283176
1.25198593857511
1.21866754470636
1.30490514232257
1.2054242173443
1.24365825578224
1.27218841923298
1.26008083813561
1.24061699920334
1.29684697356755
1.23800077681725
1.18404469117608
1.23520247219442
1.27254198550042
1.19948546382923
1.21498996279847
1.26416554726362
1.25671373589951
1.25014976816835
1.21591469399202
1.17908460223155
1.22690488771223
1.20632436764384
1.25624010927197
1.22558837530762
1.25946195494518
1.20539552992186
1.2012384578809
1.14676915111063
1.21584152633785
1.22898456820072
1.20534664483586
1.17602922740559
1.18632571789285
1.187221023576
1.24889151043887
1.21542809535686
1.1755743643961
1.20475110203069
1.19961157538247
1.20179019608798
1.16561257434553
1.14999747023304
1.20036489754507
1.21166645339644
1.21176590254459
1.18690012967711
1.18590752456977
1.14300124708616
1.26078765607173
1.18503805733538
1.11644600753799
1.15132032693073
1.19261402605071
1.14587250922675
1.16094657907787
1.1386939402374
1.1538041964236
1.13372194707832
1.14430603301209
1.14330951242729
1.18360977423145
1.14154023056382
1.12534177991221
1.14503791089336
1.21295555857527
1.08728457582455
1.12177365538043
1.11161941751742
1.11857887406267
1.10851696754004
1.09399944400777
1.07737547101343
1.13995413214394
1.11438822545601
1.08028565658387
1.07202005481763
1.08604747206895
1.09170669071764
1.08496996314782
1.05956996431259
1.09103024745485
1.08743775632008
1.10591310241936
1.02305741046649
1.03719470185893
1.04263044458005
1.06781368664261
1.03069470320683
1.03555251238708
1.0273840214527
1.04946626172353
1.00577389090285
1.03022391811416
0.991494245144818
1.01435921292719
1.02721330418971
1.04741470783455
0.994203729889234
1.02281676855475
0.99694110420692
1.00949490705508
0.966625193894697
0.969331066672882
0.964408973491503
0.997609083731155
0.984439193887435
0.977018017917862
0.932329466147325
0.945335037904815
0.959094741518694
0.960970732752225
0.934063544074141
0.950182173534375
0.903159217120975
0.911629271959432
0.911961144612132
0.906510380225024
0.909114725191468
0.925864515495587
0.904917601422214
0.923777266462641
0.900381454684821
0.903379880069688
0.877659104119727
0.903428329174183
0.877820067984235
0.891182909675124
0.872937061696264
0.853997758531553
0.849084290102843
0.867621588435179
0.848624558948846
0.848265282174754
0.838558830620723
0.840423459773014
0.83080357600809
0.851933981933028
0.828099011931526
0.838305977007647
0.80437845479226
0.811534025934357
0.818224854988001
0.823199650763679
0.802347516609117
0.815692851861003
0.781505281713111
0.786187739457258
0.789415928244248
0.797939289410125
0.757238336765831
0.783392332478165
0.785607348016648
0.783002795988505
0.753870430923936
0.776781742523321
0.750861258138421
0.758519246664227
0.732635575269543
0.745171735594933
0.742306235099164
0.740219104071073
0.720124334024512
0.72748875909574
0.729555927915049
0.718312051711039
0.710523607537815
0.717786422355819
0.702696619258637
0.699009145250184
0.696368605331357
0.704515047216084
0.698535040962604
0.691324235498825
0.675314593333815
0.677124087730063
0.660914443835976
0.675257644763243
0.655924967611186
0.665164733972381
0.647868368888686
0.658813948699144
0.647800455297069
0.650751016347936
0.641033564694006
0.64550058084247
0.640421335953394
0.642745359247895
0.622774480741253
0.630621185377252
0.637449140410299
0.61749810986825
0.602148149532745
0.626785586936057
0.610452096026429
0.602865489713946
0.599982857298052
0.620332890152402
0.59371493785088
0.599042634130561
0.594743033375403
0.59571090496185
0.580251636694991
0.58682428905983
0.574124972214866
0.584413457715367
0.567894072397199
0.571662111880788
0.569093183538968
0.567818994519678
0.559756026470859
0.565374698172907
0.549674059958207
0.560994793970301
0.544908135167378
0.553414361035024
0.538401929576513
0.544855733369268
0.532745098215806
0.532045733868493
0.520523130927935
0.532809523726066
0.519093231339018
0.522161416815838
0.514543955765129
0.51832748021938
0.516168116308272
0.519601183766762
0.500114856417971
0.502396072314818
0.492439249506634
0.498044639510751
0.495642794378298
0.491949900144639
0.491941403294758
0.491585982347824
0.484173290252291
0.496691627274172
0.483811895902815
0.484329739660378
0.473406283869405
0.473230387662226
0.464627260158295
0.466426120984371
0.464796481938425
0.465329877542651
0.460415912401368
0.466287930628107
0.454124584532966
0.46627622299342
0.449092511495635
0.444521897378289
0.445706469857476
0.44983723843099
0.443642151392766
0.441768662838352
0.439369112939172
0.446083071486872
0.436370688078378
0.437035872752825
0.425443346883454
0.437417258064679
0.427292009864882
0.428263675605917
0.422790573408474
0.423739830102861
0.415213334689018
0.424974621695285
0.41529897314094
0.409717372497836
0.411343699729956
0.421580194862279
0.405367648692481
0.413620647220255
0.408558147306778
0.418057147507433
0.415158977342564
0.411138482780449
0.408298671815127
0.408412016448007
0.399886609986024
0.39969210989554
0.390959938621385
0.4030220719805
0.397724066604098
0.399332810554085
0.391525053379756
0.39887999863991
0.398200325424141
0.408079809464552
0.395053557654381
0.406256120698019
0.400649734780037
0.396362959631032
0.399871829698335
0.41087701828964
0.395320536245518
0.39729879058834
0.396571013781016
0.402858055425406
0.403143129418905
0.405066825619116
0.404853117361538
0.410126461389172
0.400847226044576
0.406963870845198
0.408832916696278
0.420959691614469
0.411822055031318
0.409819019183654
0.413504147125849
0.425669928364326
0.410912723464946
0.416985882258013
0.414959048114761
0.422566557195211
0.423380359800389
0.43831860140384
0.424212745816131
0.423076419712838
0.415387081865701
0.437504631584723
0.42313526279238
0.431617197866914
0.43271056583014
0.440787939340039
0.43833161226829
0.447337825659836
0.452536434427156
0.452942061914492
0.45064625554967
0.457611148479175
0.452178364042993
0.464344888974728
0.475251454596228
0.474373382514143
0.471841765730145
0.473482848170307
0.474740622194287
0.500034309479936
0.491116731943056
0.498342079011844
0.484734510657382
0.501746679903376
0.500176499404671
0.507833927114848
0.509932757769853
0.516329706723557
0.515319311610225
0.516852947441838
0.517000719284881
0.524211428376045
0.533722015631203
0.529818041721908
0.52179595526918
0.542040762774459
0.531367453969012
0.536209706580361
0.53258487444267
0.532218150590759
0.530348699013085
0.54285171380796
0.51898626046217
0.532059138993243
0.524298538774936
0.52459996880324
0.52150469233076
0.524621219863238
0.508168542088811
0.524045981919802
0.516741943480577
0.507725101091095
0.510030340262951
0.524602612875084
0.509780596817048
0.508662513176384
0.500693953939771
0.512819571790843
0.496450498412894
0.503449983309018
0.497391421231166
0.506987819851821
0.496308525379097
0.497975400789895
0.488943079300175
0.505150851879996
0.500185611156944
0.497294265297175
0.494744815836444
0.500015620136549
0.49458577159643
0.499668452526749
0.495110871452253
0.497375425959865
0.492027612900366
0.491098391494427
0.493519651546795
0.495931141408616
0.491342410256087
0.49684346063444
0.488053831472002
0.490693269125109
0.483826651879914
0.494707522261765
0.482433776422807
0.488206821089121
0.476970987548053
0.481090004981142
0.469836965942176
0.476378062660452
0.471691501998765
0.474865410828048
0.46698232345305
0.464955919164841
0.45210038219732
0.466629726900362
0.455519000564533
0.457672136001283
0.444835019258924
0.453733095964363
0.446057555900387
0.448690260078019
0.437370271271545
0.437160802272493
0.428476250305763
0.435686628457252
0.432569858384369
0.426347684349896
0.423230318252943
0.425895911123445
0.419597985306677
0.422408423049278
0.421012032838929
0.41989764406417
0.411057607257182
0.411486398258698
0.409669674545314
0.405550768068279
0.392397295211123
0.393956863552715
0.39158583970567
0.394200188463888
0.388010280869874
0.38969307215727
0.383177652715791
0.38790591016403
0.385143430376616
0.386164293029459
0.378278135854634
0.379447704623681
0.372409264957258
0.377919794202402
0.37009861411566
0.375395326053504
0.368444041753682
0.36466958652478
0.357223827296956
0.367288023508804
0.355707170715608
0.358526613548512
0.360065865035034
0.354234739726444
0.356402498988892
0.353233337633886
0.346091955543634
0.357102665534347
0.342925913829707
0.351283590208869
0.341455846482462
0.341571071548155
0.34599148347261
0.341082947590982
0.340215245350085
0.336331219441498
0.336320237628862
0.336404146678608
0.331809279319341
0.336286814104889
0.328347040255901
0.331644173017781
0.329265036519393
0.32901724746502
0.321558528231859
0.327453089512674
0.327429311139563
0.324284133494882
0.320135288285647
0.328330064402974
0.322129440068681
0.317804936417021
0.313467038125183
0.320063921439395
0.316306259609521
0.311133633845729
0.313117654900338
0.312995023727002
0.30903182974092
0.31234464957566
0.309777837431094
0.314470320406317
0.305706425902283
0.302206547090027
0.306171192444391
0.309751637276236
0.30491309009398
0.305490402268859
0.300862147982167
0.306384761571007
0.301440125968659
0.304468504966749
0.300709609148705
0.298605754227502
0.298138041191693
0.295045436305906
0.28860628776307
0.300074041480087
0.298245987643066
0.302025831937355
0.300699697837062
0.299385024923932
0.289644652832375
0.299645943705431
0.288846573644061
0.291389306614004
0.289826122321857
0.29018658012056
0.289443364988771
0.295158902459978
0.287769641663874
0.290271481393943
0.2874829650475
0.286651442343172
0.285033520773069
0.291010892575251
0.279755043436276
0.285322523037384
0.287699865404974
0.287274206301343
0.286062972566353
0.283419436300753
0.283085907562475
0.286167457534027
0.283445888906664
0.286563642277444
0.284452527610123
0.281576321964393
0.277950268748237
0.288500976760291
0.276231692469322
0.278225679389361
0.274692388570672
0.278432137218673
0.271505776859488
0.273567820197256
0.274999066557706
0.274511094473803
0.275384682062694
0.277030550329246
0.276477603037329
0.280014679262477
0.273333157261258
0.275132599867975
0.272255390884538
0.270881673325715
0.272724999957961
0.272910713783018
0.269982963057834
0.274681375560327
0.264390722910526
0.272522741934527
0.270629702267494
0.272274588802421
0.268704065284121
0.269561103834371
0.269451414841536
0.270052497756608
0.264404519206829
0.269406122061635
0.264241149498367
0.265096237676938
0.266052201895739
0.264321709069545
0.261595031598603
0.265759188243601
0.262236435642865
0.26261606727734
0.262398055604141
0.26777398136387
0.261025731408274
0.260893808817822
0.262831245491753
0.266040697308233
0.259582026703878
0.260770861488593
0.251263042407708
0.258828187718325
0.261028634023808
0.258069222347637
0.258243699133091
0.259530244988203
0.257151570309127
0.25626636754603
0.253105689492751
0.257161671597249
0.251650930052171
0.256279650068509
0.252051786343167
0.252010337470864
0.253809551796386
0.250079205699539
0.249756133238111
0.252270857949798
0.245751780450894
0.24769914874779
0.249508824649565
0.247224565986287
0.247573641611853
0.247105804717785
0.241674806819169
0.245918023536426
0.244891450727865
0.247231162672231
0.245779639816521
0.244416028122107
0.242433071121427
0.239301041497676
0.243263699824739
0.247201171365719
0.242499277266766
0.242729758379076
0.241246743995879
0.24328191482107
0.237760782077169
0.239966847958855
0.237596080607542
0.235931843598443
0.231262590372615
0.240982122679061
0.238046618000709
0.236333306431221
0.231077381107833
0.23189126242636
0.230739606178066
0.232671073779818
0.228679192167481
0.231071374403085
0.229484037307091
0.23275737944087
0.23201933671786
0.229247159405442
0.225361001681683
0.231065133025431
0.229470064883371
0.228931064223574
0.226377323875681
0.223707322002113
0.225015066922153
0.225016397457572
0.21945971164481
0.223600830861842
0.219795573348578
0.222227391788471
0.215362092590838
0.220356463338862
0.215485224099787
0.217191943183092
0.21532831326204
0.218344569336238
0.217092760030819
0.218925474329816
0.217037385845337
0.212967753296749
0.20861006393108
0.212189796502374
0.211603313367912
0.212218957067042
0.209080567062542
0.207976447716431
0.209327710778667
0.210259500188413
0.206556362530207
0.206940158846368
0.203343747826041
0.209213071379332
0.203395859062569
0.205230853344505
0.205336452443397
0.203079771341931
0.197363376220608
0.203111622701418
0.202918215022497
0.203330986681746
0.198806436336517
0.198054737150698
0.200825050422563
0.199252300770824
0.197900087481428
0.201381233725791
0.198533883696453
0.201144729886802
0.197053316732888
0.196849518541851
0.196112033721443
0.194372690661218
0.192107951985065
0.193183104360324
0.189783784584091
0.194663160634866
0.191928709370797
0.193101988843471
0.188556866531378
0.190919031891149
0.189840152176494
0.193669335120349
0.190917599980263
0.191385204729176
0.188719383172838
0.191080971350286
0.189641567164947
0.195338572264031
0.188874100554003
0.185586354452922
0.18827539911694
0.189169722253267
0.187880293523063
0.186053525681414
0.1845041712629
0.189891506102732
0.185681311653528
0.185116256809763
0.185374366967475
0.186479524470741
0.18317391921618
0.185259374073971
0.178720538372761
0.185375375363131
0.181832532495274
0.182997892262793
0.177954377931228
0.181674752981281
0.184875310246547
0.181813515749051
0.17997089847693
0.181843591691192
0.18106864199793
0.181449689249811
0.180006710530827
0.179643217695418
0.180914590469251
0.181830627479902
0.174696115819332
0.179132830900332
0.179369894581323
0.184195309157041
0.175649400571448
0.17631823069905
0.177594516787962
0.178818559673381
0.177634659753634
0.178860298436268
0.178494698979009
0.17680264646284
0.172390442643143
0.17669432956267
0.177281032947045
0.176854803669514
0.175560426562258
0.176792307820458
0.176184842525097
0.176597534811079
0.174943786536983
0.173401473920896
0.173737983344224
0.174693664606029
0.174045559773197
0.173470384291311
0.169358732824299
0.170995736157602
0.170856558655954
0.172211607904574
0.172030022522275
0.173079986482056
0.169602644210847
0.167324002548459
0.16964803136762
0.168091044791568
0.168131681504958
0.167938206080746
0.164514440374625
0.168349052180423
0.166702625356706
0.166868085681423
0.163555325945797
0.166100726033652
0.166563109329835
0.165437632011399
0.164947389740874
0.165257688158243
0.16118927504912
0.16257132001871
0.16200164771724
0.164905891288639
0.163872639330493
0.163648913774256
0.161735908250162
0.164612107959237
0.161432507673795
0.163421254124619
0.159638832814538
0.163370043149704
0.161054376030908
0.163739468006085
0.159635437201477
0.161244741290486
0.159061194524778
0.160713450521244
0.159435748271908
0.157571091399751
0.16078477331638
0.160520105193875
0.15665360484971
0.158554862040061
0.160241575715573
0.157548296021928
0.156329686140513
0.158582601429158
0.154191458208578
0.158111988197965
0.157916695150379
0.156131886110291
0.154208966122124
0.155666307593495
0.153721052235115
0.157438890436046
0.154676478869687
0.156152016934832
0.156535633538011
0.155969694650912
0.152671970901929
0.156377056431789
0.153027463690732
0.151108461474393
0.150050601672282
0.152588018969895
0.150518787204897
0.150043128829387
0.149585829515497
0.15060862410547
0.149145074231397
0.150484695162968
0.148595244003571
0.14872494642389
0.146426942047915
0.146651379087301
0.147176654460226
0.147375283657041
0.147953341573701
0.145399424478811
0.143798345803035
0.14540007087153
0.144581381103655
0.145039964622393
0.143135878796909
0.145482712507559
0.142271548992731
0.141432955678888
0.140539142445344
0.143567352262145
0.142698710873893
0.143916005173724
0.142997107002298
0.139524528122203
0.140454543691761
0.140389362398966
0.139148249549466
0.139720869540495
0.137450278804378
0.143432933798947
0.137377694862664
0.135980181660108
0.138614984961008
0.138756653107601
0.135064281841097
0.136447949282162
0.134963404584915
0.135911129219383
0.136702616129374
0.133494117399193
0.133867452822965
0.133063821434165
0.13283388185697
0.131980757245791
0.133266475464238
0.130998648487859
0.132000443960877
0.129522107557846
0.130591962830522
0.129947637784204
0.129510634265518
0.131036340447428
0.131009431328482
0.129248021015797
0.129413778114784
0.127742358558475
0.129343651310488
0.129955198022561
0.12579905247701
0.127704307827893
0.128544256584559
0.125245092884163
0.127469181951151
0.128090635804815
0.125100985737538
0.123963229994406
0.122296716512311
0.123293897354389
0.122856307303117
0.121261838195538
0.125017839853242
0.124433593880962
0.123100934249731
0.126465275079558
0.123310094292943
0.120464409251916
0.119865579529967
0.120138625234335
0.12043173680945
0.123154015809616
0.120925108265798
0.119703214027745
0.121519077876342
0.121676011923272
0.121167803575788
0.120177778663641
0.119017200173887
0.118863900200975
0.120763648610178
0.120155299034497
0.120659935809766
0.11991340760311
0.120280214205116
0.12115367910976
0.118179769220002
0.118150874884436
0.118774266120152
0.117445371595914
0.117807042730922
0.118822820406224
0.117100635508087
0.116779308168276
0.117912983225885
0.114658066740765
0.118964256268773
0.117215204099313
0.11868822193288
0.109553973603989
0.114418796059659
0.118706152022034
0.118599504042399
0.117640960940571
0.12255366887406
0.11167022717634
0.113967602735814
0.114440314657951
0.119823937457558
0.111785155127587
0.115567045241482
0.11466752190615
0.11542830074848
0.109012981734404
0.116671045148505
0.111730569466569
0.121863788655185
0.111013808905852
0.111595567740336
0.111995348564779
0.118283761658593
0.109508711070231
0.112951634446822
0.108573543536264
0.1162054567415
0.108381397202215
0.117331063401733
0.101981387277861
0.119243281791877
0.107512256164614
0.115804415499083
0.105175779033313
0.118717067132167
0.101658927520568
0.116295552199589
0.0974715391414195
0.118796415994281
0.0988284700085601
0.121380069880556
0.0971004038776437
0.125100256464384
0.0964346688257246
0.123938695210356
0.0956784129014831
0.126432748023417
0.0945891934702548
0.122303564236157
0.0909167161497177
0.123897067249374
0.0935889792232703
0.124989326490569
0.0999798224121292
0.116615160584515
0.099817140025614
0.11460122745898
0.109793734993239
0.104428804219112
0.114472141200788
0.101102250870025
0.116729024995118
0.0978844765061592
0.123430258086125
0.0948021719211756
0.12146554718313
0.0972478078810786
0.118916326767828
0.098770092462209
0.113209360996627
0.107633641535184
0.10780979303193
0.105994157045969
0.110764533976734
0.107557779804333
0.109511548583285
0.104049561206381
0.112803703153927
0.106514245318069
0.111284297003964
0.104573172984789
0.112114950713502
0.10543336178705
0.107945243494685
0.106445941849127
0.110243126395302
0.105328263512879
0.109767145092298
0.105617606219913
0.107608979155433
0.103910796357906
0.109270552956836
0.106805422004787
0.109984964806366
0.105555048283867
0.107568261308644
0.107138898163898
0.108745131753568
0.103416176378181
0.108935710180112
0.10559449818166
0.10940346202148
0.108975971936702
0.109440621072426
0.107129885549663
0.111418158067934
0.104547060179465
0.109384130402238
0.106594054500091
0.110855887986242
0.108708240099007
0.113830915123618
0.1089658433602
0.110066764210066
0.107444254508157
0.108497633350498
0.106524052153877
0.108930828207566
0.107698983259262
0.112668660839239
0.108344874578168
0.111365632678701
0.108970443132811
0.110653452470599
0.106003399637451
0.111893921112119
0.10911381805525
0.110272816311152
0.104721737214893
0.112386298517202
0.109427794728111
0.110081102742306
0.109473576440631
0.112354305291978
0.106858490314272
0.11055612763356
0.108243008574303
0.112372718273862
0.110602937309964
0.110507046100818
0.106857665768906
0.11049287015212
0.1100714913911
0.10924132901973
0.10769464943751
0.11397391972005
0.109657107747656
0.111215188276519
0.109862346040337
0.112414541833562
0.107521257787775
0.113090254511731
0.110535480307451
0.110208016742964
0.112527037862386
0.114656175950818
0.111149063374885
0.114175626112349
0.110899375659393
0.1150957012393
0.110904509976528
0.110878031199433
0.111487264587603
0.114452407127495
0.110610869817108
0.112075095484692
0.112989439963959
0.115498530891806
0.111706389023028
0.112249411228884
0.11096297610183
0.116593779510643
0.114016955231396
0.115739824370902
0.113922341112051
0.117326842418351
0.113845759447707
0.115202133328216
0.11395715647252
0.115397178075915
0.114143220508461
0.116319717281493
0.11523373508963
0.115869863108067
0.116219007565214
0.118966242522015
0.116123861304239
0.119138966357759
0.114514272666594
0.118825326306953
0.11840714005941
0.118743953884036
0.114266411313807
0.118219074483397
0.116794758487665
0.118390501556593
0.118712978880337
0.119318720739977
0.115146783224103
0.117385198683383
0.119315322509913
0.120561719963647
0.118436618122877
0.12131537757011
0.117883810008558
0.121500696406013
0.117477698016226
0.122413784645129
0.117083234371737
0.120669360122686
0.119671202858333
0.122160815152735
0.120544119402029
0.121487914876517
0.12255796571211
0.122064124387191
0.118882695495768
0.119455642284967
0.12030310274083
0.124268669585982
0.123090993215843
0.124917018762814
0.121567157909005
0.124203071519708
0.122571688642856
0.124531782737458
0.123930677041812
0.124866574032529
0.120768322820298
0.123942107736854
0.123057533940266
0.124975131581449
0.121860273197187
0.126179229409787
0.124084445568773
0.123602034089265
0.121771951645161
0.124832113987596
0.123554813182364
0.126400298805279
0.122782343815915
0.124956044116859
0.125527995056383
0.125023426399558
0.121084630694081
0.124247670950537
0.125778568125771
0.126822305060405
0.124005109067195
0.125747785825132
0.123317104625293
0.125533263123092
0.123852585337505
0.12489570809166
0.121250428353697
0.124083465261195
0.121527828953254
0.124337273478416
0.119696321626585
0.123388644435462
0.120099362855503
0.123054598270653
0.121164485396537
0.121668702332762
0.12103018279867
0.123265831349851
0.118584997339377
0.120925013168591
0.119622489518536
0.122736554460436
0.12203339344425
0.124945886879993
0.121033833844973
0.120998595905214
0.120694750962179
0.120660155150336
0.11887602345531
0.120476245014225
0.119566329810679
0.121957552185003
0.118915171555494
0.121426415276848
0.120878956437711
0.119704564799348
0.11916983522185
0.119285840201578
0.117980282429847
0.121663825447385
0.118075651555981
0.118378631565586
0.119264372550056
0.121041515175869
0.117960404978508
0.119494154912995
0.117070799900563
0.12038508556129
0.119500550798451
0.119356714567951
0.117199177175842
0.119586432890112
0.115860251992506
0.117608986811813
0.11699172334088
0.118301006473053
0.117219933853506
0.117099819376654
0.119153099181306
0.121494109360192
0.116183404747011
0.115540687774055
0.117347400526842
0.11827660633825
0.115586052220217
0.117531153633035
0.120799645475185
0.117545946720524
0.114492353143666
0.1192376477505
0.119368034696453
0.117518779638827
0.116061176228621
0.119783759124063
0.115016756391568
0.114970913864466
0.114840053791734
0.117896743226066
0.116143749943158
0.115308501341292
0.114340562029038
0.116299998313861
0.114593806875592
0.11535444647485
0.115045530530581
0.117242204034362
0.114004562692655
0.115557644368256
0.113840875057916
0.115119771591178
0.113319343238569
0.112755611252579
0.113434032271998
0.113327810059558
0.114619749480921
0.114497657523245
0.110162533947588
0.11439184592094
0.113163192754319
0.114721204130527
0.110365204098246
0.112772258879677
0.112982238779587
0.112078565498633
0.109750487508068
0.113037563826719
0.109982842269844
0.113397504769018
0.110823817306852
0.112061699262361
0.107753696994201
0.108588740926522
0.108624016607452
0.108916154240138
0.10908260718899
0.111184050781322
0.109343408594851
0.110569548412652
0.106438342759744
0.10611443066583
0.105796057814263
0.108501626604264
0.107614482362848
0.104081807732383
0.103372151761849
0.106620033589524
0.105144544318202
0.105290658033353
0.102629713691543
0.103058423043003
0.101325452807619
0.103786818823063
0.101766221407593
0.10545643204652
0.0991928032790837
0.10278765742259
0.10128075869437
0.100868172404642
0.0995685885874424
0.102187815171901
0.0972326595036766
0.100000505075417
0.0989383230452891
0.0997229678233082
0.0970339974061671
0.0991359274632411
0.0980351441140913
0.0981701831400171
0.0969032296430574
0.0973386986451277
0.0965926740997487
0.0979001114341865
0.0929512423434695
0.0952157071726868
0.094920753556611
0.097841625078711
0.0937359510541417
0.0956923970960412
0.0943054232011264
0.0968918420706129
0.097167884318732
0.0964639844580441
0.0942946502532857
0.095962700658578
0.0940775511057394
0.0940692596199811
0.0946270239120843
0.0935228987317988
0.0946608864753806
0.0947665447803713
0.0919908513750828
0.0947872362493849
0.0925904995469333
0.0940627560222887
0.0922694780771138
0.0923680030979131
0.0913113849019934
0.0932109245736083
0.0934110586654302
0.0913544255670772
0.0905394593421323
0.093687081165765
0.0912298344823801
0.0941058371565431
0.0899369042372972
0.0920434552194556
0.0949102312836553
0.0929483024538618
0.0938930985494045
0.0908467305083953
0.0924237063335609
0.0919595701736076
0.0935528052129568
0.0919729254032553
0.0921560687798485
0.0920957353531105
0.0900028411629011
0.0915219962133903
0.0904322698288492
0.0894562199538241
0.0876987770895464
0.0903649810953713
0.0882892791815835
0.0883812261604112
0.087985881028108
0.0925927111503917
0.0892172549605099
0.0891392196370821
0.0912504827947112
0.0896584496848706
0.0904498424440625
0.0890810222187457
0.0857400666780869
0.0940163099471105
0.0889332170062764
0.0892428248815015
0.0860136910753609
0.088168916906553
0.0851553204167703
0.0885171969924961
0.0887415366221727
0.0884677976031376
0.0858819896474887
0.088742534851112
0.0870881636034721
0.0882028420651804
0.0864511552470121
0.0900837859976607
0.0862015144231848
0.0893638919124348
0.0852647269846664
0.0903128895743669
0.0856038730392593
0.0864764117451178
0.0885461049930457
0.0875543482271287
0.085444920561257
0.087023920076637
0.0817461499351928
0.0933641640171073
0.0840244223894507
0.0888392321474707
0.0833040173657906
0.0866558581267638
0.08552447707892
0.0886076243307846
0.0851209624925983
0.0865880731587399
0.0850118798179355
0.0839134550778786
0.0864016255053425
0.0853586927911456
0.083961354274161
0.0853300187014632
0.0828896519426717
0.0846364230244949
0.0825938322946305
0.0842594362327384
0.0835845544161696
0.0854031727118546
0.0807591695288302
0.0852796410820482
0.0825674698199062
0.0845203720975541
0.0843831500325586
0.0834015244981671
0.0813948345846904
0.085192512360057
0.0824946508503556
0.082746013073567
0.0840783143838613
0.0822730904965045
0.0853794621104973
0.0836045688030784
0.0825018111320826
0.078082219231298
0.0829006872762016
0.0808866463949039
0.0849227285689873
0.0834441624629805
0.0843662706989005
0.0829986462956671
0.0813123274187365
0.0816353181263117
0.0833111440824845
0.0814132587376641
0.0824207288413956
0.0859932845874126
0.0822762388397041
0.0844345262128669
0.0800214979471565
0.0894109568205052
0.0832373341066189
0.0861761264688822
0.0837181957533155
0.0820265758647544
0.0804128640812439
0.0837478915958322
0.0824024254421654
0.0811593959704037
0.0805552716049535
0.0832757054236151
0.0841286739481681
0.0831571781869482
0.0810539934298233
0.0811420997027867
0.0822298293408466
0.081412539670503
0.085716476669843
0.0819681063394377
0.0835842332823492
0.0783202745179197
0.0838569867897978
0.0786815546445598
0.0843959166018416
0.080662224149628
0.0866634211699424
0.073692478462427
0.0906301523945367
0.0806435884326065
0.0825152774763252
0.0838383887827219
0.0792561884623906
0.0852307038183308
0.0811323358968012
0.0835480501346097
0.0828445002509603
0.0818361757744853
0.0829254599641206
0.0834817530557948
0.080776918293505
0.0841562047450356
0.0774700275689508
0.0853466313818702
0.0881617182066125
0.0804347542041954
0.0858586741277363
0.0789136794706473
0.0842786973675793
0.0894590554380452
0.0780633556878076
0.0867006867872781
0.0813259328441998
0.0861689943263088
0.0824205868617931
0.0843440116317413
0.0836786418185279
0.0867014310589331
0.0836159598795514
0.0851819315955763
0.0822513575769688
0.0832543215211226
0.0841024798058124
0.0868987612302359
0.0858551633229669
0.0842661423629953
0.0816962519722403
0.0870092663995961
0.0833946121092527
0.086049110937194
0.0844573259899462
0.0865371151794937
0.0852464857947457
0.0888840680652387
0.0867007761385284
0.0855478557908302
0.0883675281358596
0.0879290703484814
0.0832500139685755
0.0875911106885902
0.0846230549284634
0.0945439719968074
0.0807051281472703
0.0924090336093315
0.0900720828048725
0.0886292569825547
0.0945259729398487
0.087194327369368
0.0900337034652845
0.0862489062777357
0.0917974076911225
0.0856569538047708
0.0985364426107029
0.0831015424034615
0.0956860233636145
0.0853556034332678
0.0926937977161931
0.0903499557396519
0.0937901994324744
0.0900644398406341
0.0922550980747008
0.0863960950711552
0.093806141248032
0.0903338662929532
0.0894058756589923
0.0978302464902615
0.0924639187331342
0.0962930243535218
0.0932918495233523
0.0928012395438444
0.0984705618044513
0.091710420006833
0.0968049244381403
0.0909568908674541
0.0981032581369289
0.0933192867407276
0.0924970186790683
0.102804394172721
0.0941745910093307
0.100389443429719
0.0980837135513379
0.0950131216137659
0.105275474203543
0.0991634503801025
0.0992300422555455
0.0972111487860179
0.105266012921609
0.0898414190528806
0.116618599251431
0.0942056261088389
0.106902846296002
0.103407536349281
0.103389893056375
0.104900959902086
0.106394852506751
0.106363280756573
0.106341251989409
0.109805033223503
0.111270459741547
0.101904152753799
0.110053259751852
0.113569599077479
0.107959037879675
0.11679322648948
0.109430655166035
0.113128008056288
0.11762613102294
0.122235276029934
0.12216341410512
0.117636429723691
0.114636740810025
0.125886582341709
0.118388608583843
0.122785960083083
0.12163702356833
0.121238611081518
0.124840309328061
0.123826580561937
0.127183440758379
0.125721595919737
0.128529346200919
0.128959270783158
0.134024880498988
0.130487490202575
0.137000426794454
0.141213103399219
0.132655062836388
0.149358770548993
0.137963964512305
0.14726102490259
0.142571199660009
0.146244020733069
0.147272916544947
0.152750144885366
0.15440163090706
0.153126461223934
0.163411740971263
0.158849334214491
0.165706247552344
0.165596453081328
0.166449417132484
0.175544534481271
0.157602318398378
0.223074737679961
0.168553635593379
0.197529736421852
0.177061121642603
0.196263967358197
0.195725411216858
0.200238689662435
0.19757289497255
0.206218254283235
0.206261182185813
0.214871098738089
0.213169797870573
0.226901864792909
0.225992592907654
0.234005929682191
0.22365435059412
0.243935439843866
0.236267781395153
0.263878547139654
0.259416504510298
0.263308857577676
0.264694667676258
0.274790728810052
0.270793322684993
0.288957139547407
0.275765961958344
0.286906077019842
0.303856365631378
0.304155463135057
0.306348729835414
0.305941856414333
0.320475941315168
0.306246600959968
0.338154403553832
0.33279816132624
0.338102948215634
0.341397603877925
0.34443521976411
0.350553956121326
0.345216752978402
0.36996250473989
0.369569800783053
0.378593872992139
0.375926350547643
0.379364981477943
0.376414843154843
0.389408620508214
0.391812487982378
0.395121491565734
0.401954767015933
0.383080220354463
0.453853560170675
0.406992681202303
0.418543630180625
0.420752029186921
0.413274264120782
0.42967101281618
0.408574391625977
0.444103583820093
0.423976064068178
0.420860004766395
0.41975258047673
0.424370680358039
0.424225444101745
0.427918664999372
0.424870213745213
0.417437382758463
0.433609745112659
0.416090124145475
0.434633691673236
0.440104987124747
0.426586515875104
0.423460435177952
0.411669935688962
0.414248999027557
0.420833300602287
0.408969644022412
0.39834403855342
0.41232420496951
0.398043506324558
0.400492345760153
0.38801227367739
0.392491350373812
0.400462008503094
0.388787878835208
0.381229056757341
0.374977567465703
0.37584970294149
0.362815556735116
0.367259917078465
0.384264052795044
0.349561343793469
0.349425440913357
0.344823627096381
0.350212947632768
0.337540498463008
0.340600068119952
0.331494704775162
0.329508533998164
0.323805537942968
0.327459337101829
0.315476691802324
0.320157259880996
0.311722659778722
0.32321857294437
0.303051094812482
0.307349686907347
0.302462850254375
0.302033968739234
0.297103447623475
0.293062433856344
0.295660215757329
0.293576518124169
0.288614784087897
0.295215245531657
0.285312644804741
0.289931120039574
0.281820494396423
0.283035586615317
0.279729682745717
0.286126420826198
0.279531999808295
0.280401104277332
0.274429555530272
0.279469515821608
0.271509806233555
0.276242714971881
0.269579977926795
0.275510346041738
0.268762124188921
0.270312999457075
0.271287258714292
0.257905644171463
0.283003804609914
0.267643180299172
0.269594555906502
0.264331058939695
0.264457213725766
0.25794090686337
0.249440061805237
0.280364378802322
0.25658944485246
0.25889251628817
0.254625914920564
0.24950769469133
0.255625165132707
0.251476132649683
0.241835455297814
0.254598060280532
0.232470751675405
0.25950830514271
0.227374517603772
0.267209057446008
0.248470719342776
0.24816229120062
0.233203755376148
0.246441828154323
0.23996814290324
0.229672194113975
0.236422339564463
0.225115277416171
0.236589275960882
0.231680783981082
0.233029004097814
0.229369136894041
0.220916821533967
0.234626694754357
0.231967422380164
0.218789201425122
0.22784266009378
0.227914933017312
0.218821826037687
0.222537760255182
0.222667943701657
0.221914201855374
0.217178677199164
0.219347280503671
0.210528393326572
0.211282249465934
0.220572405816543
0.208507260511004
0.219880348503956
0.205803080515485
0.213303004121279
0.207882487549616
0.214127045312331
0.21223026010653
0.205149100452879
0.218395699570216
0.203791036960839
0.214912746971556
0.198107159249636
0.220083731676016
0.208865127528247
0.21566357459041
0.198283994685882
0.217586617916148
0.206246204892006
0.206650565607272
0.207183684288263
0.202119105292089
0.206072991821777
0.213465598737999
0.201132774500672
0.213385536947167
0.201753446925888
0.208271863574452
0.208780377061529
0.210007411650738
0.220044964603744
0.209365563475898
0.209507170067666
0.212961720220099
0.206198077462316
0.213945073337538
0.199142147969704
0.227084164593764
0.210096881893121
0.215624563883184
0.220953150905914
0.220028383788207
0.222525520018104
0.223375730694066
0.223176243267984
0.227003283994266
0.228143687795107
0.242395667220221
0.230554173182911
0.238233002368898
0.24607641199813
0.24754028525501
0.246043503896926
0.251873874683869
0.255110958370064
0.25856550873021
0.263368733803745
0.270823159721673
0.270489559981706
0.282165870635526
0.274714730707869
0.290769464485563
0.299594240909765
0.293928088354157
0.312077826353927
0.309732057605194
0.332488622433077
0.326056380771048
0.338035544388079
0.341740517094398
0.346077333614935
0.354166165567628
0.358661774087712
0.368237966576572
0.379818577684078
0.375491239822606
0.388434881501508
0.389216128271702
0.392628965195752
0.391339265981327
0.414081898778678
0.396202925377847
0.430711381423501
0.419964858837304
0.417575643767993
0.418288697399363
0.414716569976724
0.424282576678958
0.420952240489087
0.420998926304198
0.420776691212924
0.423424536643332
0.432382138280117
0.425365060006607
0.430413343223371
0.430545788983014
0.430481807304249
0.432349767300783
0.432586587308447
0.437239623843599
0.430725178195296
0.441171148316278
0.436793517178805
0.434323252076711
0.459345088409104
0.449953794933042
0.453315405417695
0.451551877999326
0.457235170101431
0.461558061801806
0.46707594303446
0.464139079948921
0.470303822156439
0.471977001383367
0.475401797833027
0.475521336639931
0.473667710015651
0.482761041193832
0.496003696537582
0.476348751897654
0.497888612331099
0.474739444155648
0.491594696982612
0.501009895231342
0.499094040203062
0.499949683764848
0.49740919181673
0.495837431332697
0.494571016997459
0.503098245846737
0.497855678493569
0.503210408804551
0.504403672585064
0.503483589005548
0.492297472149412
0.500565582540745
0.499711713870398
0.488881022339124
0.500069969614702
0.49410568603307
0.489087472094366
0.488811090859175
0.486719244993082
0.478257965596331
0.48659538365491
0.480728028036514
0.473366893100503
0.476843740933693
0.471724718923096
0.479923947039952
0.481179262734574
0.472417527717624
0.47129710365287
0.472027746667973
0.479264502927205
0.476904533294703
0.478615748259549
0.49558003064095
0.490288994345843
0.492132755830502
0.488668667600616
0.500857980504885
0.505164506967261
0.503466744730548
0.504593661167672
0.50979756280504
0.516266789970363
0.517620616341338
0.517931508239701
0.520935170369862
0.526722810163945
0.534248312551548
0.541072252788891
0.532867155408738
0.539186043924855
0.543315658714684
0.535779012588985
0.542921423961435
0.541477625962087
0.543110894115596
0.543139368787026
0.543181708586908
0.531229048641083
0.54323131572113
0.533492825367825
0.54293726461853
0.537404137509566
0.539011876088665
0.53274324233556
0.531125167028623
0.527907787526356
0.532457898324481
0.525445109654513
0.524099080086828
0.525257099514743
0.525192955495826
0.515350760008408
0.519821364676538
0.522848375197176
0.515229616970112
0.517407312954316
0.515215773950259
0.511419729642773
0.510787997588674
0.511612093940037
0.5231984394902
0.50811506255076
0.508817686640941
0.508869542422739
0.51585973119801
0.511473558443973
0.511226550650273
0.509703452219389
0.512229045834114
0.509506829880863
0.509500509050996
0.507206293511031
0.499074106569445
0.498009874347114
0.499960195501794
0.497745519887737
0.497519987800953
0.497195319961923
0.489288823811914
0.488261286078374
0.483603413092887
0.480417170887373
0.478511387887285
0.476922586354812
0.472794353072648
0.467607083788442
0.466197379209634
0.464524796628367
0.466801006505444
0.457875150010848
0.460397084724712
0.453131525929609
0.455935857734699
0.454219211585431
0.452388555698534
0.446383066089859
0.450561790534916
0.452568320820196
0.451571899108668
0.448482925224987
0.449990567971548
0.446731513703779
0.444770513397247
0.440858229222894
0.441214980864388
0.438973736643043
0.43269967968893
0.432943311412987
0.435468223325093
0.430514081745101
0.427161445706021
0.423360544309415
0.422681034035064
0.417470146099594
0.414267674516401
0.412786598580166
0.410352939229113
0.404451436413397
0.400733708510573
0.402030503458069
0.401979367145003
0.39978789330211
0.398646628241432
0.399214950231055
0.39393401776197
0.392964913394371
0.392864000977801
0.394089662017714
0.396378852287489
0.390563562208979
0.392300707511691
0.391271355420326
0.393435159323425
0.393252827501319
0.394362339484089
0.391964479477691
0.392763389298704
0.393706858556982
0.398175370610163
0.395044051307736
0.400021323858277
0.400265039290821
0.399330514904339
0.401522868217219
0.398391763005094
0.402632809568015
0.403173452329289
0.400873532030168
0.40629314731126
0.405294207688939
0.404739169742638
0.405769921455425
0.407529830162073
0.404974373580702
0.405640646740278
0.403065568029385
0.405971832757897
0.404368542194667
0.400256800303333
0.400985140539131
0.40462038219354
0.399019288209659
0.398763259537845
0.398705071812158
0.394361742735418
0.39917977961799
0.395805757727184
0.394976688542362
0.395635109252239
0.393167864548639
0.394409049684874
0.393078618403445
0.390489605856203
0.393442527609291
0.390776550674917
0.388862703552779
0.387465002942254
0.381417723834526
0.383443862064627
0.37864739305432
0.382341751481373
0.376791136515008
0.372791475562188
0.367084616243209
0.367216966937592
0.364240332118418
0.361729421879989
0.357124013658988
0.355072330492797
0.352535884178415
0.348969566703198
0.345025922968051
0.344946804916266
0.339785588866331
0.33772233381554
0.330778789145125
0.333872708602774
0.334378752360346
0.331821586495561
0.332604072906361
0.331686998594911
0.332500442904663
0.331907018954566
0.331141214355294
0.332981633606492
0.334882294756845
0.33607000791125
0.337603222232588
0.332803125531268
0.335107984407574
0.333119556010339
0.33416440677596
0.331425770562237
0.328226004233353
0.324980838878563
0.322254245844847
0.318458399135645
0.310670832726714
0.31052868832281
0.304651014884982
0.297646975840838
0.292907214871151
0.290677191025544
0.285710074942149
0.27889296306427
0.276366712813022
0.275583068964536
0.27137758393184
0.268081185500399
0.269771336886644
0.267681181070512
0.268449656685402
0.26924028585328
0.270156318619528
0.273692029789511
0.280853511298643
0.28321753866485
0.288442593711778
0.295957435605211
0.305323900249039
0.315505701368805
0.325650503840123
0.338690329034155
0.349644791728538
0.36696287999541
0.379857027998928
0.398438725239829
0.416260720267476
0.436810760658336
0.456126344450314
0.481148554350894
0.507400357274628
0.538197969995472
0.564482787288317
0.58932108485539
0.617221308870363
0.648359511369929
0.671129364591304
0.699415926371923
0.728995395432485
0.753446167116029
0.770088289277992
0.79023188439197
0.814387862164819
0.831255684263995
0.841211920387004
0.849680855901452
0.860488492038857
0.85534488955015
0.86665610657402
0.863737499595324
0.856225813129655
0.848850308766946
0.847391461952974
0.835801952034826
0.829703619706795
0.809758056583032
0.805323327373378
0.786091639537114
0.769290021435863
0.756477796377875
0.751571435488934
0.746753354067662
0.729871083746309
0.727592136819593
0.730595595976372
0.729737404878109
0.723958561810082
0.730095539427849
0.73258435074046
0.735218397258308
0.745574576970016
0.74783018250859
0.755420359158283
0.757190434754127
0.773307408023495
0.771905132643074
0.778829166169746
0.789426214204422
0.796844737298014
0.801420579525748
0.802487955032655
0.808309019549662
0.813987862618282
0.822918286759501
0.824663747448988
0.832810032821567
0.835670426227757
0.848863986279455
0.846882613638944
0.848588884178016
0.857664364806014
0.865453078449681
0.867342414787188
0.859163926745821
0.871883858505667
0.866531157689905
0.880905942661824
0.891188947379352
0.881331422820773
0.873504467233899
0.887971367425369
0.87754530236667
0.877452839013989
0.882534248194244
0.888692053414129
0.881155642519096
0.890370010583263
0.885856378073218
0.905994798158707
0.912823823177155
0.92544698914453
0.933027364795124
0.959454252291566
0.976722400956429
0.998714197913622
1.01349142803318
1.05627092154748
1.07901587780128
1.12749985051722
1.15184121192129
1.18236847350415
1.20864769554398
1.22599446903413
1.25097022320212
1.25598265785295
1.28207575380024
1.26461228978363
1.30669254912044
1.25244344873511
1.24685501381739
1.26156056087836
1.22557293840943
1.21202802826788
1.19154525623189
1.20054272207516
1.15511167311392
1.15837121249859
1.16370921990222
1.17631144393145
1.13175372802472
1.18636009991984
1.16916690961432
1.2175090806179
1.20586510234959
1.22131935386413
1.24662290132446
1.23641350355287
1.27234081917044
1.30262220721127
1.27871633091932
1.31454629866136
1.29859995439943
1.34292977633114
1.38232176040992
1.38954245529152
1.39056259613073
1.4361402130082
1.43697868303065
1.47400500008107
1.44896903562718
1.52473334958777
1.51699786460985
1.53406910660754
1.64575278118263
1.61363923469363
1.60464017960983
1.62905813623658
1.71279908968231
1.69994732617738
1.71904330436858
1.73205879366686
1.73155398371786
1.94926872522056
1.75904244733699
1.91489316568166
1.92750627963959
2.023986724919
2.02619005304127
1.97778337602173
1.93201862462204
1.96434901657684
1.91810408547788
2.07623668146619
2.11886534114507
2.1285851798874
1.94761976551423
2.16172466164089
2.11995713017399
2.4023555336554
2.03138050613055
2.15765910097162
2.14713729570747
2.2840807925677
2.13577845317901
2.4315586485591
1.91789148212537
2.09412020700704
2.05492779452926
2.1269901007168
1.82843989270458
1.96648467011343
1.92896210091678
1.89903656884355
1.76776689782404
1.8800566406145
1.84163275357442
1.83583174771511
1.77541085096974
1.88350907093898
1.9188942211399
1.83973803017211
1.76505861004465
2.02969269020671
1.75918437204629
1.82016104593268
1.73927338007965
1.69255195312528
1.65624253044395
1.66637668893747
1.63383215051992
1.58379667591833
1.52552303488651
1.53002776145789
1.41756613153557
1.40891753788833
1.34613367880533
1.32046182908635
1.25761092133451
1.2123893326988
1.1478978469424
1.1439789484249
1.05458088855979
1.02274218919961
0.965096059487093
0.933704369677935
0.886383496183403
0.862425132117586
0.819821162258359
0.800964583521966
0.760551643517388
0.745699016440584
0.713913268520816
0.700104329235219
0.665632617424116
0.660675261550408
0.627330180945346
0.611228710878273
0.585188580804758
0.587666817467989
0.573686418874776
0.565191818082612
0.553159928931343
0.552095867651568
0.539608563337967
0.537581618315828
0.530345376348462
0.525177916022165
0.52658089522388
0.52109798775886
0.517683122821865
0.524729337708765
0.520835939531043
0.525114459384349
0.534398025300481
0.538136537756487
0.537382747123648
0.552505939781197
0.555409081542015
0.56201489825705
0.570428576688971
0.580080266757824
0.585526291279447
0.589470776568745
0.600172618372906
0.602669944835003
0.610976554268197
0.605943112686457
0.606304975352062
0.621303057283204
0.61156373669363
0.614383055587585
0.618250380273408
0.621192943265733
0.621553269218378
0.628654791987355
0.621494092092698
0.611715500927239
0.615853787989842
0.62544995646574
0.624052947767293
0.618347035103742
0.611870398576568
0.618117568995453
0.599745870166428
0.603162911714504
0.601684791453141
0.597560325547029
0.584637413335644
0.58810053339935
0.587430217487629
0.577584650407301
0.566487203955792
0.566039405431417
0.55921311478815
0.557656789472078
0.54507130575861
0.550008681890067
0.553012475220696
0.570024553471479
0.557011655933631
0.560380088137757
0.561594358146936
0.560517364382293
0.557766360312222
0.567457262719677
0.564894151213911
0.570103690497769
0.586290774622901
0.581409377580804
0.581576250317
0.573061954280833
0.572999154013848
0.571872425498749
0.5778100871255
0.569792187883095
0.56283995595135
0.553998981030521
0.541690901531469
0.543238485203284
0.537543094351132
0.549483917109284
0.535349143533097
0.539323587424963
0.535527380546134
0.527422706770562
0.53533948087238
0.541892534453272
0.529891104356075
0.543937967643962
0.543051967628208
0.538082319773097
0.535271377130102
0.547596431399096
0.544612207122706
0.567266682683532
0.556920864271055
0.566568642157841
0.572340988455215
0.566666356872994
0.569298809033182
0.592593102067692
0.597645779345368
0.606151092495735
0.595499312700554
0.593900334870643
0.590335911931702
0.628282228254277
0.590515383218483
0.604034078624875
0.617703023894188
0.620158524730042
0.610339209990113
0.629599668838903
0.612379314429362
0.624181193469735
0.621470677288589
0.632694214846454
0.615287426852805
0.6327769556285
0.617902477134453
0.625373287224202
0.625400516068422
0.623554015201187
0.646466258201002
0.6360344554504
0.632782685935991
0.610815754606363
0.624045647230526
0.629944196036541
0.6201948911899
0.627755300795137
0.628522093575397
0.630812189616414
0.600917997261161
0.623589020997424
0.610048131002892
0.605368238704542
0.59520018614778
0.60316789070007
0.582543283758324
0.597208877346653
0.574137052928778
0.611567296947795
0.585222096807071
0.599654774856806
0.591057181777799
0.605896782208492
0.59889182684713
0.599911126906375
0.592358061815263
0.597100937267721
0.590395845636562
0.607557417628757
0.577348155578025
0.620146171769504
0.607256618859072
0.606395901036034
0.612168212491942
0.625435892062329
0.619833792652144
0.633041781281132
0.615006732965123
0.627053130352735
0.608045424460797
0.649865483397519
0.61258904235524
0.650636956946017
0.618370863245731
0.650107544560437
0.650846887309392
0.66066069040949
0.647152142843161
0.65380610453013
0.672339101394518
0.664449544651878
0.689651986341553
0.69111717986138
0.709708953169402
0.7277582643921
0.69725974291068
0.707645673491473
0.742098741956087
0.757042281831917
0.749540347869679
0.772556844149166
0.819311806262294
0.77815673975447
0.757027530367353
0.78668036111038
0.801856219828554
0.867678092377249
0.761787279345257
0.821109681513747
0.793388064321068
0.811346836001405
0.772689571639731
0.847264314525059
0.855571085369544
0.837872746630298
0.821752062207593
0.921908009597449
0.835498069073574
0.879956595998913
0.809326281985083
0.890708539150535
0.851249387892647
0.919876617030842
0.837410627765566
0.958295429584213
0.904400370286246
0.923515406914312
0.85814697541929
0.887333034381235
0.868085518510628
0.918376912464821
0.903285498964618
0.922346180764224
0.836490576131064
0.931727449351271
0.80404769701919
0.852298814844112
0.844334226888882
0.888181323121518
0.878600375909202
0.824093224763546
0.829247057083106
0.9367947988973
0.892500973551809
0.848036898510631
0.83146083916853
0.884102932010708
0.854271730846745
0.911776194735383
0.830073469462217
0.977138119399849
0.827658012676723
0.89760075556479
0.871822058394862
0.94003437999964
0.774412009465819
0.915473111158058
0.820250948965592
0.996691987597346
0.817705160184603
0.810559508633038
0.867744755877771
0.824805467695875
0.830670993362597
0.970625139111396
0.88052654840336
0.933283504075142
0.840235071051602
0.998898222624867
0.831680732188035
0.97142733783668
0.90136013653433
1.07370857950343
0.845951599879191
0.902251488813391
0.847758794746426
1.02569294172938
0.963071778283015
1.04217726892976
1.07205547010794
1.37671082736319
0.962042816838697
1.07618337242558
1.13215362988723
1.1980789429998
1.03402111052256
1.14789928803902
0.870683119049986
1.26815978314589
0.945304500531751
1.4390102888765
1.16278342369051
1.38353263680895
0.969855425411741
1.67940921535151
0.95553502113607
1.0425861746335
0.836953109757116
1.25926414004123
0.977912052178392
0.995358996433789
1.09207496524285
1.14947549209807
0.913876397321537
1.18577066651314
1.018483220545
1.47434090909374
0.86567384632226
1.85780711657719
1.45611403282064
1.21813970758591
0.99067238700979
1.13869075875315
1.02596601693271
0.91561113425198
1.38975318454958
1.23121964880349
0.891508531067674
1.19314752648705
0.904292842420042
1.83003377448472
1.69287028424676
1.88180473742805
0.786403381981207
1.46001256800261
0.911736848803623
1.78072290748044
0.875252939250641
5
0.626137809665377
5
0.843372113453948
1.14606902602992
0.909320834167499
1.55095854084934
0.740928101720437
0.921314444414268
0.893669321689572
5
1.05956222017995
1.85846951284466
1.20015013594518
5
1.61401241629058
1.4746341519822
1.10557433439607
0.824933876266716
0.90264035145271
0.824097515826714
