3596
4000.36533379555
650.420452594757
1
2
2
0.0459950177419578
0.0430527893905491
0.0508628489063993
0.0430647082407783
0.0437801949877633
0.0389432950007326
0.0535708943479019
0.0475441184156951
0.0414349703028465
0.0369137446515736
0.0432810963414888
0.0477652964897057
0.0464361839425068
0.0397303982884549
0.0463699674266816
0.0436789859029253
0.0400846780024907
0.0438372701676951
0.0469440527011308
0.0404188006406319
0.041102112437933
0.0405991795102998
0.0449113919413823
0.0398489097262104
0.0464385910016108
0.0424693870488055
0.0456921023426702
0.0414152672376563
0.0480862576339066
0.0402591442194686
0.0417577995719982
0.0459969397802289
0.0469909473222283
0.0389286167124127
0.0468876268001625
0.0424710009516275
0.043104533497357
0.0436500673329027
0.0437436572735802
0.0442385784490687
0.0545804132714015
0.043988230100234
0.0392846916525078
0.0432187299374422
0.0503369444154975
0.0422948447961635
0.0443636520386738
0.0453109735290683
0.0471483412572084
0.0422624571635501
0.0462497773419082
0.0392040682303748
0.048658087490655
0.0464948163587668
0.0416397122668397
0.0435121182950048
0.0470334964192221
0.0404496994240016
0.0461701542487371
0.0410830333095056
0.0511072727137574
0.0482548866965194
0.0438682523193336
0.0341881098399133
0.0435847725739179
0.0414201976773352
0.0367505864592065
0.0371355093065701
0.0559784389182798
0.0487175568428254
0.0458911058163892
0.0485508478353871
0.0479725804777003
0.0393922290121819
0.0443164905987583
0.0417023239612728
0.0438559180853252
0.0344628966067769
0.0396944219140184
0.0435252082759423
0.0476320691610148
0.0387765875008126
0.0420661878103728
0.0350228342279596
0.0422492653676842
0.0434102268412191
0.033821707451754
0.0299022330743581
0.0457898217319679
0.0472901615656256
0.0406530960499213
0.0314486029532618
0.0404060512787343
0.0409253505207988
0.0388289554361598
0.0366812624148781
0.0427245964728734
0.0408135726186054
0.0407663676590083
0.041530060022884
0.0345317149770761
0.039979173011838
0.0540745342601033
0.0335763398638311
0.056137685840281
0.0458783137484202
0.0396453000987577
0.0417457080258749
0.0435821855908596
0.0421241420775129
0.0451258657867961
0.0283057739558071
0.0363446563184379
0.0429459354959459
0.0334323566016895
0.0343776013687904
0.0494919547398867
0.0374146702724611
0.0427674038263641
0.0373841941208537
0.02369084361307
0.0472795663961996
0.0561838865936405
0.0341470071535259
0.0358084883071404
0.0338513907318695
0.0293825838386263
0.0448101896808151
0.045165783275714
0.0419196783821193
0.0402229228697567
0.0374864394682756
0.0325895261576945
0.032760380229762
0.0519292672134357
0.0437094277420142
0.0364226242208246
0.0204434059981668
0.0279999863895611
0.0534894867914578
0.04854508758433
0.0378198606346845
0.0269402079738079
0.025842644736096
0.0553481578508567
0.0400904295100047
0.0334661470652056
0.03065445682573
0.036069378603597
0.0375145239966195
0.0351260218065031
0.03028183193187
0.0481908766258988
0.0384125411023527
0.00774418196306075
0.0376872862311226
0.0513399474402654
0.0501918749857252
0.0481354392914132
0.0398967726044938
0.0389530373657918
0.0351692579418658
0.0352451106229616
0.0392549637378404
0.039918451886422
0.0302778919840219
0.038419325489818
0.0410139351882949
0.038612989867285
0.0286692421896095
0.0446826828953091
0.0301711714092849
0.0333661331983477
0.059116848746725
0.0411621024300363
0.0248666572163141
0.0497846963739592
0.0460438242755368
0.0297759981638388
0.0390518856122232
0.0496320777573458
0.04076269294315
0.0336983841113339
0.0345536027881465
0.0416471394735115
0.0443024731086437
0.0421762460965377
0.0421535901752353
0.0338711557557841
0.03090965061003
0.0372718128113799
0.056078239131759
0.0473614327209767
0.0403790087882371
0.0339131339873925
0.0155424300532932
0.0448127851271125
0.0558914340772932
0.039509455709351
0.0318473000173153
0.0414789698327606
0.0359238456051518
0.031869690933125
0.0352204583741607
0.0247468306196162
0.0257039913457742
0.055206155573545
0.0406574252039369
0.028941392821582
0.0330319977892665
0.0269132370991418
0.0206663586577555
0.0520200014106941
0.0475541951747303
0.0421229079335436
0.0374664849470946
0.0411410234280767
0.0418985774028014
0.0483944513313473
0.0460561476129316
0.0399940116786432
0.0383138003652884
0.0399628119945864
0.0381767082422454
0.0394565432619491
0.0357068105954947
0.0434567975533655
0.0377421364459569
0.0385246752579829
0.0380165280211695
0.0409445044065883
0.0405260794820118
0.0382841794782413
0.0326084972297423
0.028197105961293
0.034347897753321
0.0521804506210137
0.0416135131611973
0.0342184666996572
0.0348499339065097
0.0412681687298171
0.0440155249696699
0.0395606253366551
0.0428531377437744
0.0326612007706273
0.036345975495707
0.0572936632971676
0.0478098621141637
0.0375238207960505
0.0311522341890557
0.0420928256265087
0.0500576176681265
0.043309408694699
0.0338377020175283
0.0466963599832104
0.0367029799974707
0.0384419815833002
0.0498281397693055
0.042927682695993
0.0359117063767122
0.0518343638955797
0.0422021621132809
0.0398730866014436
0.0237001569372861
0.0321475031815618
0.0579005752067583
0.0370918467929473
0.0246944248309218
0.0698900110808917
0.0488222695444893
0.0460069387713501
0.0284874366760328
0.0213949058566354
0.0796330906492066
0.0767872866253289
0.0411176150420491
0.0451259170171405
0.0419939999372819
0.0376859086114277
0.0427402400775274
0.0378335321323252
0.0437486717577354
0.0309276755462801
0.0463537256793246
0.0613851866212688
0.0416726818119965
0.0489518597352331
0.0478145501139803
0.0429136343623489
0.0433399958695039
0.0384086523921615
0.0296862399495066
0.0528258737109912
0.0480334221027906
0.0531846420289308
0.040847176509218
0.0392873323037281
0.0479536761773694
0.0572964681803022
0.0428255703684144
0.0492964009084249
0.052599034468937
0.0531049859137867
0.0385956537859447
0.0454345646737466
0.0457487260386326
0.0445783970622169
0.0375490353015211
0.0651989502755602
0.0482675569532094
0.0493216896900145
0.0642906240014736
0.058512610249666
0.0479257931694144
0.0523907448426157
0.0393314847849258
0.0506204725094853
0.0434364222918386
0.0515349004171611
0.058539542957098
0.0608204635020128
0.0518642244946292
0.0561798973840262
0.0515149119824177
0.05297528787195
0.0456017742031074
0.0520881680006378
0.0514999458082378
0.0482671431732185
0.0421169086490674
0.0663851731625249
0.0561047348744371
0.0423397881800921
0.0619600893526301
0.0610040403539757
0.0518466685934859
0.05946479003861
0.0535801245320283
0.0575672721614623
0.0595388161718722
0.0612036776719472
0.0595806276414664
0.0575721830782297
0.0646990298222641
0.0731783200269231
0.0599764326404647
0.0567695498994057
0.0841326484316939
0.0895555616291275
0.0813961669322809
0.0626842589478713
0.0540936251116087
0.0854325729659149
0.0734043777907811
0.0892090145111472
0.0826621538644195
0.0798934218074663
0.0728497366103146
0.0803946467782435
0.0727080922841856
0.083197619441286
0.0763179604770798
0.0839511586757781
0.0826791431881687
0.0858470907919802
0.0858192375554005
0.0821963361393716
0.0841761004594849
0.104116716262982
0.0950651019282218
0.0950611822100459
0.0880881480374697
0.0917456568210478
0.098936807110923
0.106879320134778
0.117658890299922
0.11018636995735
0.114333650646604
0.115028625614392
0.106438429463202
0.105677613093437
0.111367931703259
0.110242877576162
0.116947337814752
0.120879055853107
0.11865433390525
0.121516364337201
0.120054564225001
0.124907941436015
0.132272895270766
0.121855385172763
0.12675595065912
0.141052357642233
0.140372690838529
0.137705328666658
0.127987627325525
0.140398309168706
0.156876053118737
0.15593778713238
0.143902244899467
0.154842144668309
0.151344043759636
0.156488212205123
0.149015133458045
0.154219493954294
0.151996266137219
0.16673671936147
0.165501066107826
0.178696002977463
0.190124950864071
0.172801731538999
0.165079416090559
0.181720195787252
0.176321867554348
0.184626069288851
0.189953156185829
0.19033799220422
0.187866340568815
0.20008773678757
0.187636161335277
0.196977314129072
0.198551137439665
0.20447971317214
0.195774889709756
0.21549913932966
0.205601034022844
0.215991089499929
0.224877364515255
0.220744075592008
0.214356397208789
0.221520939652681
0.217607612493963
0.229170170785046
0.241707611195274
0.227303870866902
0.226164650032082
0.239388720964697
0.24041790546079
0.250513184242668
0.242163345958751
0.260813395432256
0.24869245659953
0.275106069697208
0.260310239635022
0.270399877686301
0.261980956331654
0.273141387794644
0.270076782998847
0.276348461835533
0.277683437487378
0.294842827269666
0.286942561056242
0.292156833844231
0.283341518211315
0.302387964179121
0.292441817456577
0.306413055524965
0.297016265515634
0.306819897571522
0.315968959477931
0.31647875253571
0.309680959499036
0.326640277773226
0.334929080173923
0.352572736961585
0.329283845419252
0.347384925202404
0.341924247413433
0.345092006062928
0.325042797745633
0.349557863011629
0.364131551591185
0.382748109721937
0.357154289648496
0.380710418560145
0.383249611354715
0.377453434923572
0.369834232293987
0.410136039190091
0.39373980953337
0.404355597644576
0.392113209081232
0.396660353120714
0.393750992886385
0.408084221117853
0.416196672087156
0.420348005062825
0.412243313250722
0.443570618426862
0.426811940393168
0.436290874091109
0.446541963688516
0.443930390281726
0.438516301323381
0.457925481434338
0.447319262410339
0.475855028874635
0.464728463783021
0.484918223666356
0.471825899294105
0.474364836724494
0.462579399870354
0.495147406447284
0.474507277312886
0.493177029248396
0.493146304996902
0.492472000585159
0.513094806150208
0.521738129404423
0.499905040082157
0.530674744962847
0.518258205974688
0.529125241772486
0.535023256592783
0.550561540246191
0.527122314380014
0.550724778875006
0.52838195031467
0.562671395343226
0.55878707242647
0.560069006961422
0.562618444436068
0.583311834946028
0.561226188032789
0.571079192687018
0.581222515620124
0.605292876034219
0.597192626439543
0.567625329771908
0.591036588324409
0.615755672844827
0.585049360055219
0.622340562799115
0.616710611015984
0.625477275875325
0.623948741906629
0.655435385181213
0.621130588356928
0.648945320534649
0.659447678315577
0.702981068737527
0.647853118002304
0.676044723287069
0.671412950938249
0.679067548573226
0.668297402108778
0.690579267606815
0.686617371631411
0.69397423095034
0.67110144001528
0.76027168099289
0.709397633147379
0.705670876493569
0.698582122949165
0.702394583780404
0.723807006332704
0.741301247861965
0.70227080054642
0.741874408303559
0.744203992452887
0.736342709455193
0.689785466812535
0.71976305280068
0.754922400049324
0.818675854041604
0.755660931876464
0.808112400964538
0.746587680472981
0.7686623190294
0.768502469924824
0.805927074523903
0.795525385059009
0.82751066980059
0.821970674198899
0.82785896178312
0.757544296322786
0.816352452383073
0.826071703946925
0.860583047717719
0.806817457996413
0.868591510539741
0.817302851917241
0.852822926103869
0.846888342334249
0.839160794657336
0.872980492777547
0.877686381044981
0.841536104553075
0.889277142020801
0.867878094882746
0.855089973523972
0.856839167444212
0.899485549363854
0.881478009057656
0.930771666057471
0.874676259944902
0.878061972090515
0.888581274247568
0.932967328930919
0.85067438609112
0.950856738296463
0.919052478718124
0.919298017386206
0.938542778242002
0.977168602610533
0.890767600506868
0.945850422668673
0.914518167690424
0.97426330182831
0.920777701213943
0.951029555042655
1.01746924579673
1.05119872632992
0.999093341317332
1.04076821115695
0.978991567426603
0.996633906207893
0.947108398158325
1.04480073071544
0.946173156430481
1.00141680396255
0.993817446287455
1.01388976649115
1.01966818164085
1.02868882830329
1.01437140251786
1.03044445761427
1.01049885789834
1.01887958614787
1.02628848000768
1.08931882305279
1.01170969428173
1.03497016413782
1.05495788856351
1.12201965687679
1.09496033467047
1.09163196821384
1.02224661174171
1.08611757704028
1.05722468875281
1.10741867490695
1.02735278045068
1.03158378394729
1.08453467665545
1.12417176960169
1.07349498693079
1.07490486780108
1.05296269499326
1.11542708053979
1.07023869775111
1.15115023046205
1.05327190317663
1.1101423414501
1.12076342785689
1.22681189631697
1.07133475927485
1.13335560724108
1.11654906755215
1.16393557291791
1.18211897022947
1.19056952714841
1.12311724543719
1.11419904344407
1.11162659064151
1.19623697352879
1.14369310791372
1.18105072297111
1.11849058318637
1.22069659046833
1.20069756793212
1.25015649909328
1.13910485292346
1.14058420325478
1.12308007651446
1.17368615587348
1.12935135883782
1.19339323974684
1.13844972354287
1.21972973372798
1.17495458298797
1.25057852084943
1.17317352914729
1.26416722833924
1.16873099692506
1.26229208016808
1.21806591442581
1.30060711392293
1.20071955532807
1.2011833855454
1.16912437778867
1.20106154906556
1.27003824671685
1.32751504219343
1.23043955840155
1.29587397181018
1.18773943268693
1.23708655735858
1.17769912595765
1.2898224863522
1.23193668564551
1.20082828284822
1.20713608487428
1.23127193026897
1.15774331652241
1.31944225148047
1.27596396696634
1.37997723856033
1.19162709443862
1.18891927432022
1.16823508334724
1.27860792093658
1.21958872133098
1.20755504836594
1.22171530862878
1.36293610373796
1.29898652936065
1.38478684666669
1.23962636071056
1.26089706014656
1.23047240345928
1.25666524945267
1.19999357836857
1.23054058276663
1.22693762054716
1.24514753846574
1.22073250514314
1.22173443617669
1.21352191571525
1.36513978433301
1.22980614479284
1.27164334770172
1.25579983164457
1.23626749234309
1.26483155231946
1.39199892625362
1.23982148610976
1.36675584250464
1.23176083069172
1.28841046642581
1.25460691044233
1.26778813118618
1.20372854020129
1.25532792884445
1.17418753657677
1.24274481002855
1.36745716502662
1.25120715923151
1.27106113986392
1.33715907336547
1.20228219934339
1.30683953449188
1.24055704353136
1.26993755302888
1.23472240093585
1.36078732786947
1.27114172573618
1.27456365355341
1.26010124486164
1.26769008723051
1.2242282764969
1.2993419216441
1.32818797802533
1.28113944514135
1.25598055432671
1.256400199923
1.22628601193728
1.25400876880552
1.23776070800365
1.31219631084198
1.24679612640011
1.26201515190582
1.22134291457231
1.27124956288396
1.23616311588765
1.33807347426206
1.27356319219756
1.26399099518116
1.25570788948786
1.25243701279381
1.1844533963984
1.23905066510608
1.2593819537041
1.27706329443611
1.21145315546945
1.26639963963677
1.24549926216986
1.30506208875015
1.269456266491
1.27300995314337
1.21868099442834
1.27249064876626
1.28583759119009
1.29317783280474
1.22811927566128
1.26273098914647
1.16991665132092
1.2331350996791
1.20004739698737
1.27243269084093
1.24112832538231
1.22885995023537
1.18563889656755
1.27655903782424
1.26286280878463
1.22039695815741
1.19167286190126
1.23952706696075
1.13884677676905
1.25415882620483
1.21471065426549
1.23380242379009
1.24665906890114
1.23718840157686
1.22532624826555
1.28282531616112
1.24456320380747
1.24249621076443
1.22262737354622
1.18803673845225
1.16329251864662
1.17961096071164
1.14503464390247
1.19898048582696
1.1759928655116
1.21003171900392
1.21405151988926
1.21080308555796
1.19323469842908
1.24764149307086
1.14741752159898
1.16571272254809
1.21716878567555
1.24071548496117
1.16236383440319
1.16957391636441
1.15632944669504
1.17837024858481
1.15988680162085
1.13063216956749
1.12105068988215
1.15937843599473
1.17937548107927
1.15102754267434
1.09197998466202
1.1968110562979
1.1646280573678
1.14944193426718
1.12976235966384
1.15222267621263
1.08534716119133
1.13054164524169
1.13827461353873
1.13332322724047
1.09908065569884
1.12820129301419
1.07090625140288
1.14780280395438
1.09649198784733
1.09656540008063
1.06574953343968
1.13076522706669
1.08806007999479
1.09988017947171
1.04705312007151
1.09746179725335
1.08408973866265
1.0975900521985
1.03738668746098
1.05100990053526
1.03961686302762
1.09353970447396
1.06350691841418
1.03112446592575
1.0375638256059
1.05463847794829
1.02690231837918
1.02834130551995
1.0110107188851
1.0240915269097
0.995635754190293
1.01855949369023
1.00410657977994
1.01649189084524
0.94877106520382
1.03367791875364
1.0156350536563
1.00474362907919
0.984393792292789
0.998635950628233
0.963810760585577
0.982503172138889
0.963500684419315
1.00187348867621
0.963963133784261
0.968751483816394
0.946141784796524
0.989650129474329
0.925097576847215
0.944754693312316
0.944007004354441
0.929660363598771
0.920559550910271
0.935084717702161
0.913667071541526
0.946708087844591
0.895497892535062
0.91114907340196
0.905837104171457
0.913284996437509
0.887631914745047
0.908750763202148
0.87570094197604
0.905336030556345
0.891216859520259
0.877402020624607
0.866806555225563
0.89724136886084
0.883556400378804
0.870340668601378
0.867851026046187
0.868030905241687
0.839531741416189
0.864267571327987
0.830417575185932
0.835453096535647
0.853936357694651
0.850814873661658
0.80911785142936
0.828846900540101
0.819827904456881
0.827362376886114
0.790622955032837
0.800505358680878
0.7978654602519
0.794030294974617
0.783784145879627
0.798218320559614
0.787124292109716
0.790551182033051
0.776675110551587
0.782444884455051
0.750118957550116
0.760108765400633
0.738470267541482
0.75968489610431
0.753696268405883
0.754171384185958
0.745714574446628
0.743479762018268
0.74445085877066
0.746252780940544
0.732599066230623
0.731132003453642
0.725780749833509
0.740572578092068
0.703010768770457
0.7239702630971
0.706611980817045
0.698175077425291
0.691730254415982
0.707472963509784
0.683833713121864
0.698456628801818
0.671347741205241
0.692975820803228
0.679733992864434
0.678234566832987
0.68056814100061
0.686045478729511
0.649265806565452
0.664865820132838
0.665715292713076
0.650569624679382
0.655040319241776
0.646773865460759
0.637928416219105
0.647493101348603
0.626935821187319
0.636811290740961
0.629404919009816
0.638019758703534
0.622817126886125
0.62840816028724
0.613553117716617
0.617300276272349
0.616915618327121
0.615501182835885
0.594825346352965
0.621630246131583
0.599997905390398
0.593419808299723
0.592813317008966
0.589293900894489
0.583923364128591
0.589217118902073
0.582705714080366
0.593644376603927
0.568264480285156
0.574984187284625
0.569770416040523
0.571109802290499
0.56529606563324
0.564522040568408
0.553624080746191
0.562833301511921
0.55448740264047
0.553825153827961
0.543868480054011
0.555730632950381
0.54230373493904
0.541274185574809
0.532297609078312
0.544709538676722
0.534148343707999
0.529522264850745
0.518121004637204
0.525918757635392
0.518256828999355
0.521695373718627
0.522987482978282
0.519921585729457
0.506494761652753
0.513571246094917
0.500419886236797
0.501693126358236
0.500184446608399
0.500707537798294
0.503402727520381
0.49372582653064
0.479237000029872
0.48461426137327
0.486348134882884
0.484522547657517
0.46711945755176
0.473696754005543
0.468843093362307
0.476995865715664
0.458700568823643
0.470943023197071
0.472736751423032
0.465294231052957
0.462173538162562
0.463346579227202
0.455775517542353
0.454005290464689
0.44860366032085
0.451686857631541
0.442714092338372
0.450850180752589
0.443248517481949
0.44551592577691
0.433494068667765
0.441141440347221
0.436382406099214
0.438543645271853
0.427501003243544
0.431500975783108
0.425013026991832
0.433566419026457
0.42597638406287
0.425122410800553
0.418089160851787
0.41820733873875
0.405544889409289
0.40943956178307
0.407658952166693
0.411351325950094
0.404743691521473
0.408096282574496
0.402575602847376
0.410996311773506
0.404021378611366
0.408348841357167
0.404488495867011
0.403509376442046
0.408162383874346
0.405336722438258
0.397859624228418
0.402632867137829
0.390075176755115
0.402765773095964
0.402631841188081
0.40426698280751
0.400864944663444
0.404978367442773
0.397852914082479
0.40167540005318
0.399500419273117
0.404100101207429
0.393440549269021
0.403038114851627
0.39542751735783
0.404239171514365
0.405827334977363
0.40699208977347
0.409031763024098
0.412216260306236
0.412236662371826
0.421262357246207
0.40739924639302
0.413720771452445
0.413728720701509
0.421636918133745
0.417612998353542
0.421472777431965
0.418900679436516
0.428662724867859
0.421981847412548
0.429587355249497
0.426071802447202
0.436096111312131
0.432046812595166
0.436633074553317
0.432721353001165
0.44166190563212
0.440098265627211
0.450061479465375
0.448816708769541
0.450144194281711
0.447391390298447
0.453359598013833
0.45362486173062
0.457687420618597
0.456450194867377
0.459631097314116
0.460229420425988
0.47638488386125
0.46844493402847
0.476996710618931
0.473880442314055
0.479264599491138
0.485604085048083
0.489366627861869
0.494302443249799
0.499767058245712
0.48948948208694
0.49901910930211
0.496981441463452
0.511858049773006
0.509198203577198
0.50722924367428
0.517224016088775
0.515923680711255
0.511822346016725
0.529367264152934
0.520382510064409
0.532880969022787
0.528527427395544
0.530110239940232
0.52108014940875
0.535302475767875
0.529637424201547
0.538579792934185
0.535091443499488
0.542817426188041
0.523294893207101
0.542888728768438
0.53218152589023
0.539292106007639
0.526696239927929
0.538508506670714
0.53343122383432
0.528103930756197
0.52157685891827
0.520692005256846
0.518235609051678
0.536529494886569
0.53549081992765
0.530379733132433
0.519768859145991
0.53472034859284
0.531212205106515
0.53521561567921
0.532989408430313
0.529422085189094
0.521961278987013
0.529056722293661
0.527565455797594
0.534535338938725
0.529666228454119
0.531893926315488
0.536648550009117
0.533671467380636
0.52925064703998
0.531406542662558
0.525684399136782
0.542838427122487
0.524381060168246
0.538713577401923
0.536428543110878
0.549212998090266
0.533391111693999
0.532168337066879
0.531525870247142
0.53198463649519
0.533707688839384
0.528522186882528
0.521976005403314
0.538585556049778
0.521990662573813
0.528519380050604
0.528453775686458
0.535659679870634
0.523629433175674
0.529239033237739
0.526072693476973
0.529613991287971
0.523243979116616
0.525779070885961
0.512337036354501
0.519487600419292
0.50451642748613
0.505149742022935
0.509829661343339
0.512163593465445
0.499919408421666
0.504363228726548
0.497804033459272
0.489279532620343
0.4850449534519
0.488112196449421
0.483806718459685
0.476663697043153
0.470143160083817
0.477421458227716
0.471470735191453
0.463196569623667
0.45667651575124
0.459886513719133
0.450807994293808
0.455190509905949
0.448663115590169
0.452715736096697
0.43828949275075
0.442066201297144
0.433545640928978
0.433801509300575
0.425143703230475
0.426120598588256
0.427191152295627
0.419872097706005
0.418005205517354
0.418278063101696
0.409001392800803
0.410337765806454
0.399274466068443
0.403165522311477
0.398978756077374
0.402789075860883
0.400115293247544
0.401439880413822
0.387885506368675
0.394662294182492
0.386622208502668
0.382861119718976
0.381896265768975
0.38551466162838
0.38014691486322
0.38201853539798
0.373280422761007
0.380382533066464
0.37033888356901
0.373926109894873
0.367198984066211
0.367768939811037
0.367304414193841
0.375489535407103
0.358162291107433
0.361622899144073
0.36286272269851
0.356026187548278
0.35246117400878
0.356235828876057
0.350296316331538
0.355980967506856
0.355038900769308
0.353634422196255
0.344697309739847
0.347682152195848
0.340741309750448
0.345204032470159
0.338494491553138
0.343518346532145
0.3393548488094
0.338706182635593
0.333379981504234
0.3383274668637
0.330720675447512
0.337333750139805
0.333671854319831
0.336229170427826
0.330283854718273
0.331053809282969
0.326868644294177
0.3281150708048
0.327278303011839
0.325106677373382
0.321875777880761
0.319045460482118
0.31531409051244
0.320087548308885
0.316689821485395
0.316086819574821
0.309527887946116
0.317936001879432
0.311886021975743
0.316400348576536
0.310474045462185
0.316233080647796
0.309543708595796
0.311233382837263
0.30656449767474
0.310957774603751
0.302583361529908
0.307156216076102
0.30481306862614
0.304289886625997
0.302641270625054
0.303582451261055
0.304095859625464
0.300303162891094
0.299142779919229
0.303840672617199
0.298492051357734
0.294916234673064
0.294576518593859
0.301713667639189
0.295454854997019
0.296375652172933
0.292101883841613
0.294293694661647
0.292735689764076
0.295125650157764
0.288031604609638
0.292460965997749
0.2904762865295
0.290662938096033
0.286426180612955
0.287210990906432
0.284362625991247
0.285256279096047
0.283295747291323
0.288174322169423
0.28324406532735
0.287793929201526
0.284584567639987
0.280890759225282
0.283413107103757
0.282465029875094
0.278175580259428
0.281170000287272
0.278421105904914
0.280786987557058
0.278686641246018
0.283830990139026
0.276109865493908
0.282189046589578
0.276453956845935
0.281276055207812
0.27686916487169
0.2771409858904
0.277447598446853
0.276043890682645
0.276758809748327
0.282372665728813
0.279203938622642
0.273368591428266
0.272988086368059
0.277206518894751
0.2687751228566
0.272501594471045
0.263680903952602
0.272427581922409
0.269881589648457
0.273523178543583
0.26808171658329
0.270666955866308
0.266226176742228
0.268135580462593
0.265759934645633
0.271285775379881
0.268272792803489
0.267907474741546
0.266175057147443
0.264463682908337
0.259742863849582
0.270620830974844
0.266395806330112
0.265575476046913
0.261918879120256
0.265905994724789
0.261473694414615
0.266483769987639
0.257302567047648
0.258285933603299
0.261899375064689
0.260990602381327
0.254876438425385
0.256985188293713
0.258510566584336
0.257358767510227
0.251348810668204
0.2561655019521
0.25647189572664
0.256439648745086
0.253505405903863
0.251049277528253
0.248762090581614
0.252558416026689
0.251778783081853
0.247376443966309
0.246776552629255
0.251095144683639
0.245724130139832
0.247135477407348
0.244069135111198
0.246863086378198
0.242952181406159
0.242515425798237
0.243023436776947
0.244168514516091
0.236840860236506
0.241997266695823
0.23923441303267
0.241410111502172
0.238104275778865
0.239848571631818
0.232953397083546
0.23222465855633
0.235073391777335
0.236427931791046
0.232535796091278
0.23805040519891
0.229732936440868
0.232322896611427
0.230185813251634
0.234391640666109
0.227632778319848
0.228703686515664
0.229536836102309
0.224026629452213
0.225559214427544
0.228831727247097
0.222226392211913
0.223363572910674
0.218689666218337
0.225566575802603
0.219299140752801
0.221156973972428
0.219788160888358
0.220910602139376
0.217381057345218
0.216539381371987
0.214165481906674
0.214336000660583
0.209646519228022
0.218226226513618
0.21009906996318
0.20857488440044
0.20497589629642
0.210806410672054
0.204173990281334
0.20602103232717
0.203292445470822
0.208523105570751
0.208548221535379
0.207465591728502
0.20064498827438
0.2044824934981
0.197217508675661
0.199622102630924
0.200467460232888
0.200432113249581
0.197523122783782
0.196834468854604
0.193202642294883
0.196079690652817
0.193205088814791
0.192137459445367
0.194252150728941
0.191092095678212
0.192087467131768
0.191093749580038
0.186136747293855
0.191947581823368
0.189269749547835
0.189988050116948
0.186209602451488
0.185757062631084
0.182135256897539
0.183999600765346
0.186267504894802
0.184672714409905
0.183520756978788
0.185267380835389
0.180645721397051
0.17925764852108
0.179702907550929
0.184464503967267
0.178985888535183
0.175976942420546
0.176754424225077
0.17733071583115
0.178832252306613
0.178380464237658
0.173969373101209
0.178023442007987
0.175158981698671
0.177751230428989
0.172285182944546
0.172821550825523
0.172137678092645
0.173294361236938
0.173241080277767
0.175453955778163
0.169059363551565
0.170416439710067
0.170403993669134
0.170949248023636
0.168549435624893
0.171248426565747
0.167484786265311
0.166440507082675
0.166439598479195
0.165593040874284
0.163962648612765
0.168767703645539
0.164688941580919
0.166397628619727
0.163609217037492
0.166882663151431
0.163372964489807
0.163942825032889
0.161071834279132
0.163955426207251
0.161626226997462
0.164230887087073
0.160280008318476
0.160513317070316
0.156027672885993
0.163644905155368
0.157853903135263
0.159217642438216
0.157210755930079
0.15750077535395
0.156394934406825
0.158831809675022
0.157574459725839
0.159057498592742
0.157236417951985
0.157036722194289
0.155437768431087
0.156460746941557
0.154809733152873
0.152888819659324
0.156907650672101
0.16019285151638
0.15493210214026
0.151728898175217
0.152976864196019
0.154099313105697
0.150247945981827
0.154584611888493
0.15341177417316
0.156558390788196
0.152020259818092
0.152697605550233
0.152757934932544
0.154392512894645
0.149244852555216
0.148110041352498
0.146167845414462
0.151726936725556
0.14740460051014
0.150420139665471
0.150278399136729
0.15073963753892
0.146220319357588
0.148677326148103
0.142858080128146
0.145907377937045
0.142038150201067
0.148289231367281
0.14773119322244
0.146992878814993
0.143408491442544
0.14340370774122
0.143259605005592
0.143991619599586
0.144133553773182
0.142365893986331
0.142871469645436
0.14356621176574
0.139483006934932
0.141436722797719
0.142896961507714
0.143379991184381
0.140362787981198
0.139879798353585
0.139106244442048
0.138138158636755
0.137724610580143
0.141398829304799
0.136158899379406
0.140963639383945
0.139427807634616
0.1400149338617
0.136763353858906
0.138919390469744
0.136067263336334
0.140627486330642
0.133046791619559
0.139281077889341
0.138218335365776
0.13502794351699
0.133276785287286
0.136362631079203
0.133139063732935
0.133022755407654
0.1330960184344
0.134123390839446
0.131961489913713
0.134962279347543
0.131721503830591
0.133667500821346
0.131488530634027
0.134420601630571
0.128017522938843
0.130172361515246
0.128280186269734
0.129703340018639
0.128604596521608
0.130034170074892
0.12594022631691
0.125685835130572
0.125960987331802
0.125524400222098
0.124271149546733
0.125751066522424
0.125091026989015
0.125279063709807
0.12479088398108
0.123976116535623
0.117936795004624
0.124610114717783
0.121082583980727
0.122060580755625
0.117279833939159
0.117966722454934
0.118744702271508
0.120000879259874
0.117959280085307
0.120051101324994
0.115486389832243
0.118422472933479
0.116189013142541
0.117251314272406
0.113460940726187
0.115661112640204
0.112016101918572
0.114910065012001
0.113380023510687
0.1159330639141
0.10880536462802
0.111985824495493
0.109970015012537
0.113232194094847
0.110772349056589
0.112802137133808
0.112213043287354
0.112792923248037
0.107617702654017
0.111992952373156
0.106015930081059
0.108261554985416
0.107642734482247
0.10707905225672
0.106465160971335
0.10774180529838
0.103939903819644
0.110341423630113
0.1051794954461
0.105569371384817
0.103287067336632
0.105907661770339
0.100775511117587
0.105229639472428
0.104103769845855
0.104576632006619
0.101851506665971
0.104632000264407
0.101518079941933
0.104480527806983
0.0996102044021283
0.101710391721592
0.100870542144949
0.09955303836263
0.0977140149562073
0.0991283923132548
0.0971287107438049
0.0979413351028093
0.0958631649867244
0.0999450509213271
0.0956824411077961
0.100159310353089
0.0963812917477366
0.0980485962711573
0.0928225535223261
0.0994021123586356
0.0948246583133099
0.095538332110645
0.0934586097436953
0.0958409531332122
0.092150840989898
0.0943533425468532
0.092137428169598
0.0962050277655338
0.0932632215633043
0.0908327711005465
0.0911569750292125
0.0921837625394523
0.0910609334263634
0.0926849465789212
0.0900111752778838
0.0915191671971485
0.0890294739030888
0.0907130636777174
0.0886735051768345
0.0929565978076573
0.089348117045684
0.0909198873691255
0.0880718202976664
0.0932567336632293
0.0894980947631456
0.0916228142087055
0.0876148523812432
0.0920712085526733
0.0866079902863671
0.0899510443886184
0.083238588898568
0.0876514950161354
0.0867869498923857
0.0912121936273637
0.0854483160962132
0.0937428696846631
0.0865752943229314
0.0903704763040175
0.0863112881458771
0.0878215019169747
0.0778191199731767
0.0841898715651095
0.0816456920563102
0.0904745954676428
0.0780719059752576
0.0838764856713154
0.0712012004445027
0.0858220693294457
0.0777675017435421
0.0834504188003378
0.0744848186577782
0.0903612822874799
0.0764779048060152
0.0853043691712164
0.0781211314426213
0.0862773014329741
0.0736497785952058
0.0891086987781506
0.0720425544897319
0.0879840693097447
0.0797022033819138
0.0929755705117798
0.0757053118087444
0.0884182928154995
0.0730001208702463
0.0889147686299013
0.0778276916980425
0.0881378893717506
0.0735738885609623
0.0897286732991669
0.076541317600792
0.0936648550768135
0.0789536581999549
0.0957775907419051
0.0782258203816825
0.0937821897496195
0.077877362649562
0.0884585740951501
0.0729340698735218
0.0846243321703128
0.0721239535537241
0.0887789279659134
0.0796938632978866
0.0808680211149594
0.0707865177488114
0.0779833292243129
0.0857494797186277
0.0762721556692342
0.0849376928341024
0.0622338351937065
0.0935508566755548
0.0697014060444856
0.102853963522125
0.0547714832666762
0.104430370483003
0.0586103682728846
0.099354257248478
0.053636035723845
0.108438573624002
0.0600435313181029
0.0970120230323093
0.0645135539830953
0.0898254480168872
0.0714408668779818
0.0857952181878191
0.0750938311948985
0.0786445097445315
0.0787289719371324
0.0797474565313146
0.0771745594023129
0.0776793060518399
0.0762475307194889
0.0814384963186476
0.0757912427195252
0.0798748078005398
0.0731803667062294
0.0817537334602357
0.073727874307185
0.0802079844404431
0.0727734884638923
0.0799005142218365
0.0762421548351982
0.0782252961909822
0.0722204087924313
0.0766744175987016
0.0749078702605033
0.0744812929118007
0.07399775179215
0.0795784072060922
0.0749831202587256
0.0766146253215861
0.0754917462338639
0.0776508827930096
0.0746716046647564
0.07732127412902
0.0758204607744999
0.0772096192175255
0.0723313132254532
0.0795366915203019
0.0790362590422064
0.0787686329351953
0.0725841480816229
0.0774193321936284
0.0764634011210051
0.0770320280191845
0.0747570408042457
0.0784621697405117
0.0762177357944377
0.0758943122188776
0.075596740423886
0.0804007891178499
0.0774579312421564
0.0778122188397346
0.0748978671057826
0.078196712068763
0.0770492338959698
0.0785047858862913
0.0755539648983927
0.079059357276641
0.0767822528805722
0.0798130126104959
0.0764363463953531
0.0789426594111383
0.0743886718325285
0.0774360942964166
0.0773051604992405
0.0802871535472722
0.0763741171064378
0.0770282465525491
0.0769309406246503
0.0774471690266005
0.0775108990060352
0.0773844353085392
0.0776834831441368
0.0753823040545814
0.0750375368402438
0.0789999001097673
0.0769486712826365
0.0773321435964377
0.0792497626530389
0.0787055248628782
0.0774514510043769
0.0801239961255521
0.0765229334501397
0.0781481160257459
0.0755804746151686
0.0779943242214227
0.0782783622302813
0.0792138004928315
0.077351468909778
0.0774715155603948
0.077948942302615
0.0795326796903801
0.0769629996541209
0.077900597775257
0.0781754361741202
0.0770589131684946
0.0768818244794954
0.0821997566770033
0.0795772745599579
0.0778405939648821
0.0784155417308016
0.0791508431314367
0.0798945816866467
0.0791074562978872
0.0771114343763772
0.0794825116598633
0.0781265896891145
0.078936190542696
0.0801915031007888
0.0804688154549752
0.0795028176955673
0.0814160548337638
0.0803478972089796
0.0798561393143677
0.0792067705580214
0.0799186672349548
0.0812316899879603
0.0812670613440308
0.0799133944373138
0.0809472808556665
0.0818861199388691
0.081239463746605
0.0808279688679207
0.0818471252581817
0.0822914619131851
0.083536686670643
0.0813655763655412
0.0812898479699048
0.0802794936210579
0.0800603727838426
0.0791989944334053
0.0808387989239346
0.0805545328101412
0.0819067868591967
0.0832396931967125
0.0834808793733406
0.0815258485166749
0.0821685319788805
0.0807586344357408
0.082493233709218
0.0846461797357761
0.0822985362553187
0.0831109027322641
0.0847225937999168
0.0805239427979716
0.0841528168245596
0.0846642849612823
0.0833728606653756
0.0823349460967074
0.0831987141149367
0.0817893610378955
0.0835489208099687
0.0860614807046076
0.0830679643945777
0.0823421899380889
0.0827688476570497
0.0860776051666654
0.0856819286561624
0.0841106416056464
0.0845790454894332
0.0833130424534382
0.0868482223523936
0.0850480812743877
0.0847314133535463
0.0852505295358785
0.0881959312683016
0.0852386001104039
0.0829183276518008
0.0855718906070994
0.0881517189339235
0.0844709392429577
0.0874340030552592
0.0881239121412538
0.0864862700319785
0.0867220499023025
0.0850591152183969
0.0854355617234841
0.0872290154962304
0.086106126479467
0.087856961227918
0.0873295765096629
0.08548043795991
0.0861854346178638
0.0861112620840968
0.0855757852846185
0.0861767226823792
0.085464479733412
0.0863737040490518
0.0846849955658488
0.0841668205264215
0.082316762055966
0.0832735205575474
0.0834916063325315
0.0827012687768004
0.082309148750775
0.0827667770151731
0.0836415169801198
0.0834340520938677
0.0824286151814035
0.0834367133099264
0.083535490119185
0.0826081169428453
0.0808749662246755
0.0803361922916757
0.0831859926304436
0.0814714060674855
0.0822785764221631
0.0842182912587214
0.0805050055466376
0.0811254849806399
0.0842931524344198
0.0822120587512288
0.081072772243775
0.0811243390041998
0.0831970064577569
0.0814104863459154
0.0805562897641443
0.0801901778367053
0.0798235630223767
0.0792476522962025
0.0804779422676429
0.0792879629607884
0.0797601334617723
0.0790418924014477
0.0787029260534351
0.0801871556807785
0.0777820540527827
0.0794222088076519
0.0784376231347313
0.079022345170693
0.0797082374106491
0.0788547209301085
0.0775497039297044
0.0802688773105576
0.0813685633736651
0.0796879390782864
0.0793380833846943
0.0784674572669376
0.0781870732796709
0.079740009539821
0.0790193344265078
0.080500325664569
0.0795810835398988
0.0784454607378683
0.0775285776510329
0.0780471306635071
0.0770151366631421
0.0766561885577033
0.0777395239026782
0.0791217274072522
0.076833400377104
0.0780673404281812
0.0780480658400384
0.0785264672247541
0.0763620918803431
0.0764226335458819
0.0791298757199216
0.0779206965822524
0.0767822335130029
0.0765411867732392
0.0779426985897095
0.0760438797052587
0.0780680411295114
0.0760031486228857
0.0761829396915817
0.0753345915468964
0.0770782282974413
0.0781167832054796
0.0778873620444819
0.0775960031108211
0.0781059501470704
0.0760904167281297
0.0754714627919764
0.0745337207221256
0.0746788325769695
0.0750248203155489
0.0748083586740794
0.0753010469425945
0.0762880168558099
0.0770882239354909
0.0752535781655608
0.0760194227844676
0.0736379586438517
0.0736716568870467
0.0764958788971942
0.074708143301432
0.0736578581894259
0.0742112987115419
0.0737868462894694
0.0750096761939338
0.0707980027091767
0.0735836181076732
0.074399543944923
0.0737545028786272
0.074028513878741
0.0746242061326648
0.0735012401101202
0.0729756420624725
0.0724702143113439
0.0733158002241012
0.0730614798924329
0.072346544650111
0.0721907007499923
0.0720143040795779
0.0702340140911105
0.071950650140074
0.0704710179730162
0.0697188590433878
0.0693311859965859
0.0703887249191385
0.0694446934320989
0.0693830440415418
0.0686026257000735
0.0669202838767216
0.0670503388646086
0.0697692498147007
0.0662657792284746
0.0691260052232447
0.0682477132625442
0.0688128260230542
0.0667845849930098
0.0671764519567996
0.0679614822954325
0.0648582889674777
0.0677982318835863
0.0679597861820012
0.0667512825054748
0.0641411985969093
0.0654742384032926
0.0651681955042957
0.064622259627286
0.0652455778841029
0.0612257334590739
0.0626711841966759
0.0642112586001778
0.0610113242241661
0.0645090863768086
0.063356699931988
0.0638249873157487
0.060973370753824
0.0633434985001808
0.0632600966813043
0.0629402415604092
0.0590163767731306
0.0644229081343336
0.064073451102702
0.0640437308514465
0.0633433072107827
0.0639555270635547
0.0606859920085048
0.0625932828104802
0.0612928063276378
0.0642695460866601
0.0622693338275403
0.0615937293927838
0.0610866419439651
0.0610149378308758
0.0619144282574785
0.0611088314304303
0.059840373359577
0.0604707099300169
0.0599210471121123
0.0599189656812564
0.0604310601560079
0.0621996570294324
0.0581143532189411
0.0594479262851269
0.0604900339611331
0.0620819893616286
0.0563647457839089
0.0604332577862327
0.0626356791430969
0.0621268992071452
0.0609008029966396
0.0606159063032837
0.0600380756175808
0.0589739245344644
0.0576950738390786
0.058913855888329
0.0588232624563424
0.0588071833467187
0.0585791205081052
0.0574884051572364
0.0596929234396462
0.0564217926233382
0.0565761664635354
0.0569249953832631
0.0580032305044578
0.0578009234562841
0.056363585990338
0.0570181411638206
0.0590699288040842
0.0548111875856697
0.058161488881927
0.054658846033846
0.057139918247821
0.0536346867789904
0.0587872795434793
0.0572452104054528
0.0589890884091977
0.0552370399938681
0.057173128678316
0.0567739714261955
0.0547365354764574
0.0559928137536321
0.0550656351932034
0.0552519456929687
0.056270342595254
0.0535107638832072
0.0547076102276979
0.0562542034032937
0.0565707304446191
0.0547167220257928
0.0566517438485499
0.0541487005400746
0.056461176038515
0.0568128258089564
0.0522520526871004
0.0564835530730257
0.0586142050781334
0.0546609709482547
0.0598271817307837
0.0533237297800808
0.0558930765615533
0.0606678577997676
0.0581874404871823
0.0569573144052338
0.0519262729379445
0.0584832488729865
0.052243524696859
0.0580278802472147
0.0519089510826628
0.0578707146806513
0.0526159992691252
0.0578867878076598
0.0544041621078684
0.0577346817052871
0.0539620911329677
0.0558633325572366
0.0519030229070114
0.0555503138063337
0.0552525758554765
0.0546291766223662
0.0543741638980748
0.0566002353143481
0.0529554174176035
0.0548689809437253
0.0500796936743534
0.0562663021877541
0.0535300868914527
0.0556881880629711
0.0505139888437732
0.0558633656367443
0.0503653059223032
0.0609889568686815
0.05492570990739
0.0586278076789357
0.0529176287613957
0.0565796661288222
0.0552825860728589
0.0533872950590512
0.0560802198396914
0.0543600589792391
0.0531944669742801
0.0540086300352641
0.0540167047566747
0.0530813080557405
0.0544669639728432
0.0536578885997639
0.0543063459632137
0.0530740610815678
0.0540508470710249
0.0511606036498973
0.0550142198343477
0.0516871560180697
0.0531231420003953
0.0622591963820594
0.0539533073361873
0.0610804673766462
0.0558179353649091
0.0607828780712013
0.0533990644345079
0.0567581231789719
0.0506896550525881
0.0558578175183083
0.0509966297566713
0.0562453211444736
0.0536823234945605
0.0561781463305582
0.0511643398742526
0.0575882113376803
0.0502981031093417
0.0560514974145783
0.04962320909873
0.0579513701991709
0.0539438551800359
0.0583850597525891
0.052028220913237
0.0581776380908973
0.0549944471492188
0.0607489673351721
0.0548526223220322
0.0506544696913483
0.0682190824295418
0.0539054040805152
0.0654599821841944
0.0503466041375114
0.0588463516611918
0.0546084875591016
0.0585321819037732
0.0540712991579788
0.0557876734803497
0.055751702127904
0.0566294937064271
0.0535138665266939
0.0584657397100708
0.0562884371061011
0.0513246532165591
0.0598008490150199
0.0648273815156258
0.0603577999482852
0.061271331485837
0.0512295153009102
0.0649962048007943
0.0628581277779853
0.0600536581005105
0.0551086638215338
0.0564595734704497
0.0581503831734973
0.0580219144088843
0.0615234102942029
0.0568623819079973
0.0613549365266266
0.0569662747235459
0.060418750565452
0.0579744073998694
0.0603969616482879
0.0570043917010003
0.058425197503305
0.0613823543147785
0.0615555681740325
0.0619468267866531
0.060893746084516
0.0592412970846697
0.060974852779306
0.0609006975684036
0.0616085707816452
0.057101717144835
0.0671519151169661
0.0601715643303282
0.0646938126565997
0.0624558933303604
0.0640409438473779
0.0626763775806701
0.0628644016661213
0.0647829247544879
0.0669592439872381
0.0522816222475328
0.075145789847357
0.0569095880662517
0.0839454116723968
0.0608951133261843
0.0715305641220414
0.060977065848416
0.0717122720276355
0.0584361425089879
0.0657606555408116
0.0678149940148979
0.0669752838351744
0.0664021816384315
0.0599164107711412
0.0707970143394818
0.0662460511259921
0.0685371877730519
0.0629787655351216
0.0682801032466259
0.0628561114077448
0.0768199554880427
0.0607895819283931
0.0707327096695217
0.0727986596119807
0.0772540549437
0.0848053732853942
0.0648872962310862
0.0761905446637761
0.0716911616872885
0.0767650239622233
0.0715336566263373
0.0690614229812472
0.079834552996941
0.0636338188858456
0.0751616992768071
0.0785016540877587
0.0776272662058138
0.0778900442314272
0.0697012392251255
0.0779958937504512
0.0807148764422879
0.0808715212081583
0.0762390856567119
0.0818908567803043
0.0765212767531465
0.0733585569002555
0.0935742230213482
0.0785022627154765
0.0957451348372116
0.077209990876695
0.0953140548575719
0.0819127680055516
0.0933556685425372
0.0807544174570612
0.0909121499500086
0.0884776649900316
0.0908238570664749
0.0782916680814883
0.105688733391706
0.0877157142013375
0.102382356440864
0.0908107116148097
0.0952095429379469
0.0886458942869687
0.106630766958931
0.11675421344463
0.115690474672056
0.0981904126249391
0.108354009229474
0.109210928445675
0.109300838683125
0.10739673845579
0.107348202401579
0.108828142215536
0.10932990701824
0.110324101037869
0.11893212333527
0.112058279454048
0.121837511496123
0.111462530387242
0.123165387057934
0.111950121045607
0.151084097711417
0.121203889432312
0.13722186873213
0.12398104747844
0.132617234799811
0.136743944740164
0.130974881678052
0.132012853493109
0.132384805594582
0.139549143475981
0.136900579803316
0.135662249164585
0.151162190408661
0.138456504399973
0.166224032368506
0.143276694777861
0.165412602986393
0.133295458482352
0.170375425189804
0.188170679189227
0.178575141381168
0.175833748400325
0.156596894104199
0.18782445532552
0.186908046698711
0.19730396953018
0.186663650385996
0.195067472916071
0.197701794884793
0.207101831183233
0.211268634474775
0.216378473300104
0.222861289626342
0.227632095888263
0.217805760274053
0.24175351467073
0.256312237204688
0.283770871708515
0.255152782415345
0.267535862365865
0.269424458787747
0.285169734000693
0.282919848073181
0.299045789872707
0.278284951310735
0.325951604640024
0.314154399976811
0.339282703399566
0.31621090255046
0.340846666779969
0.332557018401402
0.349134093895294
0.364473001327595
0.367421010700084
0.37318937810837
0.362708579370695
0.387334320784727
0.378583374768208
0.388526690416153
0.404793892944066
0.409386818310189
0.414243832709742
0.416466128134807
0.422073627264446
0.422252411666204
0.441450945540453
0.428340127508971
0.450070457003056
0.433926896207529
0.466753825836006
0.541268795675344
0.463542717037164
0.470155822675285
0.45223222367971
0.462153281083366
0.462831921902038
0.456034687677566
0.491906824021854
0.46933500659349
0.473395476365654
0.456394755692878
0.466052389236307
0.464897549310252
0.478324281642048
0.468100211987297
0.475195365748618
0.478480805858686
0.458016160823412
0.499763529682292
0.487069556573704
0.480876063157835
0.455053712329084
0.475819987749395
0.464689160645525
0.469679076454516
0.453536510826713
0.47685565877998
0.455636592131767
0.467986182609449
0.449469514548724
0.45332628212922
0.461567526223779
0.456194018168389
0.447238982387712
0.43448899000821
0.444835220710655
0.437835584757833
0.415724552268597
0.442978233975675
0.453224880145048
0.44268407890712
0.422491339972323
0.426592956762119
0.422470670517485
0.419250724391525
0.412246732879192
0.415802709324424
0.409253158239965
0.40670780276633
0.402417575844522
0.407972377545518
0.401457335711769
0.400409109610395
0.401475336659559
0.398743387412952
0.401404926335373
0.395791763716649
0.397183448905023
0.39709071628188
0.393251681252748
0.389856870039242
0.393242239708373
0.393068192620786
0.392493307883224
0.391582328550725
0.395230918852061
0.390422405062398
0.395970293606629
0.388387265779947
0.389659488313138
0.387008124367185
0.390408271218918
0.384088192655663
0.384684830210221
0.380758816838777
0.387465628905791
0.383957576125864
0.384276710422539
0.376034140045184
0.386659159450636
0.374027940823939
0.379369705860829
0.410810832247512
0.38007052228709
0.385251268880431
0.361118058984096
0.375410533100618
0.354117305853992
0.367288278089238
0.373938373987228
0.370091816464481
0.363193517761218
0.351989445674294
0.343666248466809
0.356819639320445
0.346287528393685
0.350340900445359
0.339012198363225
0.330534057885509
0.364667122443429
0.338776782487845
0.389038160199212
0.349359820467678
0.34881566010959
0.309368273208438
0.343115476999002
0.323092698652913
0.335096968389665
0.311716623162874
0.323679988256055
0.325078603585383
0.316724299769487
0.317242201100471
0.311822822353641
0.307754355018105
0.312730465743995
0.311983607216529
0.302149228558602
0.317349473771603
0.308823542226988
0.302439023617483
0.300748420865791
0.32798289110204
0.303934917044008
0.289602932862971
0.292078498269499
0.27744503141404
0.29710797629598
0.288155206425076
0.286869207352416
0.280029559138213
0.270112981569729
0.277376902163745
0.266011566593249
0.285520921135216
0.253373515522924
0.285437847753124
0.261730320436057
0.264381168067564
0.254820493844865
0.26066382830863
0.276398327449227
0.274659065348701
0.255978232290837
0.243013800843674
0.272828600021593
0.252225046814028
0.260393805713455
0.246962755970043
0.240236082737001
0.247247798568912
0.246809654173427
0.237617828017335
0.249034965716799
0.240299401138694
0.243570525455162
0.234291934313557
0.25269267945617
0.2531264061727
0.23495032285378
0.237253717468264
0.232600811888115
0.236909408621295
0.231485430621151
0.23237684274447
0.251163121988745
0.225539612641241
0.24646566619611
0.242056654643325
0.24954825546927
0.239450417841148
0.242597767599851
0.242280537472157
0.246250177774792
0.258163706238832
0.27304019030925
0.249407413371258
0.265309390334695
0.259510403035644
0.270208733504762
0.259461480248138
0.279408551702443
0.2709069548664
0.281759209558847
0.287037689290388
0.295021616713537
0.294554455503829
0.309245734806293
0.297938033446713
0.332718907932947
0.315066322469716
0.330792285983026
0.320982395514968
0.354862382872881
0.357298523433375
0.354326674821403
0.365572142849635
0.359048580410942
0.367724651196576
0.376610400786868
0.377176791346351
0.400604842824073
0.395941595099477
0.403312938172586
0.392809104899607
0.404799066294946
0.401492708976982
0.414450557273769
0.417633063818983
0.415584950009184
0.456819317035132
0.445539330467337
0.444725005871988
0.431046358157877
0.439919943593659
0.436522447633663
0.45012572856234
0.4454000927308
0.441330918731611
0.449531729937437
0.452312606788532
0.455990916404835
0.45506966035963
0.458469084461591
0.459035050477438
0.460428337218562
0.466196780572589
0.472580129033226
0.467393712281102
0.48174099692678
0.464094786550671
0.479123885726264
0.504210153740076
0.496548989142413
0.493917897775589
0.493418218291029
0.512300911696299
0.497623782421358
0.503216757284382
0.518331826030627
0.521397702502385
0.519243378932103
0.525222652592618
0.530628661166296
0.518983158824527
0.542590347328083
0.532175864972315
0.539102943902236
0.54570969586506
0.531186271650922
0.570140487608228
0.558589089058931
0.571827586364793
0.55066611472226
0.566973821458936
0.56009375169061
0.564775421554138
0.560655883707336
0.57176282993081
0.568722223276427
0.569790968115297
0.559416309334029
0.573422910419963
0.576108193021
0.56251840578525
0.570903907535702
0.579138669690005
0.573170141504425
0.567589080155165
0.565146064722434
0.568810975176459
0.565322497225488
0.583362019407518
0.564770269293165
0.570532382040876
0.553892682805038
0.559719404025542
0.573585253304886
0.569584150329196
0.560784084364041
0.560930184176807
0.563392725073048
0.580556870551354
0.563342231122915
0.577551098106772
0.576668575622307
0.58557703445521
0.570613606480185
0.580287366832663
0.582605211311273
0.592353397672934
0.578829916408984
0.59436635355354
0.593721784577361
0.594385014612641
0.599745858613222
0.598367305591333
0.604260372827584
0.603204001037912
0.602680567966871
0.603226299175775
0.604512660604891
0.601458926505469
0.591465073581717
0.597040398451204
0.595168509947202
0.591083490924692
0.579149638985268
0.586785937951945
0.564241929454863
0.579711720500232
0.572018650175618
0.574498612229913
0.56471501483888
0.556274324558167
0.551361263416722
0.545179619810032
0.548713561268917
0.541228643383057
0.536286435827959
0.534726051292616
0.534032974247972
0.526411401559268
0.524628248665931
0.523305455165156
0.527035609057971
0.528344386132953
0.524003544268718
0.515810516193501
0.52061951676069
0.519196263383325
0.515310595397456
0.51825257846433
0.50956523011026
0.516209283955462
0.520480528684606
0.517513389074529
0.518157004675675
0.523182429541365
0.523099404382757
0.516367829780951
0.518326593208806
0.513895099912822
0.515265673621467
0.515810855432597
0.51679069920607
0.509972432419232
0.511928671241394
0.513006463436202
0.514439852518404
0.508062843813993
0.513659202199631
0.511075205245458
0.514168490134964
0.51316913555506
0.507818742869889
0.507891064278443
0.510051811234187
0.513798998757018
0.511051778790516
0.510623561493779
0.50652239145058
0.514002427278006
0.50870968408611
0.508596588100178
0.503866203551038
0.512176757575875
0.511086279348534
0.509786870585835
0.508264503541715
0.510117832530716
0.504303675567103
0.506330794866608
0.508749330430692
0.50594271823894
0.503854165084163
0.498142596174176
0.493058182537521
0.492041392000989
0.494978993207647
0.484449105507394
0.486413908096947
0.478552172906943
0.480051728864345
0.475365870291686
0.467441300450489
0.463481379847053
0.457167816772851
0.456732910647327
0.45385104008249
0.453880806499702
0.451269833361993
0.449161181281277
0.449616301191928
0.442845037957125
0.447339910045531
0.441390456061062
0.442905681688381
0.443118155072599
0.436590417396741
0.443082551927555
0.437810344775677
0.44112743202056
0.43937459853429
0.442027647713235
0.443959076901167
0.44761891353252
0.445553156424733
0.445775005959498
0.451491659659265
0.453811715192434
0.45252403962512
0.457729236277028
0.455633938099268
0.460498361848014
0.460225461808436
0.463994304543766
0.463809532749962
0.466474061052104
0.467024909693447
0.469343201694022
0.470173964160028
0.467107778686441
0.47386349517348
0.470344493375942
0.466672247408475
0.46840076803826
0.467799199744551
0.467447699873712
0.468913280344519
0.464797836055031
0.461746347480032
0.465563764717894
0.467175069508581
0.462549407151903
0.458159954512129
0.458814887792965
0.46038421351617
0.450127314899634
0.454497362406535
0.452782875883026
0.452533837734652
0.446811996482336
0.447536533579405
0.444069920525077
0.443777228030782
0.444563288950514
0.442254437410059
0.441652191738151
0.438411633511713
0.436213684762933
0.436507696915736
0.436839826377986
0.433116640548613
0.42916617431408
0.428008706942113
0.428839734575272
0.426009001872765
0.425427908642169
0.427531619657567
0.423203003045733
0.42026739017906
0.423272544677969
0.419025550286736
0.415056488333424
0.413039520232622
0.411452169065541
0.409715413623307
0.406392425513003
0.405731629726741
0.404320673182129
0.398441948960298
0.395267743731164
0.392124629476933
0.387966400341219
0.385075497256568
0.384651422949095
0.38058130135552
0.380324686385383
0.378479934104541
0.374177908625207
0.37690256121396
0.374386602524908
0.371971070004731
0.372535060409966
0.371176152569164
0.370765781484376
0.37046097511833
0.368516936739479
0.365086855453969
0.358743202134486
0.357771860081714
0.355081862914868
0.350494235170052
0.346959330700623
0.341525037288105
0.335602405953357
0.331111239119725
0.329950153903762
0.325772660641533
0.321668653986072
0.323621680616115
0.325571817287405
0.324981301226283
0.332288425390078
0.334973838465985
0.341439503300298
0.348788003375118
0.358843345260919
0.371093986476777
0.384719477020337
0.396659648519616
0.410735452851836
0.428274667860965
0.444228872355188
0.456547286837448
0.477908710185097
0.489710593208509
0.507219921985809
0.521893861748589
0.540316696258555
0.554594890974413
0.57053191378564
0.585459910224661
0.596653475357636
0.612124424001797
0.629663602743481
0.643219377450019
0.6538453291606
0.664782644987591
0.67623053822897
0.68673886503686
0.698049162729024
0.70700637315605
0.710526071100899
0.7162506289607
0.724540905661535
0.738380105838184
0.739251866834157
0.740628883767543
0.745488808539356
0.749228337691258
0.749178013076333
0.742459640460626
0.744352360805053
0.747187986632637
0.751841739735786
0.752820084364018
0.755371781553715
0.75299729789567
0.760199052931537
0.76183247552018
0.761127359712573
0.766726161698493
0.767466806896832
0.774319191328778
0.779455945800983
0.784890501035626
0.78718989454071
0.797194974019718
0.809473173012577
0.813535694286301
0.817911646601139
0.827167392403026
0.841333431394815
0.847208942619782
0.863585781970514
0.881246237788728
0.887809180838574
0.892473133216528
0.914055836846662
0.91788045300214
0.934534770882012
0.936687863514993
0.941502873139033
0.956880498718467
0.95679535497714
0.959935273688925
0.96300045185378
0.9635924561613
0.957822555220786
0.959025752055356
0.951939459083659
0.958175199581083
0.948987794431768
0.93287162474402
0.93612382561025
0.948719847160335
0.954990486531247
0.957283190968667
0.951658127586765
0.970735234921079
0.990488337191605
0.992915020433721
1.01002001551834
1.03320417827028
1.02936624625843
1.06061171176646
1.09203324437805
1.10356065272055
1.10258134550004
1.12840729231075
1.13032356031051
1.16089730524842
1.17330980959843
1.17246935581978
1.18959435834277
1.20350533917716
1.2495893519436
1.24557584409171
1.27786660568142
1.29449399894858
1.31918623556102
1.33845654349088
1.36017875667828
1.38719533998233
1.38773459801136
1.42950931850565
1.44816969309728
1.51806279673669
1.475932350734
1.50724467839887
1.54386677583362
1.51001417844584
1.55630243231249
1.58786655503326
1.65800243810645
1.56798151751965
1.58195882724624
1.57529232710554
1.57663874734535
1.63203048496008
1.61366252580598
1.5914848800121
1.56596416498326
1.57802717009503
1.68272458643252
1.59162576548021
1.62070723012872
1.64634808454942
1.60948790040327
1.58279530774577
1.62233161992012
1.65325273995507
1.62224063197491
1.66559061247905
1.65831887274388
1.64219806864204
1.71541454020204
1.73094497266859
1.78681146054132
1.76161065659655
1.92361098494872
1.77972365658904
1.93480706655972
1.74747506367463
1.83757357008556
1.75730194292429
1.89193780583067
1.81550651201429
2.01435489634528
1.90862930440835
1.89945350203343
1.92283207683575
1.88206961592292
1.91949477516659
1.94550791852465
1.96565486976634
2.0066918278568
1.80675461102042
1.96992018660358
2.048379208262
2.23171946773342
1.97413882237476
2.21396238596414
1.93460059914605
1.97755444787943
1.95043109505702
2.11195920571749
1.85120966946392
2.06633344683228
1.96054543085277
1.96480617938163
1.93303543398723
1.96693468588903
1.90154555575041
2.01007552004442
1.86874253656419
1.83055371599736
1.71088664090942
1.88077288511177
1.71154196289011
1.75976378157875
1.62485745844757
1.60582719801125
1.53422730922243
1.50465695851946
1.41241066073886
1.43913362659865
1.34811378600361
1.39657736086995
1.34389212260685
1.38494090507145
1.29189326587014
1.35942342467033
1.30851832251979
1.32109754128849
1.28189177100663
1.29113153747593
1.28931285336254
1.25585588517863
1.24969604209534
1.23494803168287
1.20799991523442
1.19391148219456
1.16554908292064
1.14840715135553
1.08623688977616
1.07431438913973
1.05503317569517
1.03156190589483
0.995374582319583
0.954488662257237
0.91685475528098
0.888934966102015
0.83626411394888
0.825553350604544
0.768337913856079
0.740868181528773
0.688948702911861
0.659981518981318
0.634420684965969
0.61959081680006
0.589002859702354
0.566392878976237
0.549736367680134
0.527901722416405
0.504405154026165
0.49497458025256
0.475420276505534
0.469069905777715
0.458485600378333
0.453358861147025
0.437962817218489
0.436498347186894
0.430904955592925
0.4284146120079
0.422885559538036
0.424877056905645
0.422375545918096
0.421035634669996
0.419130141286445
0.420031710997968
0.421560742504365
0.425645682263304
0.427827359692323
0.434555408494453
0.431387684589463
0.432571197153131
0.430942269357184
0.427442491203739
0.427891154992576
0.425374552486904
0.416584575004905
0.41605848523806
0.409346636360532
0.408110815211703
0.402483544005268
0.401062236131491
0.395625494370947
0.397321890255867
0.3953010891016
0.395914630124011
0.39224464328708
0.393810201347976
0.396166449412888
0.395644453369451
0.401202170220882
0.404159459666762
0.403217591506642
0.415860283656072
0.404230344648661
0.418482135976873
0.419282775837153
0.423444194183321
0.422509769898768
0.4262013098173
0.426303806368899
0.434140794864663
0.433261114290152
0.437257621795806
0.436257015761471
0.44605348961978
0.443226524106388
0.442189901957969
0.441509450864241
0.449471258806176
0.440666288386611
0.447922570060408
0.454018259793297
0.454493481137564
0.456751583079564
0.457746810401684
0.461421782902456
0.485002832879856
0.489008006683965
0.499985447597439
0.508465934765103
0.539737448844454
0.539219197210214
0.557551351398023
0.565990243869341
0.579326754826342
0.594262985037335
0.607158990419034
0.6095310607493
0.609992661723395
0.615950285565556
0.614871876826957
0.596771277409656
0.584515289997604
0.582059836061471
0.56238600341358
0.55712505263426
0.546561989676469
0.544985472490361
0.528257088108878
0.536316046567526
0.547033244593478
0.533977989633062
0.556240719507476
0.541349669882773
0.552965718132893
0.556205543256044
0.551193013208285
0.540777498071732
0.540816116106477
0.529082690096007
0.536423825841896
0.520487204008615
0.521794330980541
0.516574792003226
0.510832749402431
0.495192780452063
0.503815073865798
0.490147301030825
0.503982979702459
0.478360318179867
0.484942811581044
0.485286023938712
0.475664604195896
0.465155739756635
0.476048806660855
0.471929476255299
0.471589931045304
0.470752289062639
0.47069810135797
0.464329943432253
0.468084914120037
0.465205253365442
0.457867263638493
0.450781048881689
0.447164591691801
0.444244075570002
0.447057741674969
0.436849416555605
0.441206463737967
0.454281990691756
0.444594860438789
0.431716320289756
0.437056342854282
0.433672567872894
0.440653472489453
0.427008561291531
0.429821088693388
0.417503187099466
0.421927490207244
0.418064920302854
0.428847531605471
0.420674576473736
0.424677259395732
0.420696673926107
0.419608773853796
0.426166035305726
0.423910371380854
0.424773814286639
0.418015938884825
0.422772247379678
0.427552845801676
0.424476454466
0.421089291238896
0.419315336332075
0.430559197517335
0.426649588938747
0.415219080965725
0.422343743286719
0.428829622238432
0.440604008149112
0.456225198177195
0.432645642971405
0.449590334484046
0.43824175991858
0.448912112188648
0.457212811582265
0.453006518143302
0.445205243104066
0.465614960154661
0.459990112298992
0.48229599176203
0.461995778191583
0.502278084361575
0.484935127817354
0.520154346682491
0.489865852799365
0.519024553708725
0.508414363138516
0.5196562813342
0.528482415461866
0.523902949211605
0.567993481483694
0.576228678244959
0.597742512087976
0.61885202789907
0.627180932195009
0.633309827173635
0.654317057993321
0.694777756010077
0.653746309522209
0.711029269140545
0.702747599955367
0.74882808265235
0.724448703627286
0.78193061191206
0.757693965349764
0.736124536827598
0.729317694956009
0.804211848269837
0.78405767507864
0.782416925344174
0.729203444728154
0.756465896939129
0.679609570076943
0.706962034804011
0.716348092916059
0.77249570335497
0.712333112337752
0.773861128389887
0.723386232620786
0.718887979980457
0.696876071567951
0.752893940427586
0.721423488208862
0.69035972347635
0.671960513144183
0.716851290847305
0.678430726337516
0.695038793002909
0.628033685980989
0.74384061079596
0.670765082938069
0.704030620284743
0.594473074484411
0.709364283057548
0.66330697205952
0.663862160055846
0.651425012377254
0.664431639308042
0.642836903556952
0.683563106557878
0.647512178121598
0.688379629274344
0.631863046561842
0.668687846886076
0.61651970104955
0.664343221291353
0.63972569910476
0.688523649939228
0.628867461994808
0.694875028435201
0.646637773580446
0.671310560281864
0.642735715666873
0.687309282745138
0.667253512828989
0.701836503874044
0.663534012660486
0.767216838785261
0.689937549394683
0.689573944522003
0.623658831253685
0.724788611094499
0.639215913230183
0.745007757872935
0.699066282274742
0.696910070497183
0.672594154356335
0.776216227547302
0.701912086301657
0.770039948820558
0.654217399134593
0.897502680850752
0.775998395466707
0.755918957397211
0.7395855378293
0.810986278991284
0.758070005003736
0.855518532066435
0.738126416361231
0.805211374421654
0.766456676629705
0.847684527185703
0.749601264434123
0.922349488102378
0.962653978033035
0.837757084688107
0.864329343488264
0.962957576267934
0.743952918515094
0.885374711038885
0.873327658929836
0.904127978957484
0.900811692164006
0.915451168270213
0.834169324884105
1.05447943285773
0.81942997891517
0.872734840305779
0.794012961967491
1.01214366333162
0.710115813025738
0.873870261198435
0.922861169402269
1.15927063226652
0.69746695259046
0.981120850953467
0.871346690094138
1.13981152015842
0.763716866054952
0.891973549742867
0.776785405688669
1.17624785663545
0.713207989755835
0.79791175253791
1.05732080602931
0.893368390663468
0.696353128067607
0.842456303423815
0.749876395154849
0.891081263292948
0.828285775644954
1.02272237430245
0.969319999856341
0.711719351781139
0.596003934241289
2.09470732746549
1.58342376331657
1.1268802974506
0.526219989557061
0.783783675484117
0.92647636975409
0.860600599559191
0.79462535282804
1.38660712730573
0.801141867617054
1.19540559962184
1.00974064013123
1.00574279613724
0.557909627468949
1.1935586288792
0.830083511395148
5
0.84216386337335
0.929704096048443
0.759691372080187
5
1.23047437891588
1.59441187492732
