3596
4000.36533379555
650.420452594757
1
2
2
0.0402657454090234
0.0213925871090188
0.0459087933901425
0.0291537013120995
0.0373483063398927
0.0323237439415709
0.0488480799329556
0.0265666604414263
0.0458382827303125
0.0331511369823727
0.0464551981058129
0.0261089114318844
0.038977368542383
0.031657897644736
0.036414520266088
0.0286601323214895
0.0412441245153829
0.0206018793265843
0.0367190093849642
0.0185946253550927
0.0395500637156371
0.0283871081983351
0.0432025223241518
0.0308522661339916
0.0412382545605895
0.022763826905792
0.0367468755643064
0.0233693486117873
0.0401765718153814
0.0273211980807401
0.0396850481850258
0.0240957912369639
0.042178587976559
0.02326673711861
0.0335212898215305
0.0248575825767667
0.0360082328313821
0.0150606266101738
0.0348357440844813
0.0283945032978879
0.039203112696371
0.0259616425104334
0.0454723160619921
0.0212537050309427
0.0447539753054113
0.0273390552536439
0.0460695087139001
0.0236370053932691
0.0396424624619549
0.026132581092767
0.0343239094314788
0.0371312398157998
0.0421024223685571
0.022940672056823
0.0336147031203406
0.0344351210983838
0.0460049267900906
0.0267570594649525
0.0418049444809653
0.0213882101955802
0.0332302335149095
0.0375679984370733
0.0340995952512043
0.02717277207583
0.0409123068449921
0.0291394622011799
0.044091694464165
0.0279911757379311
0.0350764888742351
0.0276139904862031
0.0306684106587753
0.0335238114413627
0.0470849750023258
0.0236574929143301
0.0351349683580418
0.0281056819967946
0.0377824075602196
0.0250560383202539
0.0280055076367115
0.0175171293945439
0.0348351832456009
0.026306427789434
0.0379161977518813
0.0277469217054559
0.0344869970659353
0.0307465431503026
0.0328133664564334
0.012388883588565
0.0417961451395869
0.0247613595414189
0.0338678819422972
0.0229275704703028
0.0342344798164029
0.0296987684017231
0.0299421788416682
0.0250404111202608
0.0375615976300383
0.0310464256433487
0.0342597973157438
0.0263631768168597
0.0320177307614021
0.0108853785135738
0.0571157828911923
0.0252487302359411
0.0596961087812389
0.0299169227134637
0.0313649888372225
0.0310840208140976
0.0378452072624505
0.0293991560260421
0.0358668297275352
0.0258525228646259
0.0361879901377246
0.0216740247463454
0.0211345935634249
0.0301560282046085
0.045030851492801
0.030988187879466
0.0355133890644956
0.0267633061586618
0.0193317826053015
0.0111423900007247
0.0540518624080243
0.0293090797575721
0.0399838661534165
0.0216826335701754
0.0200776343910254
0.034335126025768
0.0514616807374057
0.0266358319857505
0.0279511563074141
0.0230078843061316
0.0299778377892416
0.00974932968471611
0.0493637053904268
0.0313919673648655
0.033339074580801
0.0112136585037519
0.0349147322991449
0.0359400974794548
0.0376968302802211
0.0251383599730838
0.0272943648502866
0.0130221263658711
0.0509674549670665
0.0423459365381705
0.0277942025410236
0.0275847640538835
0.0429416775089195
0.0221950260703144
0.04010633451255
0.0116506380011248
0.041067426487617
0.0283292271945016
-0.00357993479974917
0.00429489888363118
0.0635016139237456
0.0181128352828023
0.0603864782513737
0.0230141838592003
0.037456766282183
0.0217831180489095
0.0337180808648817
0.0259333144529441
0.0374591153321878
0.01545106595468
0.0349267129628504
0.0351049295125654
0.0368770825103072
0.0145926634000511
0.0448529983999523
0.027879599672179
0.0249876896702275
0.0475885114436267
0.0473198792691786
0.0115122820547911
0.0460223010435723
0.0347818636742532
0.0226415229812264
0.0168533316784978
0.0475369832500449
0.0248720551779844
0.0384790167774271
0.0185730024726588
0.0295184908074039
0.0266325276401945
0.0326530819316793
0.0233862302064184
0.0374241946299537
0.0107119878084372
0.0303139716770069
0.0429504431600637
0.0452435606029783
0.0183826588906856
0.0368257858917514
0.00264555994192293
0.0480756454176565
0.0394445047505465
0.0389803904235135
0.0243869527263162
0.0270249862380432
0.0237912413374053
0.0337528094011412
0.0242780295036869
0.0241104096629192
0.00283048425175107
0.042273312494771
0.0351271014625443
0.0375845966281076
0.0185577926648027
0.028889902577539
0.00890341567086171
0.0441210277961054
0.0428252677301802
0.0327714487381562
0.0201180090921634
0.021456226017473
0.0243092102128257
0.0399506076514462
0.0294566831272871
0.0357806735812031
0.0214149826048219
0.0341357772944181
0.0239327826107039
0.0271661876430189
0.0253880317583695
0.0334759258032834
0.0191721182157995
0.032748776643337
0.0253839177504145
0.0351014012161708
0.0227904553883776
0.0313947477391632
0.0212827876129195
0.0311941414235662
0.0195328537368026
0.0445853546412168
0.0371762561938502
0.0342826637194181
0.030676848882517
0.0353820066613848
0.0235074403598696
0.0357915132531968
0.0275577282971739
0.0298413891564011
0.012824896928225
0.0528275858024556
0.0266721526707693
0.0409974018164986
0.0167346303696173
0.0409114724116637
0.0270285433402205
0.0392110281323978
0.0247985884526341
0.0328563510911699
0.0196348447074809
0.0364524807268932
0.0410712716718081
0.0414847684771881
0.0215175323416166
0.0481753534906185
0.0296643496149159
0.0355079134254591
0.0153132473965657
0.0126383742952389
0.051489602913731
0.0389434994359967
0.00491888414701495
0.0644561196041176
0.0304356132516728
0.047316350569819
0.0220835348915692
0.0120226023875247
0.0582369514076774
0.0678298006018958
0.0289788943640633
0.0321586226884367
0.0377202916713649
0.0365751081837962
0.0263075051234927
0.0296748264459882
0.0239113564249826
0.037091540646696
0.0345378669109911
0.0734723752830288
0.0183085263120871
0.0431541373491659
0.0432102530446802
0.0462342103023054
0.0286092045791749
0.0379087050922598
0.0223606919333648
0.0468351052713968
0.0303117525367924
0.0497591463616827
0.0368899766762911
0.0384439808601758
0.0459021414714982
0.0490131560188367
0.0268443893036481
0.0396980843052912
0.0390150729792771
0.0410471374540247
0.0340289115497216
0.0357166301328582
0.0376949757694111
0.0348848989779947
0.0193996611792155
0.0687909001442654
0.0365219069987987
0.0428179322711294
0.0431638734467261
0.0474221835877149
0.0348083889036382
0.044049328238418
0.0369300683903745
0.0441224294926799
0.028679691448636
0.0375051596954181
0.043287443060097
0.048406478369878
0.0325142432449892
0.0438044617091392
0.0389462295068459
0.0439519221434889
0.0367232063024527
0.0459108266052234
0.0371891993629247
0.0441258808657679
0.028446064433173
0.052924004682494
0.0526751354388364
0.0396995300426964
0.0492229623018417
0.0614407354353261
0.047060367084684
0.0541447704305476
0.0447892295424916
0.0531051873618698
0.0442064594727157
0.0547915760387808
0.0427003376882835
0.0500651108892833
0.0460184640437741
0.0637946464806163
0.0420287683570035
0.0446836113957118
0.0651750188051797
0.0991014158371687
0.0623558899766653
0.0639983333646786
0.0423220092131839
0.0793489658923602
0.0681070435798515
0.0843564849703246
0.0689220051236965
0.0750263802876822
0.0659466320956645
0.0709519818639544
0.0642105609344982
0.0769974785546323
0.0712468229501935
0.0812977743879919
0.0757095814774011
0.0876498173678714
0.0826711823064766
0.0757369290267406
0.0769443746807469
0.112649453079179
0.0939884460054215
0.0944966782183439
0.0781344392060894
0.0839360448342579
0.0932422955766905
0.0956410119608727
0.110794470058643
0.112436138980006
0.0893910197260231
0.10851501959058
0.105662889277955
0.110352880774672
0.0960282644171016
0.115973665849564
0.111023387586843
0.123591114764317
0.105507393415588
0.120248178065057
0.110716911336837
0.126408180245052
0.117501397394689
0.129548689570491
0.115007865847429
0.136774270130442
0.129641596632325
0.144069049250138
0.127147296310601
0.140626820658285
0.13004034212861
0.179816612692708
0.139205060272764
0.150571988818154
0.142158844290547
0.161095899935846
0.1433549919931
0.156982248287372
0.149705120399178
0.162224962525093
0.151468029635037
0.172934375920462
0.169211996969688
0.184443228540794
0.156981742146011
0.186568487958445
0.168377217833738
0.180541418966642
0.180895981609203
0.196595897068052
0.174205183304211
0.204591610571406
0.187193345723565
0.207381383303233
0.194514058244507
0.21654894609076
0.195780843557424
0.214409261399203
0.203101144245061
0.218466495513187
0.209393534642871
0.223318296719178
0.203581186977934
0.228225510907172
0.223312141936539
0.240999006851342
0.237435610761744
0.235968125485992
0.226256575554832
0.24901731836716
0.227353632267077
0.25267326749635
0.235287959238706
0.261294574384456
0.251078781054083
0.27209188229866
0.254569974366633
0.282982338645634
0.255833613959591
0.280517988559373
0.252100719933331
0.270097671830492
0.265327614805806
0.293368911062167
0.277494630012239
0.295688540332948
0.28436688617387
0.291079736604506
0.282712219178406
0.314301267055515
0.293989226553523
0.317823931623036
0.302080840412932
0.324019490643717
0.293809473684729
0.34593124267695
0.323083088726561
0.352972319107185
0.316101034560027
0.337783582393195
0.306242462061596
0.362449959832594
0.340043925947509
0.340512569356623
0.347765570607976
0.373491828221927
0.341338227734434
0.375941989536772
0.366159919211482
0.399064485512641
0.3583539150697
0.399233550357464
0.37202970705366
0.411811325789466
0.391047007044174
0.400865778721657
0.385954015570472
0.417510181181025
0.397472147719674
0.401816893045979
0.394502712097173
0.431796333821159
0.413209654047813
0.432041690687795
0.414243339064859
0.440134030875814
0.431494144337881
0.459791125623953
0.441818913619221
0.471571912627875
0.443523633721278
0.482703052569917
0.454617000080827
0.485536213236098
0.455656805914622
0.504757424866396
0.469216222206255
0.500553767700301
0.487383572354834
0.514326826197474
0.489038927614667
0.517979090215044
0.492555473930977
0.537190957571122
0.499973117746071
0.514969251326694
0.505779581406269
0.545104788682686
0.524374589012504
0.548013213612957
0.520898288420651
0.553913214318839
0.524956654947828
0.559874288912715
0.528477955902199
0.557645747302061
0.576667914851638
0.598317662153934
0.562261485383796
0.588078414344578
0.566319362786604
0.596670205671384
0.564708338080706
0.618808748055901
0.573392685895645
0.587569231746398
0.587234353664183
0.631908472975201
0.580180376819503
0.645374894206996
0.612667072907667
0.645323143552228
0.610020763416963
0.664650818773632
0.643989601497294
0.659933388703579
0.628372055780551
0.64131696110381
0.65834490123038
0.691137254777638
0.636782555062665
0.707193444327126
0.652346142954486
0.684908976852113
0.66342573169253
0.692585306487867
0.668719845299635
0.710614266388316
0.685367826301228
0.713367284411242
0.660007261740974
0.725767770127445
0.695790844319582
0.729729656446436
0.693431351749181
0.760111202740996
0.694040124778124
0.735727624480692
0.708259083750364
0.749575615638856
0.713497971243064
0.752840235865926
0.753143966598518
0.764801492029742
0.715907245342185
0.78295402008519
0.763029921408449
0.806316865081141
0.744913227205321
0.818210885359462
0.77344679614032
0.808947728388149
0.800615003230024
0.837563101708079
0.831068086311823
0.816700965685595
0.794556429203299
0.839330011327995
0.783599902524736
0.853173399178651
0.782209272054743
0.873839611521854
0.838738783725803
0.880851538806325
0.797725420225631
0.853680534232276
0.831068387175862
0.868540379547971
0.84586084538134
0.894454559220022
0.848273401774541
0.863271712232734
0.888460598711076
0.885432425622592
0.849183168155844
0.892202934603438
0.819237068930855
0.921354913096039
0.873630325781831
0.947605412546035
0.885710339238414
0.936615090401084
0.901696730628337
0.932312524969543
0.882967576847308
0.950161796417159
0.907328825695677
0.999710267240069
0.884306087853368
0.972213486601274
0.934752395708949
0.984751312871447
0.957536794379236
0.930631711561591
0.899814405245111
1.04223632892755
0.94555464803698
1.01938662496073
0.938797267245575
1.00666332694864
0.91577825867211
0.990708671975263
0.917116864789947
1.03237130613832
0.946098665939904
1.00578453796773
0.968144757873639
1.05554065288204
0.952835037917728
1.0193067031559
0.960974411496381
1.04059392765053
0.933673416063921
0.983968577694789
0.997300780854984
0.988477485777078
1.04027151895478
1.06291447585178
1.019499120717
1.09322562291527
1.00559772350969
1.04348379394935
1.04695056731254
1.08147332262271
0.964874184240011
1.11084621463596
1.01768584108707
1.0528398556511
1.04534864918202
1.10081432363634
0.997741819092849
1.13545764348373
1.04319016920754
1.12195852587533
1.06953776959535
1.15609144806387
1.08318405675874
1.11338152272222
1.0715867560696
1.11340923987658
1.06214632158273
1.08842931133225
1.01923803910968
1.07743425742907
1.07390930572576
1.14142453117354
1.03813026545215
1.07959700263718
1.03111391772337
1.11186120155246
1.05218890333996
1.09320548356725
1.07069115522891
1.18542550856655
1.12632767442535
1.14358375472386
1.1377240820838
1.11944701463342
1.09914350903031
1.17382223959487
1.10847735340709
1.14229359886689
1.07949118588272
1.15669816713234
1.10205583834201
1.2046199558417
1.09245410355697
1.16468837048684
1.12247376299484
1.15725472644108
1.11571592770443
1.19158523132389
1.11622095584397
1.1771942068723
1.06042399222429
1.1419959389604
1.12626364819847
1.22718397120073
1.09038200114069
1.14315852087016
1.13650555929336
1.15642154770558
1.11619399957199
1.24442476414434
1.10428145137232
1.17954727934476
1.09100089683699
1.16059821488625
1.0979117562933
1.24002822830606
1.13433862092878
1.14989323198535
1.10306239239443
1.1352407972339
1.08511041056461
1.19473796656957
1.16063538864478
1.20367192830377
1.14223502911382
1.23295581985911
1.14026139508515
1.16743087739121
1.10287865805802
1.17960520391579
1.16496775188024
1.23588964721682
1.13077423045338
1.21021366449661
1.14887198137635
1.13349277838553
1.16074794111711
1.21697762129498
1.11818897672896
1.20753704320593
1.15257202042952
1.18099562163438
1.13183640574087
1.22003965068208
1.12965014666129
1.20449678801269
1.15635940662591
1.17260526329897
1.11417829996758
1.1700230625219
1.13683949798256
1.13945138220816
1.1656231189423
1.17655509858295
1.07988556399298
1.20980214602905
1.14154961355674
1.21316863327244
1.18583169176081
1.19877200790229
1.1656660919435
1.16316110716958
1.19191343577586
1.24168850706313
1.14985904956257
1.21996538265813
1.14244878456161
1.14793290573497
1.08380631800371
1.21772775643386
1.15502474119002
1.15205435484853
1.14246677460004
1.1435438425626
1.11296364477185
1.13987579959071
1.12142608423605
1.13794923426422
1.11194111161531
1.17593127698858
1.11277044316664
1.18227608550026
1.18702741513984
1.13354413702619
1.14645057940856
1.21612187436492
1.12178056056249
1.1585968201584
1.13968389430642
1.1494295376985
1.12597356182069
1.17255092910827
1.13004115263785
1.15253312672288
1.08111092386094
1.17141335249284
1.1179863483658
1.14588635727106
1.14142210703384
1.10495239093077
1.12927922729807
1.17167518832474
1.07841022086843
1.09395306579468
1.10417408482668
1.10845531098075
1.08784975544585
1.13260528678163
1.12306167639599
1.1578138479057
1.09641337245923
1.1033166156784
1.14730421920397
1.12858031717996
1.11307534374424
1.10198147044259
1.0504318130286
1.11954967433133
1.08016670841959
1.07583338600025
1.0531781883913
1.1065109728729
1.04802999782825
1.13680585456017
1.09576524743727
1.12412398146562
1.05872506596807
1.09545490828714
1.07946628623672
1.08277941701259
1.02947406474609
1.0448504304756
1.04990083766953
1.10618542991432
1.02796363135419
1.07314448951493
1.01272147508958
1.07770452029817
1.03568474704778
1.05765785772134
1.03982268124534
1.05983704179453
1.02701446021305
0.998801979895309
1.02358320762859
1.0599540253148
1.00443095631348
1.03166870349224
1.04414285188169
1.00486234014854
0.997279870339875
1.0273420780354
1.00798907504016
0.964238226791412
1.02133535334018
1.03413353779131
0.95942796333849
1.00055417314863
0.974590476034192
0.980888877609167
0.958333890238054
1.00230567042068
0.965359306791835
0.991870135622991
0.972052024920191
0.979492690674206
0.944650709581593
0.978240064945288
0.928388873275604
0.979403919515384
0.944023699133804
0.960823978305331
0.91364890733917
0.913234534032777
0.893421671745961
0.929842159201624
0.915005538738954
0.953224964050103
0.908530551684045
0.929279663040943
0.901492022036419
0.915396518835313
0.917824931549555
0.932848624229786
0.913249717639785
0.912301399481171
0.862376683688794
0.91105949001239
0.869422079825362
0.886481882956878
0.862578941189865
0.893244663931157
0.857583744104201
0.870637592991527
0.869227283592887
0.874025941993454
0.860940148142181
0.854809593873279
0.821477123646798
0.856054574584421
0.836850240954446
0.853705252372119
0.808005587670058
0.819100277771341
0.821237093256188
0.81826250308431
0.791167203113846
0.823913182038522
0.800343650563305
0.817509724061284
0.776602972031214
0.815900481633539
0.781114466718671
0.797078921189464
0.782415751270199
0.793756763740245
0.770505632605741
0.768822660208384
0.761979942723304
0.786341329207705
0.74133486726259
0.775212785495701
0.747293627571595
0.767212364340693
0.761344064083454
0.763558835796532
0.742269654377838
0.746507415140065
0.732101570187961
0.741830037957883
0.731843024700314
0.7305703773716
0.710997409486087
0.735054573242511
0.696304281517252
0.712400247292055
0.704731639508256
0.704249701971856
0.693206811666286
0.702839670805164
0.691242099584537
0.688531281533139
0.680113980559643
0.693987370295386
0.680666690377995
0.687662527372506
0.66760362635897
0.680629984319816
0.663494521075755
0.676133436831369
0.657600058222482
0.662478892408474
0.653266207818202
0.653764305262942
0.64281934152525
0.65409926210343
0.627566115490753
0.643197437976881
0.629205414053403
0.645084409659936
0.629180448874221
0.644419669645995
0.614578362806697
0.631359498589643
0.626962126453113
0.628672218728629
0.603679200604132
0.615977633222959
0.601505264287071
0.606113359663612
0.603087261490966
0.607111698609788
0.594513798647469
0.601975818980633
0.586884369453077
0.590078333007084
0.56947830613361
0.581726900097204
0.574611296695065
0.583551542520717
0.564391637608512
0.581347645180332
0.567215962528188
0.573469211019668
0.55529397405992
0.580211008047538
0.553276050967528
0.557420099725677
0.55125293681028
0.560054033258058
0.530860745136805
0.54186090044047
0.539817671126841
0.534241906273997
0.534280006438346
0.537575462844821
0.530382840638631
0.528589884097842
0.521051010264643
0.53158753609591
0.522407119494356
0.521939770171164
0.500650169034357
0.513926166723794
0.506754328567331
0.510719566068103
0.496773707737971
0.508608171181402
0.496158579405277
0.4977306803363
0.485683266118326
0.4995952214547
0.483202505345975
0.486431218332994
0.480109868050245
0.490232764208883
0.471066990832133
0.488054193091342
0.472962016741458
0.478832018560504
0.464754532356106
0.478577059331935
0.451815085820914
0.465055308884976
0.462542229237518
0.463478603318604
0.446893918899656
0.45544470027528
0.45066275281811
0.458695928106518
0.444432624245881
0.448704887334871
0.430651337431671
0.442518619154004
0.431269072808796
0.442545130603662
0.431870675851855
0.435928485600118
0.427366371423057
0.431934766407051
0.41782961346573
0.434558902068937
0.413905056009642
0.419515741113946
0.410838399456914
0.413405294761388
0.410308549008141
0.416801758093065
0.406970832523196
0.409168211435192
0.395446943224585
0.401455183960709
0.388820505465179
0.398761451683693
0.385301786211964
0.399115949355779
0.385149594388882
0.391628766912614
0.387872879363967
0.39518955734416
0.380222572615899
0.393004886094607
0.379238819073796
0.383368644743418
0.375302940407834
0.382977832868841
0.379267745099789
0.382425430020885
0.379771470345214
0.384571809796389
0.368075318962097
0.37546865964158
0.369703544215759
0.371756689287197
0.367988517162985
0.375959131910703
0.365525000256877
0.370860556978376
0.35719938904051
0.370144124238132
0.361688329004191
0.374423298581383
0.363556868704012
0.374389715906393
0.367929386512161
0.370941814071856
0.359747924246239
0.379093712682476
0.365513490206686
0.373989127651686
0.365317016595705
0.374641691308193
0.373432498907732
0.375612568620819
0.37411177538951
0.380848964221133
0.368760129088491
0.382668077738579
0.380317436554397
0.388108110636208
0.379303076539356
0.386515305635177
0.379792484996862
0.390205037178956
0.381790798072096
0.396966715576976
0.378096984746443
0.387031056052115
0.382617444042845
0.401583110182147
0.393357769664522
0.409598480885425
0.39575116581769
0.402125428108637
0.397045887624307
0.411757105079414
0.398827823628447
0.416429950657398
0.411998627305388
0.424298085497945
0.408401287409575
0.420380505828449
0.409870392814176
0.425005224050714
0.415945482198256
0.432181465080107
0.423239474117001
0.428195629921617
0.424941369565948
0.440714866531226
0.438713592766269
0.453043600640563
0.446491781497418
0.455671382195431
0.448910298939165
0.466197124470069
0.464388913501482
0.480610188671263
0.453281206910436
0.468233616188143
0.457973658174101
0.479966330890747
0.463324883801727
0.477315163164921
0.474328307305162
0.484113991328468
0.47483611256373
0.482965197120427
0.470977034615174
0.482923019885885
0.480908087620059
0.490758179191982
0.476791752918315
0.493711696047583
0.472667892026846
0.489187758790727
0.474240893460848
0.48664962543702
0.46972034969674
0.480048960835447
0.483652918227471
0.476831983448843
0.47886512108247
0.475355977770714
0.466974548197501
0.485155761176667
0.473289571662443
0.480530047237675
0.469929526452054
0.478052863581725
0.471281020375609
0.4765156648153
0.466182128176723
0.477763400428061
0.470174752885377
0.480670974401225
0.463812518020741
0.474465101727013
0.471351342273575
0.477127229765792
0.468526104909853
0.471883123219629
0.470361913351929
0.483778600360037
0.471524211977819
0.478220234223099
0.474325729835352
0.477644022449275
0.472318091179788
0.479392688437656
0.471415324712556
0.479541578852473
0.469293803608897
0.484088372119318
0.46384250178434
0.481517043600296
0.468378690075449
0.468473870488883
0.46969853206024
0.47409141583572
0.46745950425631
0.47096983860588
0.461761534116666
0.472941570744441
0.46070792249102
0.464606856990017
0.454201745218626
0.465880714733265
0.446378433492974
0.456025768613709
0.447256031561017
0.450860001878795
0.451877600068622
0.454215967590407
0.43928745600922
0.442166506011976
0.431380891403051
0.440668330741745
0.432042451953445
0.431359719256889
0.421981118274577
0.427728407776783
0.422363768173111
0.427797931173093
0.413663927640585
0.415280622222194
0.400643136251729
0.404817075257078
0.402940796278908
0.403008507286253
0.388767807738951
0.401829288302238
0.388957403799359
0.390034201735231
0.381676402156252
0.384645521286717
0.376810447706688
0.382279472297628
0.375234154834171
0.374128367249301
0.36104568007591
0.371140786700608
0.362322211683405
0.364825770484002
0.363747453499237
0.360439999166585
0.346300642181735
0.361111884293195
0.343413782458734
0.340356727041929
0.344227144222074
0.345848476844444
0.336070110670416
0.347969973624258
0.335925597768425
0.334312180074142
0.333820084558308
0.336896202958867
0.333754979240254
0.334270589661717
0.327882435461993
0.327683575970589
0.319069591756094
0.326877327419916
0.320516494911031
0.321658702276427
0.315967050120108
0.321524387116289
0.310819127067407
0.313257763595183
0.31032069476819
0.31647179346756
0.306361217865488
0.315851043348431
0.305875330412143
0.312515253862012
0.302618114490165
0.302783489501213
0.293201874639856
0.302237774538448
0.294391203004406
0.294293733423362
0.291214036756668
0.295885347244455
0.296406111491475
0.295610833205285
0.2917911119203
0.294658661785792
0.288923766803218
0.290542836905882
0.283115878390147
0.291986595249684
0.285996180867837
0.288211991707539
0.280318774098627
0.286377959521498
0.274843864028812
0.278218485591245
0.271558589552216
0.276709957838063
0.27640510141254
0.281362730460677
0.271485770383932
0.272941236837073
0.269683862614683
0.266368340011201
0.265647114111944
0.271523739398155
0.263701602562813
0.26573512099902
0.267678505363399
0.274943396430015
0.261864648947404
0.266188686646447
0.261187333842713
0.26043968365384
0.262470829281952
0.26615784609268
0.260313361951871
0.262448764213293
0.254796805411121
0.261981827828754
0.256195010046883
0.255206916245562
0.249547658372444
0.257831109972881
0.250493843439145
0.253068601625413
0.250112251080993
0.25500083104963
0.250283574751825
0.251086905870796
0.250614510824447
0.249465308178578
0.248248484386604
0.248601352902957
0.245732498807197
0.247562915376279
0.242019713866398
0.246913608144901
0.242433420656056
0.245976870903064
0.23512317487087
0.243497046842276
0.239065908859585
0.236714543858651
0.235943816455463
0.241801951594991
0.236512085624593
0.237920044985708
0.236755556219649
0.243909627765387
0.236956736730728
0.243326443035808
0.232607014009469
0.234523715823633
0.235630856545477
0.238074938186884
0.230197589634296
0.241957038408876
0.234249125198476
0.234101625006089
0.229879502294111
0.234567348374122
0.228458766534222
0.23191327773591
0.231017407962225
0.23356114517804
0.226234818631829
0.23266492965837
0.226013007246765
0.234198494234575
0.22769929917287
0.228338853750916
0.225237011985709
0.23074644842779
0.223108849034454
0.227293976095121
0.221197394909388
0.23121554105149
0.221276810997842
0.222836524652287
0.21897503752489
0.225344437137784
0.216824437619432
0.224637272955823
0.217310227329906
0.221135344156442
0.221029544659422
0.225963114367496
0.220435950855511
0.21607870809899
0.216210805965777
0.22093497033565
0.213046128306084
0.217765176360818
0.211130404939569
0.217586335572947
0.208860224916019
0.212506314443056
0.20822193471369
0.215395781284369
0.207694530094284
0.21320944557508
0.207409809598241
0.208555149079584
0.207710867567777
0.210903670774668
0.206236027018705
0.207372917806235
0.201626688481579
0.20473201564431
0.202338481588594
0.202078622624283
0.199080246109128
0.20455985905445
0.202045045231444
0.200157278187406
0.198018100360248
0.203472592794551
0.198773851947107
0.199915938243587
0.196266010088325
0.195677396455111
0.193334904166179
0.198782745661535
0.188088891778075
0.194079484305146
0.188396907611076
0.195817476690991
0.188893743851163
0.192384464744249
0.189391106298449
0.188066443165043
0.186540142231768
0.18963822913519
0.184783447116195
0.190051894920934
0.183630275849276
0.186890666813153
0.182440491321629
0.183084184205625
0.178495807533853
0.182228813784797
0.180741732113546
0.181969711501667
0.174182927054371
0.179258450804176
0.177717079103262
0.175383406581154
0.173242136475427
0.176000230055609
0.170068555144182
0.174337577810499
0.166494219448789
0.169802116032139
0.166634090459557
0.171093335939419
0.169052456453857
0.167783925640708
0.16466186656869
0.16758900264718
0.163148665589247
0.165957509895579
0.160683904808857
0.161839998657957
0.160771570438853
0.159980803413554
0.15627593972453
0.160598936848782
0.158053528586776
0.157670591123506
0.156345841326565
0.155605555701071
0.1544729210145
0.156902003098661
0.150049370737977
0.15816957796137
0.152561621432452
0.150195148007314
0.149031329302439
0.151398837954453
0.147400749969089
0.150860022581988
0.148000156374765
0.14967765601563
0.146139442164554
0.149416391005302
0.146392430346009
0.149005656291811
0.14471897999346
0.146840836339463
0.145329716399425
0.145833442485271
0.140520533528298
0.143480601087285
0.138388332512436
0.145640518057142
0.138278490685259
0.143616765389124
0.138845048086859
0.142049025327218
0.138585302986751
0.140959486908544
0.136166535789062
0.14222197367127
0.136247256399543
0.135966668137863
0.134177123676869
0.139771920518393
0.132879830204627
0.13883374855403
0.132942432088764
0.133952745319823
0.131782013634068
0.132596847443141
0.128100352438235
0.136444595790348
0.126593083626178
0.13420580166197
0.129155947618035
0.128899655724741
0.127962672460122
0.13103060477348
0.127289673830403
0.129608397708673
0.125334923320601
0.128854410600857
0.125407206712239
0.125991979016289
0.125788050251473
0.126899914248159
0.125531873238671
0.12781893929119
0.123676367128313
0.126277210100927
0.123783612587975
0.127641929441945
0.124312236527667
0.125654645450253
0.124283416653763
0.124830127674742
0.121979325102783
0.12447152309786
0.122016023819624
0.126266612216191
0.123650905852341
0.124475924254337
0.118446441262522
0.12188368107798
0.119183491362075
0.123820015635957
0.122120490500718
0.120676465687027
0.118884350291472
0.124676136281798
0.116702571779262
0.120277564055977
0.117376831507562
0.121331661397922
0.120629522818687
0.122371367363382
0.116867710480937
0.120639559714787
0.11917856365974
0.120378034755622
0.117971090048929
0.116373596495337
0.116384743675473
0.117282575846742
0.113155162286117
0.119396231920473
0.118134034458303
0.118100312451103
0.112389679016093
0.115370640372655
0.113213422165426
0.113342893774314
0.113726363736368
0.116881047893589
0.11214684538361
0.113982213890421
0.110137608766373
0.111511686988062
0.110996301304229
0.114849856235703
0.109599140477033
0.114748555734535
0.107524012876221
0.10934443629644
0.106561580449893
0.109118961615382
0.106313792439028
0.112158675450969
0.107955685860436
0.108565298718588
0.10869024859345
0.110629472597574
0.105706773502196
0.106366762029522
0.101413294319631
0.106790730092724
0.104921882038525
0.106683849170871
0.10689620711319
0.107828464607256
0.102467665950496
0.108187604002421
0.10254887752407
0.105825009358288
0.105817333138431
0.107148561458244
0.10308077668659
0.104936850898035
0.101962841679894
0.104635353488485
0.100765908735837
0.101587211189989
0.0996703768197201
0.103841833850827
0.100133500091887
0.104911384555614
0.0980441942181504
0.0998861350261762
0.100814134497366
0.102356813447603
0.0998775052588324
0.100830933014765
0.100861018723295
0.10160263667912
0.0980391550901786
0.0981251525009623
0.0981017294922492
0.0969069572077584
0.0942090260918931
0.0986416316333211
0.0928433144639674
0.0959531378311088
0.0962199610557863
0.0964294889499314
0.0922348322975608
0.0931705056040212
0.0917059507934441
0.0935478875869496
0.0912150876266908
0.0917424513387421
0.0907001056010533
0.0923397351825959
0.0895115926192406
0.0937946667427712
0.0872950315261812
0.0931750453399979
0.0888048453156634
0.0891582585113883
0.0860358106727177
0.0865340882840045
0.0882637412824951
0.0884978490379556
0.0862446675536186
0.0899072927573584
0.0865642647670436
0.0865319205966788
0.0835164342476804
0.0865435920180476
0.0870212198467414
0.0856825740409724
0.0829557324173021
0.0869810579409179
0.0819660320486008
0.0867247312722529
0.081372276281435
0.0855062899603745
0.0813806451183549
0.0877044789786605
0.0794458301726318
0.0820388510563417
0.080279816529182
0.0822389186572085
0.0813036149681608
0.0806531862357739
0.0782060719990508
0.0812169444576334
0.0796706196330291
0.0784455778988027
0.0766733141589094
0.0792682994763043
0.0824846318495366
0.0789382310052561
0.0757466607145166
0.0789215699472107
0.0763274571217574
0.0783341537286557
0.0764413298447859
0.077830013514141
0.0789321727493758
0.0750332050431507
0.0744531613698123
0.0784939324330108
0.0727776831771214
0.0752987781468416
0.0731829041034065
0.0751406729636222
0.0761876580130137
0.0770175923421127
0.0722820657757165
0.0725163364691536
0.0696632082726727
0.073906940905777
0.0692442753910985
0.0735283757390878
0.0712592401484485
0.0727242513029649
0.0698797977075974
0.073661401982225
0.0698300592027732
0.0684661075008679
0.0678648368002762
0.0711072653628559
0.0695403097717524
0.0720034865890024
0.0706181336550264
0.0692234814371318
0.0660011327386926
0.0703778195660323
0.0680922206537546
0.0696655365506403
0.0689157780738808
0.0695856238827489
0.0690666718360372
0.0683531195544317
0.0686143253359037
0.0694386287407798
0.0686362198481076
0.0694243972578698
0.0668119355775475
0.0677199020490345
0.0667306953743969
0.0662995411635919
0.0691881782286015
0.0691403800384004
0.0636751831403093
0.0677707496545257
0.0639414654192118
0.0674664107659691
0.0641432011939091
0.0677350550896061
0.0639463551737251
0.0588831840147357
0.0561490236932359
0.0650670843487939
0.0647459216058131
0.0689129582065539
0.0666864776036361
0.0622038866507213
0.0582555474398555
0.0700403865487348
0.0629773165881881
0.0610419675896833
0.0592877283948574
0.0635000907399704
0.0604531340015867
0.0618247766424707
0.0609879017732357
0.0666229559168407
0.062973616928702
0.0671346202480117
0.0601288717822047
0.066866790740613
0.064847311406422
0.0702227450330002
0.0606255871573799
0.064432418611994
0.059662507259001
0.0606200486066201
0.0609644617514686
0.0610813467251851
0.0635024357631848
0.063674765575709
0.0621379597012077
0.0630400186015033
0.0643439600293254
0.0584526955106318
0.0612871119408674
0.055308939380976
0.0639667449108552
0.0532625673784756
0.0661214492465844
0.0517953688507989
0.0729454644495993
0.0527921023315572
0.0752787868615624
0.040747950368769
0.0735810390395555
0.0452934321888401
0.0869896960025699
0.0402525643366578
0.0826717551732207
0.0317746454356266
0.0931819115725291
0.0382695245943511
0.0888324158342984
0.032220837016698
0.090751235610024
0.0422471586461355
0.0767549742344728
0.0495745070148793
0.0775626618788216
0.0548475409512468
0.0641911622858341
0.0644894102599494
0.0569401669728873
0.06646468190347
0.0574453905509603
0.0683349301006999
0.0542499045880377
0.0678915676336375
0.0596186670819977
0.0619327389084401
0.0590023637249506
0.0625452603579314
0.0602396717908222
0.0607283375304357
0.062736241898061
0.0604377545951295
0.0583365197344504
0.0620105450848125
0.0591956683853831
0.0604820012261441
0.058377209562231
0.0591796100731441
0.0624142773932431
0.0626817582743211
0.0623464201252376
0.0622227801079145
0.0600818666952923
0.0604967298441081
0.0590517719887503
0.0601917497854843
0.061206189101103
0.0624574318462635
0.0596020240027145
0.0584058167556089
0.0600591072201291
0.0608685376478698
0.0605286180026997
0.0614801146440171
0.0599761765276368
0.0618804558480689
0.0617194521002718
0.0622092601635249
0.0605476734470133
0.0616650809903323
0.0583777086600684
0.0605389175915141
0.0619096569032712
0.0605298169618934
0.0605309736300811
0.0638021136811724
0.062519530580958
0.0628949178721673
0.0611873459685315
0.0624312336791202
0.0609596375151509
0.0607126259424483
0.0619164846185524
0.0633635502709189
0.0617192486306828
0.0640802500412552
0.0633503219783294
0.0642352775691124
0.0617941810995111
0.063353178341899
0.0620042126867356
0.061109309030675
0.0578685911145557
0.0619058620382884
0.0625279654957852
0.0636601925789815
0.0635139610712968
0.0637938202598902
0.0611307558105245
0.0643961623685858
0.061349259252252
0.062605704828461
0.0614849872917926
0.0630916505075252
0.0608255865703129
0.0636531676172319
0.0626314237542507
0.0629462619030495
0.0632503298532871
0.0646459334660886
0.0625271874644749
0.0614372484369193
0.0638099959544193
0.0624481162718989
0.0618868975370483
0.0662247352777451
0.0609603534968366
0.0628924668515548
0.0632524159847851
0.0637769845308755
0.0623416796853036
0.0650010192515322
0.0644020100488822
0.0657958864363037
0.0622197851156619
0.0639372486636661
0.0624730048123062
0.0663704084193743
0.0625049103902989
0.0641590988174497
0.0665104337858949
0.0669549920901148
0.0643602900780388
0.0656929583695932
0.0640039143358443
0.0655723346391261
0.0638821234820297
0.0668413481010659
0.0655001232973526
0.0676677839992449
0.0652432064283918
0.0656081026216912
0.0652122531216161
0.067303561342125
0.0659105348577812
0.0672158999503333
0.0648281932109798
0.0669814561486076
0.067347546066875
0.0697068573967091
0.0665960417518638
0.0678533754698292
0.0657990821287676
0.0696600303412027
0.0697949449504626
0.0695837995021014
0.0677570146794107
0.0704141257266801
0.0667144029696654
0.0680533129114611
0.0668154711079038
0.067936988758336
0.0661260668989896
0.0671153508572977
0.068375577782306
0.0692531146676667
0.0685203258447434
0.0699520016612218
0.0680567910616289
0.0693923517167496
0.0682139242624515
0.0692870989734181
0.0679952342377983
0.0692641160499986
0.0694743756217912
0.0706151899589913
0.0688563383549572
0.0705908744000964
0.0681565062171373
0.0711437248360266
0.0691282246796509
0.0699943268866485
0.0679213498465521
0.0727522523107623
0.0714096722075696
0.0726432768852926
0.0712954016129796
0.0727674117079276
0.070821483040753
0.0729447348719333
0.071455066181092
0.0722910635550542
0.068908561371099
0.0716040885536013
0.0706694549982488
0.073665030746663
0.0695809581846759
0.0725298646380487
0.0720248333601947
0.0739155488288346
0.0707402857997315
0.0726927164737522
0.0727258901449959
0.0740276610397834
0.0702906658607131
0.0723118501983687
0.0723783762661964
0.0728598655180262
0.0735011806649854
0.0735327103220278
0.0717410224579038
0.0739022272982014
0.0722092409727828
0.0729498607890961
0.0704573021618903
0.0714894226718382
0.0705253651876492
0.0722424254863539
0.0720835430831615
0.0698823078619817
0.0686949536715075
0.0717483345824732
0.0688572577242123
0.0717343280836349
0.0690780515774145
0.0689207032154044
0.0692875466496181
0.0699362994398845
0.0685659725736497
0.0704871500292825
0.0675946464004652
0.0689378599392589
0.0672322754700012
0.0711131812855626
0.0673969466152995
0.0710371481664504
0.0676355011080789
0.0694967086429201
0.0691522639266702
0.068839130609813
0.0686904090024605
0.0709088671535568
0.0683933091151645
0.0687746295579727
0.0691176016806318
0.0694855658577638
0.0669379312636664
0.0700592618716377
0.0664462344288188
0.0687021443489176
0.0668981532711303
0.0690316506711532
0.0666624326877556
0.0661712354715512
0.0671472537521009
0.0702182889487157
0.0666290100312539
0.068221904122738
0.0662969762157345
0.0687678411146475
0.0680493294086229
0.0696028240589847
0.0655500898767087
0.0668937375578099
0.0644921078675134
0.0664424007689507
0.0666572997778317
0.0667160343618878
0.0670446494664345
0.0667720913748229
0.0664793040625857
0.0689932304327049
0.0655517035351444
0.0652476601565171
0.0662492836350744
0.0665703326725908
0.06258062289518
0.0655936400477267
0.0673747832575135
0.0657331879710084
0.0638607094301972
0.0681492127348862
0.0658507736697548
0.0665990315837428
0.0638075479952135
0.0680028329761696
0.0655584043741913
0.0635724746114622
0.0655829312805532
0.066765482376471
0.0650354405968598
0.0669455823056734
0.0632393949586172
0.065025649938511
0.0664892728659485
0.0660220536348241
0.0651926062484819
0.066023929743493
0.0631242234454591
0.066187292961551
0.063940165774999
0.0632797757817132
0.0634520894004763
0.0647388864731654
0.0642090468179385
0.0640369241094372
0.0623710564048317
0.0659825666412353
0.0620149317077446
0.0650502107613028
0.0629999360733959
0.0644934384119641
0.0613735970851146
0.0633859940247512
0.0637895833163454
0.0632348559735941
0.0623940934959208
0.0641233600088166
0.062785924493614
0.0633487802238389
0.0633673947909311
0.0616958241016026
0.0579997778560682
0.0622645517509781
0.0612028217320751
0.0614006895156861
0.0612534918124945
0.0627901199399428
0.0605776720140795
0.0639947908690378
0.0622877701482022
0.0608315558458015
0.0598318520700397
0.0613949317608642
0.0600502640681905
0.0581511183444622
0.0584040578805941
0.0597341432777665
0.0589393240203381
0.0610221475642261
0.0576083884696418
0.0567510050327188
0.0555748160370018
0.0578620929341837
0.0567284323689034
0.0567536504871947
0.0549563750520787
0.0579173845270227
0.0560757898095683
0.0561169298430759
0.0546691423395453
0.058905717040637
0.0547148665437632
0.0547252777553171
0.0534504140541799
0.0565016151236648
0.0524279717333582
0.0573316157937176
0.052300036235791
0.0545587486548976
0.0548654552384869
0.055257806521369
0.0518499614235974
0.0548499770950612
0.0522800277111541
0.0532133668662037
0.0520399660085045
0.0543266379326306
0.0507706954394448
0.0533066211637678
0.0495443473178232
0.0571585475147705
0.0534721393379667
0.0548633033148982
0.0497915666840416
0.0522833412557619
0.0513880167706566
0.0524124415532319
0.0505863013424143
0.0515318198110851
0.0516985121786824
0.0509619869251759
0.0499169346760756
0.0529285451462811
0.0546217703196055
0.0515556705201577
0.0502431266474571
0.0522770227441077
0.0502766849106472
0.0521012795827114
0.0499805858625737
0.0499483429844632
0.049254936066576
0.0523745671755228
0.0491196012942899
0.0508912197792434
0.0479411218084919
0.0514189732142722
0.0533531747111395
0.0527693404540731
0.0516228013714583
0.0519201092806415
0.0493340268003517
0.0494426062805398
0.0510540818307578
0.0480574842093814
0.049475087954168
0.0510779352755459
0.0483463492291553
0.0498351862990496
0.0483220478785789
0.048583645413984
0.0477855208358062
0.0485646477899902
0.0486863364113697
0.0479447012478291
0.0467907759663314
0.0474251308595865
0.0489911364245806
0.0459382878321476
0.0492743837419475
0.0473314637542382
0.0514869083188775
0.044727654948572
0.0479352206769249
0.0517231509774596
0.0495050986613646
0.0486795749946332
0.0437874078945328
0.0479763112504163
0.0437709713607302
0.0472415258268325
0.047124494679234
0.0472425301616708
0.0449085935572852
0.0479204614981308
0.0471779642378244
0.0460776390373253
0.0457100160057799
0.0468027536419103
0.0483145754622008
0.0480616559621044
0.0451276430330632
0.0483440903317395
0.0443474129473023
0.0454136658954396
0.0502343998277355
0.0475430495842234
0.049028862093605
0.0465551226350176
0.0412127225847555
0.0584099159459292
0.0446001341177165
0.0514219285010211
0.0438447642393319
0.0496208169847226
0.0434120794593446
0.050000156759785
0.0429365132925113
0.0503902252043849
0.0442713456733197
0.0476400719517734
0.0466931064839173
0.0499290320511432
0.0449712606068477
0.0472483265708456
0.0440802825212562
0.0458019931441102
0.0434211513603073
0.0460713350572173
0.0467808286333582
0.0462101387561502
0.0419492243677154
0.0496032124242028
0.0431647872091313
0.0516219187740157
0.0444543882696414
0.0485041841119537
0.0438856712832558
0.0499092163781727
0.0424121099030134
0.0468748800743509
0.0458744584099728
0.0477951486415907
0.0471914545250504
0.0464878173688978
0.0460008430976489
0.0445780734010404
0.0472923763630496
0.0464644076146544
0.0466084465760969
0.0459825814995932
0.0474924376574659
0.0472610142024188
0.0462215407223182
0.0451337389723147
0.048549721470127
0.0460116306362953
0.0447572396509048
0.0483724933920026
0.0457198428960809
0.0478394363023605
0.0398787174643144
0.0577213079010221
0.0482434194620958
0.0567254784074264
0.046041194434516
0.0497215654172432
0.0421270632139005
0.0486310621167722
0.0447846069155444
0.0473220305474292
0.043869721644762
0.0474158764963522
0.0455055844501614
0.0490630862469895
0.0463976708540735
0.046191101116802
0.0434737436798155
0.046876416800919
0.0467277003350323
0.0475627979822983
0.0453037469144126
0.047060573669073
0.0463389490015893
0.0439147083309102
0.0475641534803856
0.0477835702201552
0.0511773009176187
0.0335492043417516
0.0611017767279635
0.0452591451690171
0.0552196680505538
0.0443454116783681
0.050177590085103
0.048490771953349
0.0483427517141866
0.0481327212037836
0.0506674404010993
0.0469842961371239
0.0469245616845995
0.0479701948692416
0.049244111956855
0.0484216174480729
0.0419320997249246
0.0567888135707952
0.0581483907439215
0.0483566564665778
0.0570709215708049
0.04166351509151
0.0527304921753411
0.0566760677665015
0.0483827617012116
0.0526611635260153
0.0485869344008664
0.0518977025442104
0.0490726803093191
0.0521334811427061
0.0458599886801585
0.0537741716815639
0.0474567319429741
0.0519306819368393
0.0483939858873535
0.0496310671752175
0.0507042550718911
0.0514290874021249
0.0518315476867705
0.0519938565441719
0.0513510673478135
0.0549335968320813
0.0486854796376935
0.0526233457004468
0.0509649102237415
0.0546503797912475
0.0479028858274977
0.0601080612787515
0.0525481412620737
0.0521439284955663
0.0564429694711991
0.0574559599022994
0.0498598498125233
0.055096974037285
0.0522755889522737
0.0645610279274322
0.0402008105515581
0.0661222847356593
0.048682134463742
0.0686788541421793
0.0565056756480875
0.0568788484106553
0.0541420176442734
0.0552119001752298
0.0550412897408168
0.0529168476613604
0.0633570842447113
0.0513913997221812
0.065512318846266
0.0480594780276294
0.0624630859868896
0.0553593622138262
0.0626540192335873
0.0547101658691769
0.0613362078923612
0.0522989236900737
0.0679488135774463
0.0525605444265634
0.0569671756029874
0.0652584441808887
0.0579859551337137
0.0740575618822754
0.0575636919210236
0.0641391550211409
0.0657032296517222
0.0615367180456513
0.0672672292862436
0.0562681669969671
0.0678962075314057
0.0531118943321754
0.0658458389604487
0.0745479766941793
0.0623314355539367
0.0687583474009476
0.0614782832144825
0.0626784576854783
0.0758014235273214
0.0677046522874891
0.0684158992327838
0.0635607672664122
0.0688214013712695
0.0525078342244471
0.094189986522508
0.0606270028481434
0.088141140418545
0.067433382508519
0.0839575176324129
0.0721318521467599
0.0828891850357983
0.0699191236294726
0.0805961559623993
0.0794235292205823
0.084237694211198
0.0668190439793898
0.0917182514651497
0.0808057831801912
0.0850335249413025
0.0854032542967111
0.0806769507253838
0.0781412302357364
0.0835623135354733
0.095090854545107
0.104445732469944
0.0890225250622144
0.090716298508637
0.0972087292906207
0.0918523789060377
0.0936536829998569
0.0934830047585581
0.0962582498145011
0.0960241287545681
0.0962443495920062
0.101964628215489
0.0938130972016356
0.108079281811365
0.092336236019409
0.106799329196773
0.095616112922332
0.129115431768736
0.111229195640834
0.110447997679928
0.116455424456595
0.113021481883923
0.122457042419993
0.11075157521015
0.117669081588006
0.114772129315463
0.122604545746531
0.121593095522563
0.117098569528653
0.134696135718294
0.118967832960248
0.148222821750644
0.135025643776718
0.14438249847311
0.127097637431832
0.129562487037649
0.192607564074857
0.14800384246752
0.175841044044067
0.137391198214633
0.186139433900993
0.165868160602469
0.185359799273972
0.17851770884281
0.186207320193564
0.184203834124262
0.200392976498741
0.196827800388712
0.210132504531348
0.21239742334648
0.222541663146044
0.209574865237872
0.235838600932128
0.221851295181911
0.282189649619379
0.253140073829013
0.262641204064771
0.258936218574406
0.280350951698994
0.269896473038253
0.295917421205968
0.271377253350906
0.311752781847597
0.299336449233609
0.322694043007166
0.30975038175461
0.325724184780689
0.333726528890975
0.326524780339136
0.365949557237926
0.349317250471921
0.371442721614058
0.358708043880711
0.376933441292749
0.3729745732233
0.376135571433975
0.398747483809405
0.401618204866289
0.411774766746086
0.409003402714636
0.414675601054111
0.41486700773595
0.428660411943331
0.41953167293037
0.426754766612747
0.434383809366595
0.423126002926348
0.522624775809057
0.456028802630332
0.468121940035776
0.450116192323126
0.449529165977174
0.464459424288274
0.440881331542748
0.479121459619845
0.457013495552564
0.463576735784097
0.44727121711966
0.46359112073715
0.461407515579931
0.458184682874735
0.457576529643018
0.457056719551354
0.473215463243455
0.431056010313487
0.484288306272441
0.476078563447663
0.456222971766265
0.442483700239103
0.46124076078507
0.438857923790919
0.448925215372904
0.431271485673824
0.452821671541451
0.446489399504955
0.443307182240958
0.435106119567836
0.414429766685733
0.432947401795097
0.426536764845526
0.420005162621879
0.409650289906299
0.410315257959032
0.411685050052031
0.384067227332705
0.407460895824915
0.409136156774743
0.397964258778355
0.388764886948157
0.378438995817756
0.382814359604302
0.375207582456824
0.376388439136142
0.374738843223383
0.369267407949109
0.363248387456612
0.364517953591528
0.362296404772125
0.357046070892505
0.351849492371514
0.364409064694997
0.3520662106793
0.358170836346481
0.352684355842865
0.354041085128285
0.345361749930179
0.348771921911806
0.34216225048174
0.343766706859048
0.344515640348051
0.346293199720985
0.340013005470193
0.347100377872692
0.33994563492016
0.346634606416194
0.338881151617704
0.342175370919946
0.334942858836979
0.335109037901634
0.336806672085061
0.345762921932792
0.337232398624061
0.343337866083481
0.335667382054188
0.339515368043124
0.330820889040831
0.337347075002458
0.330808351609801
0.317475700321186
0.359319996702543
0.336347652126839
0.344721550846172
0.324675001059028
0.335878258098205
0.317579618189465
0.318948146799817
0.338670841262368
0.321803346796119
0.329106961063554
0.317999218579157
0.312628307515811
0.328016868134092
0.314175778431516
0.313468733145771
0.320112112403722
0.293709888610459
0.344094916435936
0.281180488861642
0.355573206033031
0.317221021797278
0.329986277322304
0.293427384839245
0.322051872747494
0.305104188525871
0.311680704242639
0.300556452773311
0.29400801266156
0.307982835906871
0.295441536140189
0.307465129646827
0.293595439080393
0.286932467552541
0.303395535077648
0.30300779973269
0.287358919885993
0.296572815259274
0.294078709252569
0.281087140125421
0.284990245301694
0.307330959039259
0.292366675824742
0.27691541752713
0.283364459309485
0.263069146094695
0.27792286463201
0.280590067748541
0.266234512893674
0.272020000124128
0.257608190681306
0.261247098913141
0.249509839271423
0.268441682954259
0.24566992462482
0.251961151619739
0.250914774660779
0.24624331343662
0.251447925193718
0.229789833471037
0.266769346023465
0.249536347755167
0.255754152740238
0.226451040785838
0.261601756619307
0.233078830581552
0.241869849179237
0.235567001808335
0.223383547106831
0.227802163225656
0.233407774335598
0.217931304951894
0.230003708134197
0.215345668460136
0.224211185409031
0.209422574067469
0.228789378063541
0.238471468511508
0.219665881568296
0.215639750019597
0.211413482935502
0.213527992515708
0.213365460656106
0.194873702618884
0.2314620920838
0.201882384150811
0.219509634453107
0.212295040980101
0.219441982693519
0.217183262131084
0.216118591193378
0.213200021173485
0.219168003456388
0.21934472519528
0.240042480107818
0.214504990486439
0.236244599175257
0.222535989629757
0.240123518595084
0.228589299900194
0.240957893620175
0.237194690779953
0.246010513326054
0.247637746468626
0.256595592558402
0.253342359123983
0.271755984297935
0.25536844779569
0.290441206606868
0.271277155422702
0.28869602604609
0.286565013451684
0.297200728573077
0.315454580294326
0.313645304815059
0.321777668923151
0.318637768186932
0.324086132750733
0.332571338456397
0.323892488050244
0.343696282315942
0.347527823484086
0.352824333878531
0.349841302645153
0.358715696361767
0.357051030162269
0.353186305737152
0.378524738391873
0.356997597800989
0.415990776571265
0.368136400402791
0.399453446148915
0.379027211209596
0.382812515444186
0.390697349624944
0.386132561516661
0.393856387715888
0.387365444557556
0.39348002065558
0.403361475476773
0.400166828845015
0.400649916392186
0.399644161928875
0.401834918690512
0.402944835467554
0.403413199203154
0.409072412056418
0.404379903502107
0.421062402759466
0.407183329416084
0.420719847697812
0.447277584494911
0.431291064645957
0.437708113481426
0.427854238790186
0.443967725319959
0.435409148794198
0.443256565696421
0.439553456799991
0.446253840907621
0.45075570820897
0.446016509767642
0.455935955851085
0.451077705190864
0.461063376207189
0.467762621626259
0.459000290824848
0.471172738923297
0.445187082743325
0.491590419078566
0.471283962869145
0.48711786791117
0.476478730849392
0.487904687842601
0.476158054096714
0.4836382440772
0.478935312278114
0.484917305209062
0.485200365390695
0.490271968886049
0.490963162153524
0.488805223235882
0.488033487058753
0.484081548335043
0.483521275754303
0.486014532652226
0.485904029174969
0.483149405513122
0.479787986575942
0.482660993268643
0.475012212702725
0.490051593945823
0.483661866490028
0.487701159014841
0.47159636532755
0.483455417121625
0.493823391901264
0.48322780739069
0.480887762159959
0.479817691369805
0.47480565980895
0.486572057942375
0.476668717919486
0.4869557641838
0.485317952583238
0.496972067002372
0.48497438734469
0.49086140966569
0.488313733727225
0.498570827049215
0.49746515373334
0.500753138964739
0.499010088135175
0.506553401387857
0.505322027449131
0.506105429662071
0.505277288261014
0.501023246310124
0.509403676143643
0.512475623667877
0.50387009791206
0.506711388759862
0.502221816642452
0.504640173765026
0.494381271632952
0.500231800239836
0.494548975051268
0.494043664282408
0.477804570402945
0.483611058241775
0.485029452496407
0.478289655178517
0.478548056865696
0.464044810634544
0.471218460740666
0.465847871817685
0.464502294804886
0.454600301377963
0.455026740138688
0.446740408969572
0.451438187852271
0.447520221517421
0.44856160196937
0.445175153981424
0.445548516594625
0.44229089724352
0.440772832201294
0.43872785875949
0.438472779842007
0.439795970268913
0.436031821473876
0.441983585086709
0.435924623813137
0.434777704685431
0.44156464344216
0.432112757094421
0.440670319424674
0.439014359314645
0.443770777524998
0.436344952210195
0.437106804360015
0.435202999118623
0.437783669138898
0.431274657602951
0.432128812577485
0.430373572175746
0.435589394002104
0.429637225186735
0.432117890618942
0.425834647287661
0.432780955067808
0.426944100873379
0.429871347750268
0.424026314991836
0.423942106717755
0.429118846268601
0.427756662386693
0.432529759912056
0.421913095620175
0.428975926951687
0.424336117356132
0.42730571202973
0.424163615992917
0.421601963839635
0.426168388455037
0.423675203108986
0.424580101204177
0.422088297119631
0.422275483795497
0.420947626923483
0.424452330808912
0.419499622852714
0.418873085553203
0.418552694541203
0.420792740459756
0.413363091212019
0.412059524547119
0.41264717738182
0.407716272198823
0.403308145143878
0.402980811942075
0.399838187707886
0.396873477261563
0.39414930569374
0.391537503288544
0.387978489426646
0.385435187408597
0.380600507620224
0.374541113195677
0.37445258838131
0.374949830488027
0.371217786558876
0.371947468989977
0.36950889901476
0.370966692010612
0.372295236871734
0.371739866899654
0.367637104747546
0.369524391813093
0.367605580479777
0.368167377391638
0.367076210947153
0.369837865758274
0.369253069731764
0.36935358322328
0.370376104111346
0.372932043304106
0.377659030775535
0.375849424131674
0.377054600267697
0.378050240647001
0.376622733898052
0.383244934142962
0.384726159420227
0.384076816482075
0.386730149449246
0.387570695041746
0.387530601536948
0.390690920461334
0.387628840777867
0.391047023191993
0.389846620923621
0.392259207463628
0.391664624398688
0.394352844201468
0.390426452946927
0.388918250712588
0.387815629714307
0.388340757586475
0.385846415879305
0.387195470645397
0.38530573444905
0.385353954335953
0.383029219345324
0.381912922530843
0.382543277073378
0.381497802001111
0.383239215245677
0.377275877016225
0.376227274090379
0.375760714822015
0.373968646526043
0.373677283200683
0.374246539299464
0.368396321936142
0.368169874357413
0.367257817429208
0.366450915194287
0.363276571984986
0.362543796134493
0.362477218064111
0.361543531302161
0.359290672328188
0.358324558574729
0.357922783505372
0.354095305513226
0.357680031792124
0.351088384163619
0.35171876988122
0.35145419840461
0.350165531803118
0.345472822002484
0.348698609392851
0.343905633918587
0.343246963453878
0.338364095297972
0.336827599269641
0.333299700868661
0.331680412837385
0.32981105873346
0.327177186509442
0.328410954325496
0.32239340584957
0.31922952727513
0.320029110949061
0.316024684185504
0.313297610549184
0.314013438559822
0.31418553121584
0.311833969474841
0.313346661199537
0.311604060674246
0.30991195984916
0.312455078968531
0.308813913818881
0.307522498338525
0.307336758172644
0.304116828287961
0.301108004717997
0.300297009774334
0.299045251698441
0.294614406699364
0.291711516124593
0.288133848668606
0.281029040555705
0.280121272326365
0.275061489698958
0.274220935396132
0.273788401820229
0.268351122691924
0.268906197547031
0.268843667477682
0.270477884791196
0.276882295180058
0.278361185148422
0.282861869364119
0.290356602289722
0.299530237798403
0.311269996261046
0.318946459028421
0.330605463201107
0.3459486794365
0.354502918014994
0.371258242427186
0.385612315950313
0.398181842647113
0.413510150920587
0.425991263708003
0.440511633911364
0.453599877182461
0.469112804958462
0.483420634890913
0.499839537980842
0.514442298973427
0.521376008546934
0.537527251039794
0.552562851553485
0.564722539946789
0.572142490905592
0.588782444884101
0.599029916663362
0.609301812878263
0.616374509955607
0.622194139850166
0.634922870363085
0.642724860265084
0.647140125431999
0.651279119745517
0.654636102055043
0.658900569013487
0.655663725801532
0.653906519215957
0.654461625327374
0.658143872314977
0.659064685434464
0.65152767698357
0.653846006134397
0.651409134551104
0.653540103255682
0.656467888761834
0.65453458630059
0.657802062914484
0.65344289216235
0.660151868869791
0.662186159370621
0.668768936213227
0.671231796031982
0.677909093840411
0.684511593500475
0.684679727775214
0.695300294885329
0.696553309320226
0.705204116090777
0.713004290033553
0.727924620625492
0.733812726780587
0.741097931649933
0.760337986140492
0.767369832620719
0.774315866544223
0.77989337666269
0.78662685623092
0.80749531574281
0.80138440517834
0.808514449706073
0.806823689422354
0.809690872049913
0.81419651821977
0.816944954267864
0.817943749637119
0.807619174581158
0.808023743766361
0.792977809084525
0.806226640099594
0.795222530389365
0.799039044814866
0.807860034303859
0.804608653366673
0.813028863226968
0.817951470406405
0.831412614642295
0.845262274022208
0.853059156743186
0.865567375068193
0.874310116285965
0.894858681594428
0.8956762461387
0.905774198411178
0.920899931013195
0.934826366645033
0.951576877252232
0.967107181808253
0.958065871485259
0.991060231518106
0.993707956186885
1.00758934391302
1.02948960874526
1.0524053401149
1.05570494591475
1.0812546301555
1.09528768731024
1.11178121967228
1.13960748495904
1.16082227053917
1.18491066588156
1.18692467419479
1.22440675696236
1.247345959192
1.22848789977464
1.25426998575458
1.30950153816785
1.27002776935904
1.31787524279708
1.3064208007464
1.31322436623873
1.31116928798673
1.32436487559449
1.34142725077348
1.3084507833565
1.33599625985036
1.31457221508988
1.29792036823873
1.28581304066734
1.31650741307288
1.30198200455992
1.28691576661777
1.31795294235182
1.26961175585096
1.2825922490304
1.30542240242615
1.3085403233219
1.32857874600079
1.31734833165362
1.31889200578778
1.3407261184586
1.35652638968347
1.38326126337451
1.40165008874641
1.40221657394111
1.44231395047849
1.43168017977459
1.4614802572493
1.45360297202144
1.48050000659462
1.46028590156511
1.47510324527165
1.45967562052831
1.49617472759946
1.4850350653165
1.51055381782331
1.51986147598564
1.57773275689754
1.56268483479869
1.55512443353441
1.57348267680206
1.56781682293517
1.57591609324841
1.65470972710917
1.5636472294311
1.63671698529384
1.61940962419284
1.64596293769706
1.58982160107742
1.65527908697563
1.65039058467895
1.62755518309417
1.67151639800955
1.68969364791807
1.67168788954244
1.61290667722783
1.66537769532759
1.62254670187309
1.55604161859275
1.58148815807712
1.53919642753493
1.5702086584215
1.50426177095363
1.47403342130249
1.39851686843033
1.3800014390259
1.33396029226538
1.31443184342371
1.22917401933489
1.18579682961287
1.14019848573394
1.14406271672778
1.09095501120048
1.08009735349795
1.04993258660746
1.06790527778026
1.02794302347341
1.05108360855381
1.02009304679676
1.01361989115977
1.01458853936884
0.992672593437656
0.994624596533331
0.975994133216498
0.958207593301495
0.946753519689961
0.929927206459978
0.905633932502425
0.87376502535924
0.885034381523032
0.851043196048532
0.832718067966337
0.803553228996545
0.770968831158995
0.74957711813482
0.730746062265197
0.691926429674323
0.679617221948978
0.637134790199923
0.613257547436773
0.580917729649555
0.560679518399706
0.536240816583434
0.504358884279383
0.486356592251216
0.467105504469739
0.443643167246925
0.424872562108317
0.407823021850399
0.394066163620218
0.381764480601009
0.372432892881689
0.358753157132856
0.352437358109077
0.343244912657967
0.326298221019106
0.326902334703472
0.320739880627858
0.313635439152636
0.314234130495805
0.310554479918195
0.307988640178796
0.309313269915144
0.302221519985971
0.310418040422499
0.304662962082685
0.303114065780082
0.308406681414013
0.312182334559661
0.311848065606709
0.316155189188672
0.319792402443283
0.320182233241602
0.324642787898748
0.322771346920359
0.331724177724743
0.316182459502182
0.319940243785692
0.318328591291804
0.314997815273391
0.317280758314169
0.312985657996917
0.30975383977876
0.310903236847158
0.30523564077885
0.309153288301509
0.305335704668819
0.30796583899495
0.302843353332323
0.308989633266469
0.305422319661235
0.310692723004792
0.31149044821704
0.31920139986426
0.31889824755005
0.320074014886959
0.320197321118604
0.328672369036918
0.328682547967518
0.326640907131792
0.323664057416995
0.337308738137462
0.337722794504435
0.337654435552197
0.335449789631286
0.338728494988309
0.333994042511197
0.33944900063366
0.341678684842682
0.341017748308729
0.337886766699184
0.332811111184651
0.341936786252226
0.34327507407434
0.341271802694591
0.351681885987452
0.346564178543396
0.357012383716743
0.367802826976545
0.369177245567885
0.375028462381017
0.386599180413921
0.385585387117637
0.404474493490404
0.406285018991438
0.424453232294371
0.433863743523715
0.446989824827593
0.448239659775439
0.448571513886869
0.45401354322466
0.464073064133868
0.451538337207423
0.453915390229864
0.435432029619824
0.435143157580444
0.430177288644192
0.420168587141694
0.414885823407874
0.411708978844256
0.40209553208122
0.409095208787086
0.405096198499252
0.404979433936069
0.412084532002256
0.413311336341332
0.41047598380949
0.405678377874992
0.408027583256405
0.405928097135666
0.409865264520495
0.413369336858146
0.404980739283147
0.405578609583912
0.402616720438994
0.402073246901073
0.386378169344276
0.384834464346921
0.379245253934575
0.381935285018134
0.379094352394665
0.372911370950019
0.366121004213652
0.372227067682461
0.367538152491276
0.371820887251061
0.361747732033659
0.368077002063151
0.370533839809745
0.373621615951909
0.357576675706891
0.370243675372649
0.359845370730039
0.372417771399607
0.365685273722414
0.35834322178997
0.359514322971821
0.363051007684752
0.357918304004156
0.361390610021037
0.353168233724239
0.356687718182224
0.359879652045707
0.351420303224618
0.351196333292046
0.353561153090635
0.34510148240138
0.34191307648829
0.34747511697363
0.351167867645293
0.346328659272079
0.350365191612504
0.339722186557709
0.340104816123511
0.327450737226413
0.339646285082102
0.33197473338812
0.351942994777539
0.335931343853478
0.341439999852091
0.329692869734121
0.345423766803212
0.337491464141606
0.343802951401365
0.340249754840473
0.346986571523165
0.348198692513231
0.346721203525483
0.343692142611179
0.357452672004044
0.349467313531596
0.353957186516996
0.34030551608473
0.357676708293197
0.360088387829891
0.355168284328986
0.358353930570798
0.375736421344921
0.36396039438387
0.37935466701555
0.372437523632328
0.370078787126553
0.382709786789463
0.388446480178673
0.379131036171895
0.394755085272494
0.384907572370749
0.405549865051604
0.39230156955452
0.419974182950815
0.419276200029485
0.442541429081655
0.437809704542315
0.45943637101709
0.448190056683146
0.459451875302958
0.467462470301481
0.492273099699837
0.490469294206553
0.519177058599178
0.522255780241524
0.543217623179837
0.552069819410707
0.576811298554608
0.553714315351117
0.57785215822978
0.577883924089766
0.588569377333687
0.582893563795492
0.568599613727637
0.562363969271655
0.566798126879655
0.5723402869508
0.598617029161873
0.565613514751748
0.57240786026496
0.550558002802677
0.577206291582902
0.566681042099479
0.591838055667274
0.564039882118223
0.595975732558174
0.54413168611908
0.576147340075515
0.547474247765881
0.551317115054339
0.544870384378749
0.583440506394218
0.530240664780297
0.557885086576734
0.529409068653387
0.56157480947011
0.566962745020949
0.572290460037445
0.535718997234218
0.547228016829001
0.559833496590225
0.565079301413078
0.512235290226679
0.519711294568055
0.514794338173773
0.55886063707714
0.52929602667552
0.541725892939694
0.518725883444142
0.532871452877898
0.517326030889829
0.532034833683468
0.523655155532892
0.533610919607393
0.550171153429999
0.547845588218803
0.525109387684068
0.551188703620245
0.56402335083563
0.54858083520833
0.535837075750986
0.548212011639505
0.506535114160828
0.541310719846134
0.539385134763567
0.560051457864385
0.576613579349294
0.55023964305995
0.537656435638889
0.605406512508573
0.596221448594031
0.595920621201499
0.557290950523284
0.594206148461403
0.615508017325261
0.605648301608372
0.578227224834302
0.602406597094764
0.577575491922101
0.662832757948856
0.59197048488315
0.664001442734975
0.56891154548171
0.659140570422437
0.662950176180136
0.670498900492518
0.583031602986658
0.69389012605412
0.599221025454258
0.688731247620087
0.660008845233599
0.68537437184622
0.64431696615244
0.722811955606128
0.711277590287983
0.768708172275319
0.788391318308779
0.761696792403845
0.826014795421002
0.784181334679641
0.739715417699257
0.764014124650861
0.653297725100418
0.797545068436617
0.728371905880751
0.717206083234927
0.641136634506979
0.673699131493349
0.658543570628322
0.686994010457995
0.649133879143875
0.677363000441754
0.583441918701038
0.779029059817925
0.703002918566486
0.688350293202984
0.615743290767854
0.665414631217727
0.591045254055888
0.76663112341083
0.79481101499129
0.653445055587757
0.677714796368603
0.794437078080821
0.593283717639598
0.636946891076427
0.663080075928711
0.669713671139397
0.625273295057076
0.72676506410838
0.682902130980764
0.908709412272604
0.773069052682475
0.75929499753366
0.710408273410915
1.3724269199517
0.596314273547411
0.889830939580133
0.900191423966832
0.751760410213454
0.546719595161286
0.980489364566712
0.689284388018723
1.32257060103076
1.32174344331102
0.737488091021817
0.835213150982879
5
0.765082572660179
0.48891410989075
0.756622560320548
5
0.633879947101314
5
0.488459744025741
1.04352746249072
