3596
4000.36533379555
650.420452594757
1
2
2
0.0522346037513988
0.0444728183835514
0.0576304956135042
0.0477156650904504
0.0497998726128161
0.0521695174942032
0.0581588014510525
0.0454945387450237
0.0537785716981527
0.0508642796203302
0.0569339946589513
0.0471767812756812
0.0483863659356053
0.0440584389189553
0.0498348715452989
0.0481186173764866
0.0515137924282379
0.0439311129550087
0.0519964495203792
0.0482186999380065
0.0508900620188285
0.0514616706782511
0.0579474019525033
0.0480443027569998
0.0511369661202234
0.0435235366256648
0.0522105073444015
0.0446313072458963
0.045437952639843
0.047697075095101
0.0517778784875831
0.0457000658279101
0.0529805707599125
0.0402536351428489
0.0531687028587412
0.0487250634151479
0.0443671356181828
0.0410692957237556
0.0475768991822022
0.0474278897282022
0.06032455169026
0.0460527856721625
0.0527783909285996
0.0476587018730097
0.0513567100780783
0.0459512938413447
0.057723411489404
0.0365304775637879
0.058776603616398
0.0492075961449065
0.0493261756733575
0.0538514215902379
0.0586856154213819
0.054535951875459
0.0412771448408185
0.0504840148358857
0.0541731172985663
0.0519077574208307
0.0603053117415995
0.0437294639299144
0.0521673141835003
0.0623936099205364
0.0517193229637212
0.0540327959075273
0.0531832960907508
0.0486808922705722
0.0605599243982357
0.0482111106995893
0.047507724158088
0.0504328082265278
0.052282743526177
0.0503334497160106
0.0600053921319425
0.0494042080503237
0.0568500241145094
0.0457394152851781
0.0480510695264655
0.0430625591522031
0.0453030617198283
0.044625157119236
0.0522043834284434
0.0449258834898172
0.0495906299035231
0.0443987372339845
0.0433040072625139
0.0602052137079191
0.0540397160850668
0.0401324321136529
0.0582910178814297
0.0487762305780882
0.052678258030277
0.0464026291164566
0.0460455911639024
0.0438611892399912
0.0507642857798561
0.0433798234031983
0.0464969776015737
0.0470046571835805
0.0526979609520577
0.0436737601354315
0.0566723364542438
0.0319363578406999
0.0798212497130602
0.0379586366316809
0.0727272310651788
0.0668606227273787
0.0373697635551453
0.0700381979975684
0.0527000746864491
0.0573219153750763
0.0548687864812349
0.0536846939070551
0.052307897730699
0.0444808543290533
0.0464095066002765
0.0551166139726878
0.0733265137440385
0.0489782725810961
0.0548125415922305
0.0506492934445812
0.0374484339770615
0.0319849223845634
0.0810875881478541
0.0475463025319795
0.0638979961832375
0.0460527689002433
0.0401277976421389
0.0542792620744472
0.0720775299418366
0.046926640680694
0.0523217541038955
0.0475852256154635
0.0541430326870785
0.0257297114097727
0.0742571207602521
0.0564617126885436
0.0553129482234564
0.0344299431189234
0.0409282649786338
0.0762105548917373
0.0602499295530338
0.0512425569734941
0.0466703065819426
0.0266987504683091
0.0690623796438429
0.0578175145212298
0.0438418717611961
0.0466940203184077
0.064294928592841
0.0473236248648695
0.0566856259072443
0.0414618237344449
0.0565214027441506
0.0548578340874242
0.0197743191287244
0.0174225409109407
0.114504332854596
0.0350594565278476
0.0912240292032299
0.047198859771744
0.0618319109943322
0.0449082556298316
0.0512197637875439
0.0419215334720811
0.0507001492361118
0.0428093766063319
0.0446753822917416
0.0637966655057807
0.0544009769071948
0.0434288590200554
0.0612225484696555
0.0590444027908507
0.040879586328521
0.0838731103885911
0.0738926634202149
0.0261158167200827
0.0728186699984261
0.0601852192631089
0.0464231330807092
0.0399523379507946
0.0760088534823265
0.0456274481803536
0.0587328533476272
0.0450332840205935
0.0541761916649195
0.0573261760460193
0.0624531733891527
0.0494472212277288
0.0628663660254156
0.0332834866437464
0.0530752210461255
0.0729776678813683
0.0752582147968606
0.047762353913392
0.063840361794809
0.0240953283266302
0.0656216708912276
0.0769002484767061
0.0557858104560362
0.0520775882276001
0.0492666921064605
0.046839314878851
0.0555091217914859
0.0488940707465319
0.0489200743632346
0.0187329194984349
0.0685507784623828
0.0684843654477045
0.0613367492472885
0.0473026268375822
0.053420166836766
0.036619180498402
0.0711920977010057
0.0775503506077558
0.0504211460042422
0.0547171610741502
0.0417542136884043
0.0442302475743777
0.0640993072106773
0.0522505829551045
0.0558122159780059
0.0555935733813495
0.0577867552016279
0.0543798119655774
0.0558801045135555
0.0561251062438684
0.0531193716130325
0.0521423620797862
0.0592635119370681
0.0550460737024254
0.0649069190335144
0.0593781381167155
0.0582265124223827
0.0546899934955876
0.0563615958302468
0.0492872641833155
0.0754414779142685
0.0603874105963672
0.0660046258175566
0.0599979524596858
0.061215766278487
0.0519311356853416
0.0644205109134898
0.0585223738366068
0.0616696876943115
0.0443520711266384
0.0888284579322151
0.0589197738353901
0.0626103263017948
0.0458264481462794
0.0588917510283396
0.0691491768816017
0.0628849367490809
0.0620766726175421
0.0644819676992223
0.0583173868969804
0.0525692325022149
0.0834220206753782
0.0684750947783451
0.0538807426843933
0.0661329832127305
0.0692599428995119
0.0578878294644795
0.0523975638098537
0.0304556604738799
0.0929066950686508
0.0731440708414376
0.0379632366667439
0.0975380567511006
0.065792831086428
0.064578734795063
0.0634641887379243
0.0260301896322636
0.111537504916186
0.105743675992387
0.0611864936813932
0.0588770635665197
0.0742193303219101
0.0656623135784137
0.0582815986393536
0.0620631276919192
0.0478132500763473
0.0736571183250252
0.0611515487390966
0.106206761438365
0.0508961902769534
0.0626604379212865
0.0838980815317416
0.0673433842054409
0.0638890314426044
0.0610967124636371
0.0521885128167097
0.0696824679981986
0.0703598245545453
0.0688637248372128
0.0721815888320688
0.0534558811381728
0.0852177737356894
0.0768245858749469
0.0638411490740282
0.0628404058700963
0.071088969318548
0.0651049725965411
0.0688166045416519
0.062053374787251
0.0630501155398206
0.0628950917979175
0.0490607361324486
0.0960912939635921
0.0750025240574555
0.0628004509240563
0.0846407982608164
0.0740247538054665
0.0657042964903697
0.0703769940947486
0.0755947718156609
0.0705016088482499
0.0661311978890446
0.0602720314733544
0.0833116967224786
0.080716271045873
0.0652026313494728
0.0809274907934901
0.0716887332451718
0.0724898020303596
0.07189113430214
0.0801794479393901
0.0790244356823989
0.0781612649424671
0.0685252095620486
0.0792302768709277
0.104020685979409
0.0731238203671619
0.0884505809541787
0.110136912291793
0.0796332446711505
0.0946807775225096
0.0817461156228371
0.093300007022514
0.0851490346270926
0.0979562524002198
0.088355814530999
0.0941736741340424
0.0984123993873034
0.118084065603769
0.097597411508508
0.0957007935313308
0.118652095385596
0.158670035714239
0.124355848523233
0.114166619011773
0.0966726543305287
0.121467163346777
0.14001903693112
0.130372365104238
0.147978279984362
0.133524837708
0.133641869082124
0.134234542696727
0.139060119371736
0.141905698662858
0.144244871839338
0.149389079918479
0.15408507073217
0.160566057156155
0.161082945045999
0.161038852434404
0.153412954293972
0.189950110617798
0.181121071167271
0.179629962732263
0.175909875887742
0.160326803815631
0.183099418284905
0.197817047567139
0.199955796549828
0.22340298432947
0.194867135466171
0.22618107607388
0.198513458352183
0.207134295803185
0.200727358282989
0.215794685133173
0.211514130765494
0.220098354567998
0.218736221072457
0.234016509541898
0.227578961440329
0.24614095899191
0.240520840075027
0.253280635065792
0.241792497939439
0.262027204319572
0.260394101249938
0.273710006878186
0.254136766358378
0.266026324838323
0.290845647832222
0.30736330025894
0.284715405960376
0.275943726341188
0.279524430422857
0.280648101828012
0.290802235649431
0.301832499066637
0.306081969961172
0.299940832639938
0.321465032710848
0.323862138533588
0.318422557934475
0.340410647818457
0.309200555973768
0.33436339487405
0.3260784579692
0.327038626957033
0.366880396438031
0.359055865779813
0.343399849801755
0.362949317520895
0.36305762826117
0.361784667551149
0.385326448919739
0.365452002717123
0.365161758567002
0.373402205997907
0.37072043512412
0.389264570240468
0.382561894504616
0.383438723463755
0.39233534908619
0.40652897239277
0.405947333486335
0.408501886635672
0.425152868021127
0.427134608776143
0.410734110227443
0.4339370477721
0.419877389037526
0.449648802306229
0.440921653217509
0.465409909000445
0.459796867256113
0.470956906405561
0.486721860288652
0.462078531892198
0.461694906726291
0.466871295992196
0.473550323805259
0.46809534536104
0.483327522457856
0.507239049577206
0.484692866080069
0.49928235709387
0.502735094609793
0.501948666620711
0.504583731776389
0.512280433997628
0.510972883768683
0.517857730921702
0.523764716937387
0.540343112081166
0.520173787781959
0.538774142805937
0.558809338479137
0.572929092658725
0.558340431356745
0.554632548404885
0.55830817998844
0.573930597521241
0.579001278473407
0.571014764496117
0.589070119127224
0.593883741027627
0.576144736299304
0.617630346917149
0.610036780083642
0.629838425987642
0.632833574537304
0.628971873689113
0.630476148391002
0.630338672920483
0.633187100558261
0.644705812274182
0.623382190539774
0.63562102300962
0.628358370420698
0.650350887256398
0.671630798136683
0.682327268283485
0.662836376121957
0.664540456231094
0.659103876587586
0.667809757012071
0.703569876984849
0.721577807916059
0.690297102263925
0.704768603363373
0.713290774105084
0.73706438380562
0.728195605835703
0.719784238215535
0.700043868411862
0.75182993987481
0.756482132326312
0.733581476554979
0.738177278201897
0.742136418309169
0.755949116494803
0.762212573731104
0.743060045719748
0.808790027941686
0.793007182276627
0.754811699394485
0.743726036269553
0.79147493574379
0.803454282541793
0.804641515377548
0.806652295585063
0.813562185605927
0.814589158461509
0.819711774656598
0.816729532055475
0.834882093600409
0.828619577388841
0.841970388353209
0.801836923626718
0.82597569882179
0.882866871782057
0.873930858771459
0.855567056362334
0.875603166453242
0.850826123035255
0.909011702983124
0.851340057602017
0.856055549450658
0.897420961067393
0.884177127922128
0.863553895471948
0.862170849675581
0.868409710214404
0.919191309949916
0.91741828909953
0.915315329990829
0.923958250519781
0.978668381572012
0.93206255595162
0.904360113768411
0.929099631586609
1.00123250102856
0.936604577923161
0.95295033533155
0.981636425388968
0.966038579089196
1.01971964738344
0.986221747674401
0.978896420172887
0.96183597310908
0.933266258583721
0.987883992170972
0.956977228849816
1.01612097426996
1.04166099717079
0.995713265669149
0.985361332431438
1.03512740423209
1.01883990143223
1.01683740888
0.974673309206791
0.985895629155767
0.980800262085289
1.01925051565084
0.999694976621993
1.0890856457215
1.07875669167137
1.11294339058269
1.07978699441305
1.08042489701662
1.06572995318963
1.04008446368756
1.08773894368995
1.08248458562884
1.09275403605105
1.15035108594874
1.11796328084516
1.09609325152495
1.10761456654311
1.09994628851321
1.06814764018724
1.13309728697954
1.11194570012414
1.12698139935044
1.16547033530523
1.21357435958252
1.16837130566411
1.17304773960567
1.09706666542835
1.11831752879163
1.14997171330599
1.16025920163719
1.13304932251
1.17341939544097
1.21020471473724
1.20872515964735
1.19659604710025
1.16974645647431
1.11778254679737
1.22431236471058
1.18818311697323
1.20127673517138
1.18736381536739
1.18883592540446
1.24611213808811
1.26565199583291
1.19152236503827
1.17815436809513
1.23291739775636
1.24253083550126
1.21048731627643
1.25238239727632
1.20597127279181
1.24607167192746
1.27130788554962
1.27400618452847
1.28775918193113
1.30184295576105
1.25795147026626
1.28479693717172
1.22736883059977
1.28132506690186
1.19512442019649
1.27589832644236
1.35937011369943
1.26186708890707
1.33857503351702
1.3328819408495
1.31177682969417
1.33472638169749
1.31062469834337
1.32272779821865
1.29820407212582
1.28422428455602
1.24784758729207
1.30867114904954
1.36423540206179
1.34289602388265
1.38047094103211
1.4703090845494
1.26611494259945
1.32773204575772
1.31668860666369
1.25806328306846
1.29789535427371
1.32680888310555
1.33404778175284
1.40261334817927
1.34766568241637
1.4332888231134
1.40300713255242
1.33792570108654
1.36533013248099
1.43127522692866
1.3827356685333
1.35218209938814
1.39678211245963
1.36059073165796
1.3666258474123
1.52814982017447
1.30887212384655
1.36357226509143
1.39107733317548
1.44683690705273
1.39501066919984
1.36693771361421
1.35805307668795
1.32110806843296
1.42918675474484
1.42844081273165
1.27354170744294
1.42701849397912
1.36867955149846
1.38106505791762
1.48230431131386
1.40964919113221
1.44687357918947
1.55770916667732
1.37933010399769
1.3954169783096
1.45172779014881
1.42101685532063
1.41918779689744
1.50964368918526
1.34889908334703
1.34692896399597
1.41840102441248
1.43915921031921
1.47143789261879
1.47102796314191
1.44198621876902
1.57690938106958
1.42801605014048
1.37037083307309
1.37400710410167
1.4094234955861
1.35822830810175
1.38509765760191
1.45253404508128
1.47154291391511
1.3811729164962
1.43281776716044
1.52473602354636
1.43306412328144
1.43114209949094
1.50930256432835
1.38970968874699
1.46383774483378
1.42977231486051
1.49536367704994
1.47183774422055
1.38347828106364
1.35608126226598
1.41291805108089
1.39289824854126
1.42633110145071
1.46025794723297
1.42122421596862
1.42935093147799
1.48284939221158
1.40368876153247
1.47408452661595
1.45156040739029
1.41718036672036
1.41210775505772
1.4551682448728
1.36412593085506
1.45601280611441
1.49154049584288
1.44210086195383
1.41080631107567
1.48340963815064
1.43261493369354
1.3700316847017
1.42265456339264
1.46729252761219
1.41174800630137
1.41073502735294
1.37778224692855
1.39119965219459
1.38268493753286
1.54490779556997
1.53868180849109
1.5975375571461
1.39885429157826
1.40278900767709
1.55363264447655
1.46761895552036
1.27722299844397
1.31631162479471
1.46463343013611
1.46768436222889
1.441006650851
1.51648049477743
1.40869596705593
1.42704181574522
1.38672166072949
1.44029858313144
1.37471057782955
1.37732363522078
1.46421581348256
1.44586353664435
1.50321715335057
1.50419620138423
1.44087946650593
1.46309480599515
1.45593524289678
1.48355128462554
1.40193067104966
1.39384723783576
1.39514098656318
1.43615984911422
1.54763377507313
1.47871018604439
1.51691399108186
1.51223233066596
1.38375998039705
1.48245843615735
1.49517785021536
1.4410345915798
1.40586798350044
1.52021892148232
1.49100663993433
1.37873728031295
1.36135551380648
1.55373048511278
1.40997514223236
1.46371331592192
1.59958200134873
1.41998759876393
1.4720897842256
1.48774976944902
1.44606555852403
1.58309205819155
1.34944812001535
1.40122081215031
1.47145631173499
1.34904860396631
1.42716470973276
1.51496041456011
1.46854886477421
1.36216237066581
1.33603931481579
1.42793633930846
1.29709110804376
1.42677736514957
1.42435294037021
1.38462304087935
1.37925772370681
1.40608238881145
1.47154626324499
1.47546610635355
1.39662081260117
1.4279248692641
1.4379310459217
1.42371915236432
1.41163170938618
1.39158959518952
1.38001792150854
1.42622347966922
1.34136256937945
1.37770878154057
1.4611544985209
1.48856817316443
1.50561543754381
1.41902194085763
1.36469908542224
1.42846450020908
1.36418686989274
1.38226080880433
1.36667090554746
1.34312170798696
1.41668743137317
1.408328726983
1.35069466870623
1.43739188978555
1.41805568528436
1.42980412007734
1.3553365948079
1.33329605516413
1.30657850459558
1.44161504444501
1.35227744993633
1.30668344931565
1.36791917783738
1.36013267718087
1.30119210825677
1.30407941885506
1.30114271489935
1.33940032352421
1.35468057280405
1.33462791226603
1.28374585667032
1.2925049129873
1.32460315449847
1.36989124822998
1.3601173868459
1.25648756908093
1.23972224822888
1.30332892214467
1.24828267033908
1.29598128392542
1.31777484050799
1.30034270013131
1.27285894162926
1.27801999099868
1.25309354812687
1.27010104494366
1.23346945155589
1.23563294446326
1.30210068869766
1.25711046547787
1.19138127318118
1.22850711022101
1.20073768547949
1.18100812319533
1.18665046558539
1.23017037398891
1.22123936447674
1.21605048522215
1.25596882750324
1.23636452756905
1.18492562368211
1.15299810523195
1.17609913770801
1.1743889500435
1.16070380911229
1.19866968181918
1.17414983045446
1.14611702747546
1.15554061531566
1.12588940243774
1.08595429504993
1.1200661219483
1.13795194726317
1.14937694160189
1.14626953388925
1.12497836598329
1.07887092872112
1.08782824922962
1.07558925381977
1.09506434289163
1.09709515360369
1.07551596714712
1.09220135695613
1.10009722561126
1.04676016106236
1.0584352156205
1.08254295237318
1.05061095291004
1.04474622486238
1.05360894998398
1.04290138912648
1.09297424227846
0.988982447096711
1.00830206884919
1.04388945589894
1.0381984108414
1.01587588409631
1.01002144461151
1.00150749742324
1.00331282281896
1.0185268205256
0.998504172909511
0.975667374661951
0.999404964971305
0.986250826599411
0.997875870166849
0.967037179788968
0.961954266721634
0.972206454761866
0.957772438449673
0.93685754753895
0.960454885920786
0.950224974772233
0.92398012790542
0.921441733829501
0.929676862150585
0.901506991667061
0.920974944686197
0.913210789789559
0.918313688605162
0.906563080026788
0.902084285561929
0.877500868807771
0.885843626393448
0.886600780097956
0.874393145089936
0.870189671582459
0.871398851877012
0.866111281262177
0.870274623731657
0.843728200603213
0.866475055520879
0.841448391818821
0.8589771941842
0.837289914146008
0.825863501188298
0.830277367665152
0.841045752536662
0.830739683135297
0.831992624321903
0.812132935031489
0.820739569619936
0.804814648331804
0.787870039225738
0.79655677976173
0.798205988750699
0.780792008152432
0.796363155212069
0.770005495717471
0.768829537709915
0.756332795751788
0.757934521212057
0.753040026018194
0.764798325723879
0.75173572367589
0.750285000534414
0.745767646054469
0.741079462254669
0.731006324332753
0.741518276403285
0.727219924778497
0.732872910125151
0.720208832299862
0.712372097427294
0.713133244417627
0.72463320529193
0.72100176165663
0.711265917571126
0.688590723751169
0.690338504535609
0.694428030570927
0.696353048108855
0.685450172174911
0.688873859722934
0.671534004246854
0.673066616693157
0.672314316158
0.667559345569285
0.655662551525605
0.665155121533957
0.653401832356975
0.64809173489823
0.629237926410992
0.653101017426267
0.637070104201975
0.633312402153423
0.629164489859194
0.628251707600393
0.619123721008545
0.61999699756703
0.625480735070499
0.620101787864459
0.604427482431734
0.610401116654231
0.597753466103086
0.594458650923595
0.584014556892297
0.593660996149663
0.582657434018172
0.584293769363076
0.583951622656344
0.580305788597699
0.573736150875779
0.576972461012965
0.568402965272265
0.564891711193426
0.558205845147986
0.567493074108128
0.556102029503395
0.560365474864823
0.552415053554175
0.550154408564396
0.544261033677734
0.546602481797806
0.53976963204372
0.534702264346042
0.519313053813276
0.530256921948298
0.53127320142448
0.523540911015545
0.507494764882501
0.509407533357382
0.512829549108668
0.519432915172687
0.505872328669887
0.508220449301925
0.497911477461807
0.49707596394588
0.496479980618743
0.490573141212156
0.488407171316113
0.492058804449065
0.489178342565372
0.487467205543417
0.47856790994609
0.484561210353348
0.480542674513117
0.473184973168202
0.473119348833448
0.477237460176192
0.468685475272388
0.475882704530046
0.468749804585812
0.464141919728455
0.457914680370128
0.45630618323158
0.457617792785343
0.460283928286813
0.457870582310847
0.455983923761313
0.44929328827317
0.459543921596923
0.451053688246743
0.456656988599568
0.45499681532428
0.452736656511854
0.44608298110314
0.442150446983743
0.442567427295466
0.445666849329001
0.440076063785771
0.444537027788711
0.442689452740439
0.44183407707439
0.43673977459167
0.443749902573027
0.440436374392362
0.441918285445208
0.432897688067553
0.43927996303346
0.444958223741688
0.444347483266358
0.439827102482193
0.44262754175773
0.438084943693998
0.44176762812769
0.430988720487734
0.441145759295056
0.43613703114905
0.436367740108139
0.427965231668534
0.439018241880546
0.436366622238655
0.439024394131797
0.434569554713425
0.436079962877417
0.431170719560137
0.434355084737478
0.434395579159282
0.443377059448393
0.446615910893195
0.444838972023633
0.433653440028912
0.436612733095024
0.443114620458757
0.445476872558655
0.444171097161992
0.450659353608609
0.443173528266568
0.450510802053596
0.443506021417047
0.443627143806207
0.452031979112986
0.459670063097711
0.450348689050852
0.461540839163757
0.45906247363909
0.457751538767361
0.460297680126741
0.465634179877106
0.461505082220565
0.465078316824625
0.457491770137821
0.464002919041875
0.461981100778836
0.46661832021116
0.459583120091283
0.468944100194901
0.461956322766111
0.467944813885372
0.460982890085384
0.460936078378309
0.459741886552687
0.458608671075499
0.461463834958589
0.465764500080758
0.447403746326805
0.463224624130652
0.447897339211792
0.444586041122594
0.450700367981747
0.454196234364
0.448494912766878
0.445725433649646
0.444416430088824
0.45137728353207
0.43711728905509
0.438254363917987
0.447549129449378
0.446949751646927
0.441076640540253
0.438285645821839
0.438235685830266
0.448340170625211
0.434127197938623
0.436264094286012
0.434027698186015
0.43406794476748
0.436516923844544
0.436482048472907
0.434314379982716
0.437349368373595
0.433716638609267
0.439115052750506
0.425110579583123
0.43078466245896
0.431781807691943
0.436068495191077
0.431583594935113
0.43182289741329
0.42933718212788
0.441127436738471
0.43732279083262
0.434599533082722
0.427720590483156
0.430931409885814
0.430331125041027
0.430388528727538
0.415739000022037
0.430002488404821
0.428590927426013
0.428912730808134
0.421992041534126
0.42099603173906
0.417479429151407
0.423576169223916
0.415136947043358
0.422275729622968
0.416627335411673
0.413218798229552
0.406875396314243
0.407814352680661
0.404244443714955
0.412013445685066
0.399543178031761
0.400432103686114
0.398116432743868
0.402264386182799
0.389344936489699
0.393426225650077
0.392160022152978
0.38807888699042
0.382045939738683
0.381047676277311
0.377847911340749
0.380844973254706
0.377063291536013
0.378270568677535
0.369714509787731
0.366352701143989
0.368171442795104
0.364404198533113
0.353936923056993
0.360430030307617
0.351668600857045
0.351106445784426
0.34618295205705
0.354076791556741
0.346070956058694
0.341220271476303
0.340629668402225
0.337475062170031
0.334249404260753
0.335632007244542
0.333085293747682
0.334009519805326
0.328051223428219
0.326770658344567
0.323382104434796
0.329089102974602
0.319476895945937
0.31980243889724
0.32102435772441
0.319218904838977
0.310238739742423
0.315459180376436
0.309538166883688
0.307249230407787
0.306945839292881
0.306375432401709
0.306668144641695
0.309013891917547
0.300702668774163
0.300239627563638
0.297687689939409
0.299419511041158
0.294400016845191
0.296107894996692
0.292972024184062
0.292117050226517
0.288010511231946
0.290284676580256
0.287951490197961
0.28483937445313
0.281601896138003
0.290859418384496
0.289160788092894
0.283850168564558
0.27758897943477
0.279437868996688
0.275272505814039
0.27686277504159
0.272254875504696
0.270300460985147
0.270337008222744
0.275016283333436
0.266989926635324
0.270746547647213
0.269047547692584
0.267551920106735
0.261658810691911
0.263841430357857
0.262716696490751
0.265276261092315
0.257268059216621
0.260108511639417
0.261691615128503
0.256878654566107
0.255135083420292
0.257657013669554
0.250633174279195
0.25559114021605
0.251487010087837
0.256249897742059
0.250778790499632
0.249938046297261
0.250764622414099
0.249721819053792
0.242980909148639
0.244807694243469
0.244258982941715
0.245963711888467
0.246424349545719
0.24799669931652
0.243333952495215
0.243139287839757
0.239205704102848
0.24208125855128
0.239182860126418
0.237596592803613
0.237369556472979
0.241456938888014
0.233241738484643
0.235402988535109
0.233526267310971
0.234938808706428
0.231785409581197
0.234213657179344
0.232234087007152
0.234076029132432
0.233004306122885
0.239546771292501
0.228581076639697
0.22956944283046
0.229297090315435
0.227544544624099
0.225877861950941
0.229137675513049
0.224421062422517
0.224739450527394
0.221248064602494
0.224561192436357
0.221589565844062
0.222965139258235
0.214587275348792
0.217742639218794
0.216898605077242
0.216290377899657
0.213042364773104
0.217594811583994
0.214705337275981
0.215208838579623
0.214869041725562
0.215934340363961
0.211816761549237
0.214392413006641
0.216360357566411
0.217135317457991
0.21401981116008
0.212710522889199
0.209297379702673
0.21324059447139
0.207271649098748
0.21204035382643
0.210303491523178
0.213606964207476
0.208856763880504
0.210788400230278
0.206621850633093
0.208929224371714
0.208243234580372
0.209862826269802
0.207631754321654
0.205731958408935
0.202118148739216
0.205767017775918
0.201618106883328
0.202670382143472
0.198629989650816
0.201326653397534
0.199836738874998
0.202194133591407
0.201534341017436
0.203191944581127
0.199314273606443
0.202032344275266
0.197174839924197
0.199100184346058
0.194662980164021
0.195865698744982
0.197460121932479
0.197637014997022
0.191932419774284
0.193843144500426
0.193280284013539
0.195797888634775
0.191625035054387
0.193457417616404
0.188049471866725
0.192872605430114
0.19164925951908
0.190564847954017
0.189898439655903
0.189652047140062
0.186027091647648
0.189293373685188
0.185160677649508
0.185009826933004
0.182563686476672
0.181843136220975
0.185119036508302
0.181865553659497
0.177152042913989
0.183182528537227
0.182359229858684
0.184139387983985
0.175314816449711
0.178496212686667
0.177210513192658
0.176407307900467
0.173231369013781
0.177098183097038
0.174972615949511
0.175071742830196
0.1742968058068
0.171531285465626
0.170443046681474
0.175774045416031
0.169815431505404
0.171331236493022
0.169948352015673
0.170897800175559
0.167703067421892
0.169346090590131
0.164778025912722
0.166840597256112
0.164463911011513
0.167853397074778
0.163355423571699
0.162331027360906
0.161414376298095
0.163697256152978
0.159457278384581
0.165032675033136
0.159475173573562
0.162464320880309
0.160991363139458
0.158896134461644
0.156526237924372
0.160369531564824
0.159042749118162
0.155729606816271
0.152037593139657
0.151162006332621
0.151956091577118
0.153575047095702
0.148068518499408
0.15299333629758
0.150032218112063
0.153004938459834
0.149715003030187
0.151951411768378
0.149419112285916
0.148538371906064
0.146875496274566
0.147161359998643
0.144548076692862
0.142918338845146
0.140111949371003
0.143974987798077
0.140395401757452
0.141769415800416
0.140451013771658
0.139204676399796
0.139795596849203
0.137645224343871
0.134052733690646
0.139440552146916
0.135868497154008
0.138569613689252
0.135103127909998
0.137833640592088
0.135261714450891
0.136245095863924
0.133001161798241
0.136408738644927
0.132323869142464
0.135137816600484
0.134553521020038
0.133899480656212
0.132625548617247
0.134460792394954
0.131782367210545
0.13194785949516
0.128752571635442
0.128047448543283
0.128213312069431
0.133213016893754
0.127738992663909
0.131965274454847
0.129381371205437
0.128566153748263
0.127064719633063
0.129335613090695
0.128545309061872
0.128765198979647
0.125998316803229
0.127138585676524
0.123392343753082
0.125007706842739
0.12398593236589
0.12894894864097
0.124400164630538
0.126209481294051
0.124221908346697
0.123395965309446
0.120557000986809
0.122628569596566
0.123152183992462
0.123184739596194
0.122871962814431
0.125443002553486
0.120823704588866
0.120501008389933
0.118546100440805
0.120981867355507
0.119354201645281
0.119754812545486
0.117888720082589
0.120742970162197
0.117540531071491
0.117843989140032
0.11615255401827
0.120093152282614
0.117970131716278
0.120234246317958
0.116962254869693
0.119396199102565
0.116174873200379
0.117187658965971
0.113890451398441
0.116478469665775
0.117102190996033
0.118142769805075
0.116191291331785
0.117104090134304
0.116088609616817
0.118079199146562
0.113745896116819
0.113736862710989
0.115542143961342
0.114637105555906
0.109774053946151
0.116498223717893
0.116873913097922
0.115773169084446
0.109846379057296
0.115821111382728
0.114587393664319
0.115941343380579
0.113680850930563
0.112418949143795
0.112218287870897
0.115864361731664
0.113251634511723
0.115403334587352
0.113593597848595
0.115330487858859
0.114181942248028
0.113447121926628
0.112350104629874
0.113898311575987
0.110234422444497
0.113356244483012
0.110321771922938
0.113809418868967
0.109291123889104
0.109311050987661
0.109298781685045
0.109599333654668
0.110294272534059
0.111871639411248
0.110449920320814
0.111716985504257
0.107547667006281
0.110603292757356
0.107375423492621
0.107673421654659
0.107672714925679
0.109134215461428
0.108013845131485
0.107431179288462
0.103231047539917
0.106933269453074
0.106894920474383
0.107604064779475
0.104258850891898
0.106072907459121
0.107063756292579
0.107839551555961
0.10612617711193
0.1076311829696
0.104417247454958
0.10785599315892
0.10477465691545
0.108156462261721
0.105948873390186
0.104931479654953
0.103245971728591
0.106544986318257
0.103469158582934
0.104384367452783
0.104580705968597
0.10425686039757
0.103802846821868
0.108078853553489
0.10336564417755
0.103938635797229
0.103060671076797
0.103444922912386
0.102700611947397
0.105665460154724
0.105456176477811
0.105452560991683
0.0999513366895691
0.102633504522112
0.103452590049476
0.104144566627085
0.101428714560005
0.103306367724521
0.100287874424124
0.100465509933266
0.102806738933947
0.102065529008943
0.0997748201512466
0.102407908566191
0.0989517656069652
0.101848532564871
0.0967086933594076
0.101134033432849
0.102537065570325
0.100667652139396
0.0990081143231175
0.0989578330039913
0.0968363757001238
0.101244184331866
0.0997029774134989
0.100306207132168
0.0952010591429732
0.0970459339332898
0.0964476093507123
0.0970128590958709
0.0955874269506082
0.0971818510076317
0.0943651901608424
0.0968214961005426
0.0950923460553276
0.0948297893960619
0.0949200895086245
0.0971829977871858
0.0936903374277487
0.0966755170601032
0.0962245180652873
0.0966202610653636
0.0953180757934235
0.0990986709177175
0.0945732507330484
0.0952990945066213
0.0946153262444312
0.0965542173939969
0.0941900906983579
0.0956052448470313
0.0935716672479604
0.0937502766097964
0.0941094778201263
0.0958716394915952
0.0928087940904669
0.0941256782901038
0.0932832136920098
0.0954394790961303
0.0931926979810136
0.0945235503513899
0.0930002265531302
0.0954258385137309
0.0934163679325192
0.094319564941577
0.0912108316965827
0.0935353278556141
0.0946942900188606
0.0956790383435323
0.0917509517160656
0.0924619515050481
0.0925914757011961
0.0940801332710919
0.0934278744776855
0.0950010960845176
0.0927681897986998
0.0927712051619029
0.0919772976655093
0.0918109898177298
0.090457524239635
0.0928834873582263
0.0902718843971145
0.0923675872176365
0.092623576186764
0.0951423105978531
0.0904276384703628
0.0898108212485323
0.0874145049216116
0.0928378724780085
0.0901444060359837
0.0911545804027562
0.0901611616400407
0.0927490778551417
0.090079184056211
0.0954484408931045
0.0907513720540053
0.0892296730621369
0.0871964291963047
0.0893775998792761
0.0895990892711535
0.092378725876709
0.088075934410053
0.0897775549727358
0.0870078045761838
0.0924624612594843
0.0906506009803899
0.0921869611285941
0.0918874977032271
0.0910913314341313
0.0903200670585479
0.0913153995672321
0.090555181313697
0.0935259144520204
0.0891812819904373
0.0923791383384927
0.0912566868947842
0.0923772091772357
0.0898817621618733
0.0932736463011284
0.0909508713120546
0.0930965586249523
0.0902020653145631
0.0929991161927504
0.0907728492628765
0.09498992736148
0.0902509326320749
0.0926725625294028
0.087578538903247
0.0865373718153906
0.0788903955373726
0.0889402732511641
0.0906027009223338
0.100095053668836
0.0942712800616242
0.0878750197796312
0.0782967478881396
0.0932891023704048
0.0910146353855049
0.0885978859098879
0.0902239121127637
0.0944370631107935
0.0833459706195726
0.0939498031973783
0.0857380473951148
0.0938287219069112
0.0872352631590936
0.0950649337266266
0.0837139909900916
0.0944933542715652
0.0935804329470365
0.0995373212263535
0.0871723085120319
0.0961682839850607
0.0882646274013631
0.0942173998650772
0.0923673051351826
0.0926077359143445
0.0897499231232353
0.0961035646965733
0.0875412595002656
0.0959226804440007
0.0878123189807734
0.095255795115219
0.0877818027862184
0.0879588430545385
0.08617994959662
0.0906088828621332
0.0878730229196963
0.0927826275253414
0.0963634675261057
0.0946695809721189
0.0992272286388533
0.0862746473682049
0.0905920151947469
0.0874883511512048
0.107315789777169
0.0846198097224466
0.1028030479231
0.0765101783491483
0.111731502478173
0.0855818682451288
0.109901591289008
0.0740767150269052
0.116432848074333
0.0852406362061691
0.109336081767113
0.0825734842288748
0.114542251778895
0.0851003100592663
0.103398964860357
0.0919948665583098
0.099368772066117
0.0940668274600151
0.0991240485604498
0.0993396786808393
0.0956844421714706
0.0996098601747034
0.0999673788577557
0.0980566962415605
0.0986671995783318
0.0985567399677864
0.0985679296281691
0.0967862175860889
0.099399060905284
0.0970432928343856
0.0998624262605513
0.0998205653717377
0.0987463712248341
0.0971790551604495
0.0983621468680027
0.0970329142130836
0.101277042322488
0.0987628854965126
0.0991068983350109
0.0995241451839516
0.0990016651985485
0.0981055860818671
0.10042244996895
0.101093245986666
0.101241624438943
0.101162846953691
0.101201840543792
0.0987613999982866
0.0999344357481088
0.100012253640952
0.100910558191871
0.102377256152666
0.102680723400214
0.102270510258383
0.105096442824913
0.102303526061341
0.102230974455366
0.101325035091886
0.102005442188015
0.10335027213268
0.103932048782413
0.101983093552454
0.102598258041914
0.107045908184105
0.10713993941567
0.1037617420866
0.104516561268196
0.101999117564378
0.104419422863938
0.103646451627563
0.106895316412695
0.105837842774447
0.107678704078908
0.105913115117863
0.107818980952361
0.10865832048256
0.107110501849731
0.105968795076683
0.107653763048314
0.106626806888629
0.10420368825011
0.106767877554198
0.109364840590752
0.108851550436452
0.106946724071911
0.107235223657005
0.109287191090557
0.108929816520879
0.108403517522203
0.109088669320872
0.107562701279671
0.109116623506793
0.109366512078547
0.110519989153138
0.109902189455458
0.108972668623516
0.10900817890164
0.111050692457496
0.111680462196414
0.109480200272712
0.110892979162816
0.11051964157788
0.1129088033293
0.114907180966035
0.110748891317545
0.109407599017952
0.112326436679107
0.112403467318377
0.112931478299649
0.114360594966848
0.113296482407618
0.112580404194074
0.114817278624476
0.114825358098404
0.114069679311583
0.112844224827342
0.114041662210765
0.1147824513429
0.11593026826388
0.119028990123352
0.117154864402142
0.11560900562337
0.115763798749164
0.116749920851819
0.116635950257067
0.117775035278288
0.117814700312387
0.119881561761553
0.117457655916077
0.117411218779358
0.117806981621485
0.117645381622696
0.119792587299478
0.120215531226374
0.119745088736436
0.119345158387415
0.119637596770768
0.120889441081654
0.119240401020502
0.120455156568983
0.120785768128878
0.120303979515428
0.122476501249742
0.124355739248782
0.119804191858714
0.120890799415575
0.120171509437255
0.121599147883554
0.121018230093936
0.121927630805003
0.119795505698176
0.121534131177627
0.125870531522229
0.124115077425617
0.12340602223544
0.124640873107826
0.122715935043971
0.123741962068627
0.122674210127307
0.125252606735463
0.124180288430437
0.123167400079448
0.125408669048292
0.125511190824004
0.125779891375776
0.125955634227195
0.126101164010912
0.124405011366104
0.123834149726147
0.126036886824997
0.126562455356721
0.128252561525592
0.128742941489025
0.127524333037931
0.127963131814588
0.127685474948181
0.130794644194316
0.130592548732099
0.128801903088793
0.129935407468736
0.127927196166488
0.129246474669438
0.12881147291186
0.131383950431578
0.129099805474672
0.12991726817383
0.129588821063726
0.127674471363617
0.129042037907339
0.130641858955317
0.130079606055588
0.130046075723839
0.12780555708449
0.131385217100577
0.130832269039917
0.131204429379561
0.130496107203457
0.130556951039813
0.129494863057061
0.130747074207971
0.13247288265285
0.131830063330423
0.132174983788081
0.130555342700112
0.129526540079843
0.132698352832403
0.130089074879445
0.129918177150013
0.12855312136966
0.131175733522566
0.130292323837014
0.130521704808625
0.129210060478152
0.129102333770906
0.130615047113841
0.128543617054833
0.127575558726467
0.129757999983742
0.126799580695635
0.128262643216499
0.127439248372883
0.129103111351632
0.128210286558494
0.130693903603546
0.129554735178609
0.129249137027349
0.129022869023482
0.130430875171931
0.129202337860638
0.128256541670194
0.129440855629005
0.130080993969677
0.130045530211899
0.129500285491917
0.128277082703902
0.129644009435175
0.126200616534661
0.127962862591654
0.127604460215567
0.129278102028028
0.127347440505476
0.128567981697412
0.128354685529323
0.127326126023258
0.128052149578078
0.125620344281919
0.128220413863039
0.129675684379165
0.128090438189196
0.128766579362173
0.128696493239654
0.127332869323441
0.124751684851825
0.12529933375842
0.129333423578609
0.127769157858543
0.126419198755258
0.125972632370397
0.126350101532353
0.127964117793033
0.124057200076112
0.123744831729682
0.127770377988384
0.124196111167615
0.123636000807584
0.127206364746302
0.1262463080209
0.124541617121553
0.12356505893083
0.127047817970662
0.12534496335182
0.124968624540367
0.121837056673804
0.124603210193051
0.121884683741809
0.121474374656916
0.12207225272837
0.123763415155741
0.124413248219955
0.12416410808847
0.122245960346392
0.123154156751869
0.123897584282153
0.124605571991602
0.121604838055447
0.123061358918192
0.120044227687559
0.120337475785283
0.120579813441877
0.119792477001973
0.119197180209539
0.122391611654382
0.120680655615152
0.121541909470825
0.12087121993138
0.12044056319064
0.117632396795398
0.11963232192445
0.119799129115422
0.118115116057848
0.118947211618697
0.119029520654716
0.116331683501492
0.117466185994846
0.116123477129266
0.118759660217429
0.119335236481574
0.120666406487424
0.118996130477737
0.117671445614322
0.114019838249395
0.115780426843175
0.118279332690446
0.115985043971739
0.115392502440819
0.116912350313601
0.115441231499069
0.117231875645532
0.11599383025777
0.112469292555206
0.11151168807509
0.112540183670621
0.113245961839553
0.110272192405807
0.108506836124953
0.111024928769468
0.112252622734927
0.112154720471479
0.11076486183173
0.110262047230001
0.110239757960665
0.109136752489193
0.107742645069992
0.109921809238612
0.108431579832232
0.109952081922748
0.106201476435233
0.109637613792133
0.107108623685289
0.109916698901018
0.108092621922562
0.106005703016154
0.104124663902261
0.105419124030653
0.10492691022169
0.107909122262832
0.103974867219478
0.104342230095661
0.103204436315159
0.105211271305451
0.104332708789452
0.102991171970373
0.102021517101466
0.100422731126459
0.10098130121815
0.103561788977257
0.0993207355251719
0.102750834320475
0.100069308129225
0.107287441161969
0.105043523702485
0.104079154048439
0.101077058133448
0.102403541694865
0.0995412085142823
0.103531564880488
0.0990131570992464
0.0998206158612373
0.100797528219397
0.0984348439847866
0.0991480794184422
0.101185303303343
0.100469358750414
0.0988912251918857
0.0985062826211566
0.0986577320565666
0.0969893577637975
0.097726194170073
0.0971838379072729
0.0978241895134862
0.0960675318588933
0.0980061124076623
0.0973285947648194
0.097294586811547
0.0960469427470893
0.0984414255480937
0.100948396862708
0.0995139746788117
0.0976951954518228
0.0952442297434756
0.0950874143705224
0.0954860925722977
0.0963201460684111
0.0957723402235073
0.0937048947284717
0.0950481578755811
0.0962345432334179
0.0940000412226925
0.0939719817858831
0.0931876583854023
0.0930431457190587
0.0947465363715087
0.0950126447542583
0.0916969706700407
0.0912250526743347
0.0922446056310251
0.0912616958582233
0.0910727609268426
0.0939300418418661
0.0927256071760836
0.0931876797132966
0.0879510089153403
0.0952240755163339
0.0966101835769999
0.0949847660218252
0.0926009420392267
0.0914843149376027
0.0902369598892043
0.0899088620170813
0.0900836579853044
0.0903966804122302
0.0879131417473273
0.0903435379495894
0.0883846399778075
0.0895188422638434
0.0889424100939053
0.0895081172374401
0.0901019720060006
0.0907996247259304
0.0908910141322728
0.0884134414497521
0.0904439301984115
0.0882891919815807
0.0891943808583685
0.0943882187936722
0.091302662632334
0.0921078693392557
0.0884203720195933
0.087323049969596
0.0988241838257078
0.0894869671455743
0.0935901241735361
0.0860517306047629
0.0932650408386126
0.0869752605547143
0.0917949457688638
0.0853091847473565
0.0928734899204804
0.0860498615194813
0.0916820222800837
0.0902674414690344
0.0928285973259615
0.0880468523148898
0.0881923836001946
0.0876861976802671
0.0893370477985429
0.0861180880025659
0.0893285317894647
0.088273642666292
0.0873050566174482
0.084262877528464
0.0914006045563612
0.0866281716344632
0.0925510102580516
0.088841996004471
0.0907997005275388
0.0860419215583619
0.0916566409982596
0.0833014334876775
0.0914479451593053
0.0877575347195872
0.0915002573597278
0.0878290857177213
0.0896478219394777
0.0877805686144124
0.0861555705288083
0.0873437642097961
0.0875195306517318
0.0887948439706942
0.0869766379285191
0.0874740736145391
0.0895176813092286
0.0876263595369362
0.0869462182116319
0.0896545959728508
0.0879572052632563
0.0871906662423965
0.0890719458122863
0.0888830814429606
0.088679462436644
0.0822257157895336
0.0988335596089606
0.0938946505743503
0.097810743405981
0.0907960092256452
0.0921247885985174
0.0855420092829058
0.0910971712054476
0.0852336026804522
0.091572134162025
0.0871491474029764
0.0909371661177504
0.0892100038302401
0.0930202358004166
0.0872022641733836
0.0892658904210174
0.0859171429298909
0.0912470955110018
0.0894679623563951
0.0914875915516879
0.0858366895818268
0.0912842019098166
0.0861808108187744
0.0882868148682964
0.0872191113961939
0.0930540803990042
0.0902534193406094
0.0794880476550584
0.10438433422918
0.0925767715391762
0.100055489022747
0.0868643308858649
0.0932892052947205
0.0890881446994257
0.0900961344817395
0.089544235795311
0.0939858002089695
0.090289271214039
0.09147989984979
0.0905826147861922
0.0932335781420988
0.0916950660424954
0.0875132096848091
0.0992093315787581
0.104353554420506
0.0953305478655981
0.09960790984286
0.0845179274299747
0.0987960349739101
0.102777322277402
0.0962701499090027
0.0952321913603372
0.0913428488398862
0.0940923238417095
0.0950680047683267
0.0942195035839417
0.0939262360782746
0.0996744938757703
0.0940733619735147
0.0970527690408491
0.0931419477557881
0.0977748818707597
0.0965385099618431
0.096755936412776
0.0972668405815411
0.0982766347794305
0.0969161852155567
0.0996664270968773
0.0961853180957079
0.0971079575041948
0.0958165683869378
0.0993691105244816
0.0958121470877003
0.1032450355907
0.0973290394209285
0.100531452959594
0.103554796267516
0.10539330865895
0.0995757728955464
0.0999012316155597
0.101170146903865
0.108783967084577
0.0885473317712271
0.113545987851946
0.0966492703173742
0.120052474936415
0.103016336376211
0.109459391332096
0.0985121201715032
0.108284752997242
0.100544007879278
0.105409726350172
0.110038553377113
0.104623304398792
0.109585721122969
0.0994567280487265
0.110440041889569
0.106794144296684
0.114465834833571
0.104901053871155
0.111011016163938
0.102204737164707
0.118766430832002
0.103019633887261
0.110257919771185
0.116439110931314
0.114584563565605
0.126017842670003
0.11013650750659
0.117189896761696
0.116430525218955
0.121181085259128
0.11854180537384
0.10990645535167
0.120157877826857
0.108315052101461
0.119603301600998
0.127109276011033
0.120763073085735
0.123173149087418
0.116901210338087
0.122948692744628
0.132824314615708
0.130862660583756
0.124118546257645
0.124196810769205
0.123659617840229
0.113855295263316
0.147182338553638
0.126913288184779
0.144645474419639
0.128189888909992
0.147232290962884
0.134011216111678
0.145078373745945
0.127966682837017
0.144142379508138
0.142443128944897
0.14739020089755
0.128397665192908
0.153204340811413
0.146433818178801
0.151765293377701
0.147077919810732
0.145344793695566
0.140124676220207
0.156001325398061
0.175469053521841
0.176221753114444
0.155383016437383
0.163797633762386
0.164805882880252
0.16543377048273
0.166269500253071
0.16775489780341
0.167071874713585
0.168722774244838
0.171747504378389
0.177652838549285
0.172157145787004
0.183235382664106
0.174079468416548
0.185432766929487
0.177741592306981
0.220924006251827
0.201220297936564
0.205072895690949
0.200486445099356
0.207246649927528
0.211446268368088
0.206041872861178
0.214247365654011
0.212068500463466
0.221718315971831
0.222757886602751
0.222344977472933
0.237843001101521
0.227255137860512
0.261651319562994
0.241532773676947
0.260653226268489
0.233729338354135
0.25550676420184
0.307519095910862
0.28528399089291
0.287178438442047
0.258198199339901
0.301527431281198
0.307546923696578
0.313959806569168
0.30232886196043
0.314049683005174
0.31655109562941
0.329269112640011
0.33007857158301
0.343738013908656
0.351601555975459
0.358902020255521
0.349298659543396
0.368577884742728
0.382239735990501
0.428792648187142
0.398025352371735
0.408967003007008
0.402962380768387
0.431763512261454
0.421634852231194
0.446243690738452
0.419182767563106
0.460093063935938
0.467256322460198
0.484442035719591
0.45870277693963
0.491940685719264
0.491188871093121
0.493659620567793
0.518614197645211
0.526308977678201
0.534892633467439
0.52617503682471
0.547128315639848
0.538430349624925
0.554654337237702
0.56920265684603
0.584124335142331
0.581436305556896
0.591554421700627
0.599279688317005
0.597392350220194
0.622757269596806
0.611244953389965
0.627800200666432
0.620122521293404
0.62289300371813
0.75857958244705
0.666380829088894
0.652508505915338
0.646163624360917
0.658615304642928
0.668964057169993
0.670625024122399
0.69124331841986
0.6956826148711
0.681796908950322
0.671679850417236
0.693749929237645
0.66936027575819
0.693134890662667
0.689606409620309
0.676642520342
0.700595443011258
0.672351718821659
0.717242825855992
0.714574177057255
0.697554828552274
0.682608836440816
0.676463867698267
0.668539000646884
0.685746644257881
0.661578027408924
0.680362214359072
0.682320980634464
0.670953907255086
0.652847175875383
0.653405211380465
0.656680395068399
0.654896823327504
0.644078990095689
0.615818991147015
0.610163495549298
0.612386650219829
0.589846511814212
0.636231864471494
0.622216412818811
0.600137962261801
0.56922069200914
0.561778124641521
0.564199419881103
0.558217521696742
0.544431790575395
0.547074538635514
0.542745648594946
0.540975215668805
0.522039738021573
0.517933101508415
0.512941469668517
0.505383965387449
0.511845476315063
0.499459434998437
0.495845264868838
0.490095765992042
0.489234274933447
0.481371527156607
0.482458615869459
0.476027683572441
0.473901778292821
0.479116831327225
0.471364253435566
0.461912061491734
0.463965860035294
0.457051376061058
0.453530784322835
0.447623823719673
0.449698242567078
0.438633449777278
0.442464016604241
0.440742735673333
0.440252519308913
0.43702819432664
0.444102560407277
0.429172640987096
0.435759458675001
0.425124564558592
0.437712389364008
0.42080359203179
0.417628498432536
0.463468202160133
0.437248017152891
0.437220491397148
0.415938259669438
0.426901171639088
0.404685668228889
0.406615003367427
0.4269782027102
0.425091921272387
0.41840178036197
0.409445151132841
0.400064811101012
0.411537520002894
0.405396186675187
0.405121916697824
0.395137601608854
0.384090795872187
0.429816051562461
0.387337684650714
0.449711707908902
0.412296726851671
0.423358262301049
0.368593529222567
0.406203028729161
0.389102916015949
0.395440502278305
0.374219728592801
0.377479828500879
0.381921614217044
0.377466638250091
0.373341542368223
0.367229076493076
0.357245268078425
0.361401398085535
0.378236277219869
0.356613519263036
0.364673872664239
0.364048830591298
0.35692837795806
0.347441951487575
0.394414020821287
0.365603612699198
0.341145558104522
0.345102784991138
0.328099026222008
0.345157361946327
0.348435244183979
0.340973146782362
0.339086587256085
0.320094448992637
0.326200829014826
0.315231757656067
0.342383838651841
0.309717394234106
0.328606636321527
0.317656864830703
0.315432255132394
0.305211315827649
0.305528463393668
0.338670331477888
0.328903521720535
0.319858231782752
0.291396125999709
0.321018650270917
0.298795136606664
0.31214672041025
0.301801145467108
0.292260721443815
0.297217779343745
0.301443292760444
0.289802801870441
0.296844592105983
0.283204630706705
0.29752405135603
0.27935622801952
0.312864694665323
0.305414199534721
0.289337120351148
0.282531468089532
0.276891043656384
0.28452483723397
0.277170754990906
0.26596922526368
0.297225693204002
0.267878930510121
0.288112625275085
0.280066474124711
0.289773812499182
0.278218316023458
0.283564843334634
0.276820201111914
0.284690300730867
0.291621075646122
0.308791197698061
0.281458229935155
0.293791186203092
0.28087988343389
0.300717733218472
0.286875072655449
0.297368645762762
0.29060854552503
0.302664738129746
0.304091857121913
0.31030207164204
0.305078630691924
0.317264697267744
0.299605942846737
0.340893072144152
0.318496184112517
0.337219134640422
0.326221557275448
0.351560501866638
0.356497600534297
0.352836217588741
0.357177117165994
0.354924189771214
0.36297896351488
0.365577620437492
0.358973501723378
0.380182690517257
0.380113973574418
0.390471811006727
0.382025535606662
0.394625231707779
0.385588767175255
0.394637894802106
0.403810199982301
0.391870722383473
0.436529710578551
0.405459095561031
0.429997389107449
0.396904165433684
0.407522711611255
0.407881449380089
0.407585832540891
0.40660101601545
0.401191602749946
0.414506386422633
0.420603414054203
0.417318716239385
0.417891284650509
0.415118676494119
0.418073683251717
0.420104739476914
0.421228748145737
0.425530115672337
0.421578912040616
0.434322637179354
0.418055504427968
0.43487700336505
0.446680584170442
0.451591825808907
0.4406571401933
0.436788072516809
0.45208810029094
0.439596555505439
0.442226700955117
0.45136739630381
0.458517669226839
0.460221678419087
0.452767510422291
0.456046412374301
0.452292608905471
0.469461772625296
0.466597367945616
0.464044657333451
0.472251965344954
0.448620772059727
0.488533465983896
0.474440002486077
0.493658504211434
0.47009678530614
0.484675632636476
0.469951416727501
0.48181827746723
0.478550299543573
0.481030106699445
0.478499887197036
0.484841021463673
0.483015018261476
0.477936215559395
0.484936545628127
0.475899598006144
0.475687042992015
0.480020675515224
0.478757685701392
0.474063869100187
0.476313016471341
0.475214737292461
0.468118472167013
0.484144163060263
0.479185610463655
0.481512999906011
0.465899969740699
0.476226040755883
0.482405515955065
0.482944111463047
0.471898203735433
0.468749379031125
0.468836625661599
0.480829007812404
0.462887996431922
0.480921006933722
0.480297323485192
0.496359624280897
0.475875670412736
0.488613815181762
0.482138137087751
0.491856721826808
0.488604757887928
0.492325066814766
0.494693990225752
0.502974362892273
0.500520534295831
0.499320692037671
0.501785763586381
0.506498054058574
0.51014461999868
0.512300064893633
0.501763181304778
0.502682179882063
0.497061671722329
0.502968661289315
0.504047168624024
0.503335565185105
0.488369397788097
0.493024554654835
0.473997371904353
0.49140477352115
0.489970655533954
0.481664101648877
0.483359843781365
0.475700969749325
0.471851093270442
0.468317461221838
0.467178555279926
0.458953750986506
0.465976782740032
0.464663913771524
0.456176915041835
0.453417048583441
0.451422797524658
0.451247108639291
0.453994429832222
0.451495529391393
0.451359010440513
0.453116869090219
0.448717376685529
0.448812332601016
0.44598590323033
0.453684788303513
0.447092548224663
0.444583134686388
0.450472973772868
0.450951495127402
0.448246911838211
0.445329250634942
0.450505154372532
0.444520100148403
0.451652912640284
0.445764695964589
0.446885032742363
0.44046614655806
0.443777057714775
0.442022297497151
0.44286236503613
0.4428248497977
0.4421421770793
0.438275456849701
0.44245604632094
0.433760291289321
0.436662716444847
0.436963336175753
0.436098341620704
0.439578250139671
0.431587928959383
0.43844563450841
0.430070981399923
0.43652291323067
0.436492061232059
0.432156246186214
0.42723314026989
0.430642050974973
0.43445255056649
0.431974246821799
0.428675068400989
0.431692553428012
0.428821650652178
0.426393469479682
0.43033259615069
0.427597115976161
0.429425113071212
0.426967509393993
0.423313069764856
0.423625095401802
0.420879396375849
0.41840146188151
0.416778434033852
0.4150949827279
0.412898619303228
0.409247369037139
0.40491666727421
0.40689461423684
0.401102934615718
0.401597559104688
0.400564540729538
0.396613081971523
0.397751194127799
0.392880948639417
0.390045946646235
0.394801357090724
0.391041391380076
0.393578936459915
0.391940368021459
0.390981961330164
0.393125415113527
0.391803130509527
0.390761269237473
0.389441126829852
0.387500636581913
0.389621362524593
0.393802330602861
0.391622617776351
0.392225887404036
0.391435047159564
0.39383512000321
0.396280728815647
0.397647401635943
0.398134401182468
0.398025070635034
0.401141691654898
0.401430160073563
0.404298269899161
0.405157130175266
0.408932414825906
0.402392138145829
0.405562404151247
0.408904877670577
0.405877785924809
0.408754119413621
0.40428815068376
0.410843301794943
0.404620933047544
0.407098994333262
0.407132970872591
0.406163794278769
0.407563856438998
0.407034191806763
0.402419557329727
0.401861401713315
0.401660263385865
0.400335966567956
0.39762567045213
0.400335829489115
0.39405839489154
0.395533482912735
0.395497366663051
0.394395293894512
0.392757973647257
0.392460117473919
0.392540087091616
0.389239467344698
0.387841175119678
0.38563834353505
0.386442597423081
0.383699416830543
0.386131030977248
0.383402478007731
0.380391551880753
0.378855401583386
0.379165395212439
0.377977886541435
0.3793293617311
0.377564836105248
0.374959784242576
0.374052548017048
0.373773523570074
0.373959862327953
0.37155071886873
0.368820287851917
0.370443393823089
0.366656602392231
0.367266354812938
0.367098803681158
0.360504677619286
0.361332982173749
0.355693797704008
0.356423529362893
0.356389939701756
0.352398607405952
0.349931399957309
0.346857055984733
0.346829827887122
0.344489764480374
0.343031176113245
0.342129625680181
0.342992845094117
0.342278569975671
0.341629103008316
0.341625386768143
0.339652346749481
0.339048417684411
0.337891484875267
0.337223259105037
0.333413521369539
0.335656465264772
0.331573062918328
0.32984075825889
0.328304543215368
0.323727179363853
0.320877839215716
0.318689762428741
0.315180252821417
0.311775447584985
0.309794152393538
0.305800546085045
0.30500174149838
0.304626218518212
0.301386962088159
0.305065478064732
0.303738700645232
0.305710799794585
0.310500963893677
0.311454657078232
0.314954504399795
0.319123102439791
0.32689179721209
0.331549606672938
0.340264171836268
0.348178961386159
0.358228973122926
0.36850356368473
0.381187277013598
0.391257562065937
0.401668083480665
0.416009128290999
0.429959680833693
0.441301625707778
0.454163462589107
0.464814240064115
0.477891337227485
0.493291848588171
0.50880440785442
0.52105383818746
0.535873451897461
0.544226735370756
0.56284661318455
0.571312103672217
0.578830553680967
0.58893690000198
0.598263038202961
0.607325098406499
0.612869314730921
0.615386669998816
0.626077687747872
0.621579551060544
0.629111141986229
0.624892045577707
0.622028372546903
0.62129679688316
0.620881686557524
0.623374999073697
0.62031433306948
0.617966305070639
0.613759761207201
0.615782302291681
0.611119520243021
0.610036916333835
0.612109192381628
0.613871604009067
0.609982465885601
0.612437375097711
0.614899511832505
0.616550815658669
0.617703260102127
0.624372191249667
0.629054425187561
0.633906761037587
0.641179095964053
0.643450549734758
0.654166588336716
0.656009105585242
0.666003456686611
0.668258943666869
0.686820903558265
0.699124060732796
0.708923908283724
0.724144773007724
0.731348050931057
0.738924236476894
0.742837678652186
0.74726023821281
0.757270122252991
0.7570965594916
0.75911384277558
0.761629684849517
0.749241226574204
0.749192022463018
0.75225906545239
0.746564030742916
0.737805924157425
0.73389121582955
0.732091839009785
0.731192603006209
0.730316732344808
0.729270192622629
0.739280306898733
0.752355138350522
0.75570169299171
0.765658453682347
0.779960391814175
0.783343377786726
0.793118313314726
0.807877302908781
0.816759341766168
0.829262503682888
0.841436764876541
0.844947570205492
0.854306761510169
0.865573868346135
0.875919134750633
0.885226217195553
0.901342607590553
0.903104585137871
0.915940258074309
0.935738671997252
0.960072505813256
0.961148947767267
0.977504047957293
1.00230171849491
1.01124695613993
1.04155984226892
1.07623282786161
1.08934252987583
1.09192782088599
1.13082952266661
1.11763804600143
1.12499198828199
1.14869176026516
1.14690397151533
1.16748306932298
1.16904040213637
1.19722050087752
1.18100002252041
1.19795646405952
1.17473799210852
1.18886189917863
1.17229147258269
1.16027898314815
1.1362298875594
1.14678528516303
1.12935724237262
1.1322526620813
1.12284130020644
1.13429116946547
1.11979891293989
1.14255833729725
1.11245911210078
1.13022406762817
1.13601711649636
1.13715852502195
1.13554992726789
1.16219365433573
1.16948185610031
1.18367758457042
1.17988918839689
1.20801837888923
1.20260377974832
1.21030313018549
1.24110591719805
1.26510303386008
1.26601293102052
1.26989005993325
1.2640767783
1.28126350801246
1.30884646201023
1.28515718804357
1.31430333965131
1.30947670483218
1.2982727950672
1.29040679057598
1.33294582148108
1.34830281398225
1.33310881746492
1.34945797235759
1.31061151492751
1.34597131675223
1.3563060028175
1.35395262238987
1.33073338955835
1.34296638946547
1.35336434535762
1.37393847417544
1.33011188353124
1.36594009369499
1.34706072706182
1.36746999747146
1.32556656902347
1.36985253766047
1.32459790685754
1.31520048846346
1.27009461752087
1.26314085136813
1.20811104504979
1.20055788124984
1.17123036424351
1.16858489264877
1.10354555615955
1.07906837953847
1.04963349539002
1.01523542155632
0.984079571495524
0.980807214875381
0.93680929498799
0.917710834650122
0.901458798257844
0.905223787267954
0.893063555097809
0.899848740076142
0.880991178146463
0.890573563373501
0.88679494583598
0.883172820952617
0.876654517404654
0.881937203296702
0.857757936035756
0.850232141005418
0.838738925150839
0.831492215603978
0.816876486865682
0.801930430219924
0.791282538943898
0.77645855339815
0.761735136113356
0.744114909643831
0.717203799839431
0.716341511773172
0.69308189913407
0.674677051874871
0.659372259731202
0.635251979080569
0.625613722978749
0.607213688461098
0.586207824601251
0.567167163309071
0.551113874098586
0.54444462014005
0.527181047060628
0.512186110944701
0.500266111799951
0.494927390030574
0.482577061692165
0.476240411498797
0.467401537832616
0.461624962896518
0.452612779758524
0.451130555192049
0.445314605753652
0.439655421216727
0.439716841534394
0.434537502642257
0.431698251322742
0.434484693993247
0.427165442915446
0.431305629840227
0.431125008408522
0.431673707310145
0.432142653071359
0.430470996282489
0.43132249239273
0.438002294034871
0.438805959994499
0.435845234682394
0.441514197045203
0.444705629636555
0.447346735667065
0.450440295900695
0.442014724477472
0.451569068033796
0.44379605541227
0.441851557449694
0.442362785064362
0.445074250127256
0.442592196043684
0.450349052412368
0.437952191001707
0.446314716243796
0.441517859652132
0.445361349972778
0.444239485090815
0.446529449338179
0.442633727985033
0.450499499563414
0.450262651968422
0.452716745225158
0.453110916075422
0.459982716051777
0.459674886926323
0.460268669936382
0.457542165432897
0.463801325521071
0.466234368882107
0.471731755457699
0.470185704439319
0.478104535283475
0.476089526714202
0.474580483205807
0.481498506479296
0.482662018442976
0.478750879903704
0.485846366590752
0.486478421018718
0.495890069960547
0.486865775933543
0.474139911285082
0.490072431796405
0.495172950708505
0.487250357919279
0.505173704787333
0.495276186537675
0.5068105340145
0.506565481420378
0.50823346202173
0.518021963225253
0.52511642771484
0.52990753840453
0.547987231083907
0.546303743087092
0.56090714542248
0.571295253258339
0.583830202005593
0.58580256862495
0.58910370246006
0.590089020529966
0.61181858459404
0.593610050901212
0.59070564084766
0.585608993518907
0.588535598806019
0.57996019216048
0.575270878851833
0.581291237929586
0.588953756707059
0.582554440903083
0.589062571327994
0.58402740257543
0.591529237308426
0.588358036787349
0.597193267460823
0.592107096328086
0.59998544473016
0.58040346994941
0.600020695026279
0.600467091469354
0.608643470646185
0.599492122714584
0.603710367585243
0.594833175944144
0.608896659157387
0.60184285625287
0.608082643976248
0.597554629374183
0.613892463176508
0.60257559814505
0.625513502402301
0.61251712186358
0.599436270744185
0.607217972276256
0.603815305877382
0.610590231089207
0.627108660132592
0.613866648644804
0.623382635107579
0.62965111097712
0.633225604368628
0.619566975512533
0.645025566289353
0.620350284248263
0.630704142291496
0.641159188615697
0.646609692516621
0.634834427034616
0.650369410848361
0.642471847875376
0.640408858880001
0.652907565717585
0.650953054770964
0.645891600399232
0.665823971484896
0.647228377558646
0.660459170755297
0.661076210799424
0.676295304018757
0.654910603752343
0.659255755535136
0.665333935483078
0.674488674040645
0.662965853887707
0.670005353504739
0.677356706771393
0.685850386878014
0.678276783674454
0.684194740393333
0.681683906209484
0.69170543830547
0.695323395733498
0.697443301702454
0.693492374654197
0.690308825370336
0.68419638456378
0.750734310201631
0.700505341701084
0.706561849214746
0.706144067657978
0.70952616063006
0.704144086386759
0.720004491728706
0.735941588563499
0.742299551576729
0.73090882791735
0.746894759755384
0.73330418293275
0.772242046232461
0.729275169479004
0.789120267045101
0.738189036153286
0.77928365272767
0.753412155832978
0.791446949119119
0.754978556111286
0.783797066425728
0.797771368351298
0.826957547982521
0.806426962360254
0.779389866940143
0.782828466242126
0.852162659466244
0.811694826523827
0.836770373565157
0.829481544313238
0.873017436567605
0.849913522586408
0.884829692630483
0.867581010918102
0.950662484018797
0.905483623863396
0.90502573603398
0.954285901915789
0.936654098192292
0.919200612053321
0.980208112821087
0.901892892208417
1.00303909714004
0.898435271807836
0.980503484551695
0.944805924872914
0.949954695956899
0.906232890464172
1.00388592612446
0.915843451079778
1.03151310125523
0.907776439622342
0.929797356934648
0.972213618955787
1.00076878352576
1.03239957123364
1.1019504925392
0.959765518658211
1.00149599750574
0.97846588866515
1.01561360194882
0.874194398180384
1.06716694218732
1.01908262767955
1.00806147758845
1.01232941803461
1.04313546437768
0.964267719597611
0.967761188956815
1.05943720251382
1.09506580426419
0.961197279628102
0.99087923396495
0.945886929671951
1.05079452251542
1.10630801988198
1.11970009104369
0.961926508107015
1.03937924014528
0.982502757864171
0.952845267866693
0.919071119137661
1.12883711033115
0.971217326997415
1.17476920843124
0.902571438540826
1.05983189026878
0.934039892372967
1.12961852370002
1.04300130940935
1.0839103562524
0.949447568672687
1.05498945949914
0.982677895175557
1.06015818507842
1.05201276873477
1.24966713839944
1.1340530307644
1.21806947601777
1.0131841646006
1.30238383310356
1.01284476292138
1.14058120844034
1.14554597840413
1.09269986352816
1.06792309025047
1.35556560471534
1.0173496771838
1.55377639120996
1.06659387525592
1.14540347362026
1.12864649171047
1.33251186799276
1.29424150067736
1.46666066798385
1.07847462324255
1.2366905401597
1.00561541885004
1.25434170448573
1.06194322746133
1.50066358759514
1.04336283634607
1.29786052815311
1.18839087700765
1.32940717296324
1.11415064007713
1.23501180450919
1.03482186377162
1.45479754312588
1.04651463312842
1.46864553451984
0.972909128285149
1.62091876631843
1.11130514014832
1.2847528297367
0.949649687779059
1.21380226056791
1.08405523442416
5
0.929903432847709
1.30175591062308
1.13686080383979
1.23937657177633
1.19048284963732
2.19014822677406
1.09711172127222
5
1.16467992827869
1.61804619216297
1.12869056059744
5
1.30928982405148
5
1.04050187161736
1.60953644147821
0.955076874367965
1.41731877499654
1.00281181845767
1.15044412949911
1.21234784355068
1.66618626053713
0.970481116209569
5
0.95002882805365
5
5
1.72675900131676
0.69346135726758
1.65183365127885
0.829034586237392
1.44539418057061
0.881411075728803
2.12374524593378
0.935053874788852
5
5
5
5
0.858537379045638
0.803184553743365
5
0.971978831777809
5
0.967524190136186
1.19518446457956
