3596
4000.36533379555
650.420452594757
1
2
2
0.0454449974121374
0.0374796139037995
0.0397917817014501
0.0356917014409142
0.037399735887263
0.0498035611030119
0.0461955184726081
0.0398727107755364
0.0415111305643779
0.0487523604588308
0.041119718740988
0.043394537595655
0.0409709111905046
0.0388071920121268
0.0326145294714499
0.0417204920996258
0.0389797516993156
0.0327530586543674
0.0399893150866493
0.0413756495104901
0.038897189322852
0.0415933188874058
0.0387600914974038
0.0453483559919734
0.0467586861396788
0.0389027394027888
0.0396447524967626
0.0364756290264186
0.0324394836595525
0.0412203442191041
0.0332751187231148
0.0350984719583806
0.0453421230125053
0.0376365888468177
0.0356498912044351
0.0399954835624456
0.0327295790382552
0.0294818356176565
0.0383571423076253
0.0437291366593525
0.0419162720765648
0.03412210349729
0.0374874048339054
0.037008064649992
0.0411034735058195
0.0387510750155877
0.0488949814585763
0.0329483230566868
0.0365016575426119
0.0376157311231829
0.0363494750564191
0.0415633099837082
0.0443899090577063
0.0484009490461626
0.0311758458076881
0.0467457171066782
0.0422417488235343
0.0414876483858191
0.04125873236445
0.0350775734133431
0.0374487809470197
0.0496381325903429
0.0300544215184982
0.0430330690169098
0.0364877672483247
0.041541350247012
0.0451885997001656
0.0428204426968271
0.0279318860830095
0.0399447626182375
0.0299719379313569
0.0473513943897165
0.0466842298509317
0.0327938941416873
0.0417019838391394
0.0480364475303899
0.032833465691479
0.0318982004792333
0.0237567189319955
0.035535260179378
0.0369536290723047
0.0399475592630504
0.0328450425757705
0.0334573228744212
0.0308695393710247
0.0506421128514095
0.0277061107364635
0.0276234320209881
0.0458162815135745
0.044498346959637
0.0392176900075138
0.037677763623369
0.0293025728311797
0.0364580591927185
0.0275332230721396
0.0368757446470719
0.0385136963629209
0.0339899062398542
0.0313789778954697
0.0301522377539583
0.0395354203296714
0.0172912426944195
0.0700372318294808
0.0207936260127136
0.0657850914046418
0.0553891333711033
0.0169990380017042
0.0702130440189196
0.0388917876991347
0.048932301661527
0.0327345651667028
0.0465558859735136
0.0314392926785586
0.0412191825620185
0.0179316848534771
0.0331120738479698
0.0597043631384656
0.0430453246818333
0.0395496885061924
0.0367430219947064
0.0173829951104009
0.0275509873825883
0.072206915507497
0.0335766019539373
0.0448729886426125
0.0368370345013585
0.0193776137357383
0.0514974085737627
0.0691460600597364
0.0294608283749081
0.0345500070626765
0.03475853439479
0.0305741893447995
0.0109899668086309
0.0612528496146747
0.0366758582120335
0.040262144015304
0.0207684426783287
0.0370339926264785
0.0659230545811576
0.0431158407003507
0.0380740008637553
0.0217536359976307
0.0181092741360366
0.0539987651136985
0.0470454003041762
0.0326362532046365
0.0457473353673669
0.0469615494713565
0.0345456012787481
0.0358984949504429
0.0218636369292706
0.0403891118823587
0.0423065389847311
-0.0184663552514059
-0.00209240502520242
0.101721674860133
0.0188373549541081
0.0950363678963954
0.0261622383160346
0.0533277109203899
0.0290957191931246
0.0366691753206637
0.0293154380918557
0.0432579870871004
0.0247775838448491
0.0283896668411048
0.0549947994849458
0.0398631947390017
0.0297285002927027
0.0417698034895732
0.0473939796117205
0.00574583577889054
0.0776327030902363
0.0546278710065783
0.013849543464735
0.052562010818919
0.0465504903921443
0.0235706229643608
0.0201720190045875
0.0617383547731683
0.0269729099225051
0.0411082055084785
0.0216487485825677
0.0283747593435361
0.0435956806475198
0.0379796398894202
0.0300822929528754
0.0453199797694876
0.0108376297900017
0.0335776789352102
0.062103298148798
0.0570904012249083
0.0246034575937048
0.048443538736906
-0.0068233283135973
0.0454008909533369
0.0654237172201168
0.041403113706324
0.0377843854996348
0.0319007997322498
0.03462366855173
0.0341371009218562
0.0279011869986374
0.0316837492694433
-0.00627445000781292
0.0601821072200149
0.0489010901655328
0.0386862148070467
0.0265494629625128
0.0349801357554635
0.00708954776191499
0.0522403214690591
0.0658316519739229
0.0307890097741885
0.0378295942856079
0.0205248127247942
0.0353795112749366
0.0487091273138422
0.0353134397376838
0.0388342834005443
0.0359072271111627
0.0383650906904788
0.0364526393817173
0.0269336999118236
0.0318342313511518
0.0317158410057541
0.0319429118425897
0.0322319159822651
0.0281746359794088
0.0350059634510135
0.0358370745136049
0.0316531394807768
0.0367742819988981
0.0343437196036745
0.0276751542925928
0.050953480068855
0.0408700178675174
0.0444593393511221
0.0315632008123311
0.0377869787625126
0.0299525263109241
0.0406340272789885
0.0319816260395425
0.037586186819843
0.0132469358958581
0.0691265470550122
0.0345228194813761
0.0447731833241658
0.0201384033330258
0.040513805533642
0.0484896811948004
0.0400399905113397
0.0367229057122162
0.0361294110929919
0.032108696745668
0.0264698192697941
0.0671505865975742
0.0410606510502869
0.0240429317888545
0.0432586959657247
0.0490831307646159
0.0293549245844749
0.0317093365480658
-0.0126399047153481
0.0934723222230626
0.0470482625314945
-0.00440432496641514
0.0828012118078634
0.0443253134597194
0.0382281983193027
0.0368499452905867
-0.0185256890518293
0.103622092556962
0.0822649304964319
0.0412932779925325
0.023296023549187
0.0571579607214202
0.038811176019156
0.0408303716291311
0.0362804899172348
0.0300845150228639
0.0495638284223392
0.0249637132733888
0.0981539102574863
0.021518958150603
0.0468177990035122
0.0631955825136005
0.0443834436540766
0.0413097115283592
0.0340437621054753
0.0256435224672469
0.0429320745771994
0.0534752524696251
0.0471274268060265
0.0566572555791319
0.0201308062902335
0.0627745898169596
0.0531576010592492
0.0413099703632807
0.0350897067758301
0.0528067868478213
0.033780399446112
0.0440091487599559
0.0287858234666327
0.0455674598847929
0.035077968256983
0.0206852085127156
0.0799297972020807
0.0518550538813609
0.0342187035834148
0.0703814697961779
0.0463931046782355
0.0458791056586478
0.0381836978102111
0.0467067984201331
0.041425404670681
0.0461452215592907
0.026352896821748
0.0586895315245138
0.052308476527038
0.0444346594350346
0.0450727766731005
0.0430895161014357
0.0434526849743063
0.046183305908281
0.0457250062425285
0.0485870245273974
0.0457253273520245
0.0280100168099471
0.0455333207167232
0.084829449079764
0.0219501896145073
0.058094116093359
0.0838133156291811
0.051259104529202
0.0620381120071814
0.047641937399257
0.0580635290806475
0.0476383855860971
0.0567392406139775
0.0498182761483143
0.0552293090765407
0.0588789456081507
0.0675150321983232
0.0478343197132915
0.0409386801033291
0.0736631076506701
0.11454856596747
0.0765317248953123
0.0709225638479699
0.0458815727495395
0.0708129116781394
0.0871098816830534
0.0766578219374758
0.0987639949531762
0.0692165831378657
0.0805847831271764
0.0619649671963242
0.0785780615948159
0.0740347363830676
0.0835088529882356
0.0766880541878042
0.0872030352767083
0.0848656455182346
0.0891012640280171
0.0808492672648092
0.0746873365855838
0.112635582696941
0.104889769361184
0.0869870804561599
0.0968161523039838
0.0723676047320728
0.107142238232906
0.0952518308758161
0.113440721232323
0.126101713765102
0.0946483118141447
0.145477428116409
0.0994459744315019
0.114548600588872
0.0986133191512206
0.118123178619093
0.118777608847274
0.11943151836764
0.112392732291781
0.121255764043241
0.116299013517155
0.129941350007295
0.119756689656422
0.131364858373488
0.116826267577536
0.146844792591796
0.13234195841312
0.144654459871637
0.122916464748552
0.13067363245849
0.157644388653907
0.176663343162856
0.149564633917286
0.144752330847852
0.151538282433058
0.143814881358145
0.152440125133135
0.147426525506432
0.162267404007051
0.146463431305721
0.180673930827925
0.168421272809267
0.165056607497223
0.190676714422851
0.164300956990135
0.180612231151556
0.178861392325709
0.172155392927601
0.207257203291411
0.189752375282581
0.172339324014736
0.192219577737236
0.215080381739923
0.196729109886944
0.227915606917563
0.194471693065039
0.205653255597115
0.202071527742937
0.206741795627185
0.208072365001513
0.217244828323557
0.225824956372549
0.216254529161335
0.221078444516611
0.233332024478928
0.223413826038043
0.247902806721665
0.243189585350894
0.238612389338663
0.260057505183523
0.233450554843247
0.260159955197129
0.238666745597239
0.252324183822039
0.273745559154008
0.246556643729999
0.298898476044024
0.256230100433907
0.263203904130655
0.273847715247313
0.278581518553418
0.264607813233391
0.281034724546953
0.275000122255049
0.281707764411692
0.284335753278876
0.303267136911831
0.289680256857717
0.298896028580176
0.295148781193332
0.295587021396055
0.317023811598224
0.31976241256988
0.315958552294649
0.313870932619959
0.317104572991
0.346731925387093
0.338457579057327
0.370971695004909
0.329946895966424
0.342245266880447
0.346156599657659
0.35247413585221
0.336747701829086
0.374036315646811
0.350619147991548
0.35919838897719
0.362801573998315
0.377019631130234
0.390555317291176
0.389393948003969
0.381722140606338
0.408676935624486
0.406149535121341
0.405287805896006
0.398033347798533
0.408783886952398
0.402340363748862
0.412265365131282
0.41475329451667
0.436868963109274
0.438106895723584
0.442861114867972
0.420198925232078
0.451866456541665
0.428950487631754
0.449426162365749
0.455918211896978
0.45600095732259
0.45004505575624
0.476283353204957
0.482966972224533
0.461752039368256
0.466653102902642
0.500264907499662
0.474608263255763
0.479848504853586
0.49126147182413
0.499744236636645
0.491162288873783
0.511925396833606
0.486202039236335
0.532224959738006
0.525343261996212
0.527269946104893
0.503979398324209
0.54707880940465
0.56478479603972
0.55886567208112
0.555191960497059
0.545822979195214
0.540883354469518
0.56616278474944
0.540054280603504
0.560748141349121
0.565500522690914
0.59185483814188
0.595878097543315
0.600576965676088
0.584352336183863
0.60360770399192
0.573361825213703
0.599631706865123
0.595510090678045
0.620452041152104
0.63272557596717
0.626514814504467
0.597252999626691
0.658203743563927
0.652610550876314
0.640080168312779
0.63728948891218
0.655700504871383
0.644071147849494
0.69748378470978
0.679875202027936
0.659132270710941
0.647039308537017
0.691203893125296
0.683931582220891
0.674522391749962
0.690667436408598
0.704475392428385
0.687419667834496
0.703640539088677
0.712994456787597
0.71352239743885
0.695339409599181
0.734490017600877
0.744121935662193
0.748062889638761
0.748145806916243
0.764536070537038
0.737388216795822
0.786121718603713
0.740757142258654
0.766555610163908
0.748519423215615
0.783217535959793
0.758640834109194
0.792374235974553
0.754370996983242
0.782046417272785
0.790882757221475
0.78352921528567
0.777726828786786
0.829850627230573
0.826492553025827
0.847525140734934
0.835398907787701
0.82448475697289
0.805854081456342
0.836972656767082
0.821651375816486
0.863022509474579
0.815531750757365
0.870737345823702
0.860017053379173
0.893704708881638
0.824368662924698
0.880398763712853
0.86420430970016
0.904187414203525
0.866779543320277
0.869115613391762
0.899021838407754
0.958733757581871
0.864899994566682
0.885470625072335
0.882348836527737
0.864775716655754
0.885396773729025
0.9541264203894
0.918546369632064
0.929342232106878
0.884030635756339
0.928048236395863
0.925023714929623
0.963664384834429
0.983526553400325
1.00195644404832
0.922142273149368
0.92727657232202
0.893142833552112
1.03420760079966
0.999038464657748
0.97994726025692
1.00879181331836
0.9884313841685
0.983271602702497
1.00686162883788
0.946082177827109
1.00062955282228
0.939062244784234
1.05638576716038
1.0476686211334
1.01560292953459
0.980442471206411
1.04677437980512
0.995528661785019
1.00317144326454
0.991931354245753
1.03056904765004
1.04963776445855
1.08502079126883
1.04471528387689
1.06436059137761
1.06807212418873
1.10340867116574
1.00766949845956
1.09220069246415
1.04967718883917
1.09499627016164
1.02959152581038
1.05596379090275
1.03197467555422
1.08221462399603
1.0947357063669
1.10274610444823
1.06852206796863
1.1369809294446
1.10108154176578
1.11000674738637
1.11541657825356
1.13352797657768
1.10073525470865
1.15436545331096
1.13968085892307
1.15105293738734
1.10339062877445
1.17308336643359
1.15231379240561
1.18416794234809
1.13246544961637
1.10266580179263
1.14426459357997
1.22852211560456
1.15930855935864
1.16209588652428
1.09429940192853
1.16410165529147
1.1434825172558
1.20224747373772
1.15995524544618
1.12925828968754
1.19468466154301
1.20175571575467
1.1264237505887
1.20875486718091
1.1840847655154
1.20384507993024
1.17895553190888
1.21931664728744
1.1615088811694
1.16710052645358
1.21880985979742
1.25346088224349
1.22153344051183
1.25428888350604
1.20371337894482
1.24753775809814
1.16417978176736
1.27531096095486
1.22092602204762
1.23426689998483
1.1942903462274
1.23224914421027
1.16683088299185
1.19545218286374
1.16596356791353
1.2670725078802
1.23005973409155
1.22440283684419
1.22840756572258
1.27570616328404
1.21673849376298
1.26604478946477
1.22129227048859
1.24581508332857
1.23809828005054
1.2386484375448
1.18305478625756
1.22856908535577
1.19292792127209
1.20486458496482
1.17440652948202
1.41240742739613
1.21937976668667
1.20915988318444
1.22624370154369
1.25833639312197
1.27143384860528
1.24944870616136
1.17309206653191
1.20753128068363
1.22300546766038
1.30853169395662
1.21464908532349
1.23337379977729
1.18459826756528
1.31248168110887
1.24404490549127
1.2754068252364
1.24314169045135
1.25231556585111
1.23725982002954
1.27093135081761
1.21680730085352
1.26918900086463
1.29882690294735
1.24502612457907
1.22221214564751
1.25463976509195
1.24732915293944
1.2322008099458
1.20710996418068
1.2625309250756
1.203070526449
1.24958290153594
1.21565306877902
1.19641988217093
1.25194749608465
1.26677306086713
1.2594145066701
1.26808966763637
1.2828251655979
1.30303424708613
1.19901079737904
1.25181467413322
1.26207988560662
1.28401254179318
1.21042421170845
1.18594911723226
1.23080459429216
1.22746827201314
1.24551657435411
1.30806717343111
1.20752617742269
1.21318112840973
1.26896184887631
1.27444813538427
1.21864902821715
1.26438971193967
1.21829188235885
1.22599223056508
1.21683473571169
1.25190963344648
1.24291777165566
1.28435588330907
1.21443433922359
1.29921937223284
1.25082781758701
1.24598484238078
1.21100553404599
1.24534549814522
1.20814690007212
1.26835899539384
1.24968344477046
1.19819932255704
1.21299150493925
1.21952435787563
1.23970810416091
1.27686140880287
1.16952544715251
1.20504548855209
1.21609174685876
1.2618103646516
1.20329363998785
1.2552471561526
1.23345942046105
1.17848836357297
1.13630712637598
1.23232646596244
1.18420717355737
1.21842051396456
1.26582032802538
1.20520441977429
1.18222050444621
1.16265469656771
1.13821636697527
1.21845143328543
1.17266846807098
1.20174852730389
1.18139939784707
1.1572903373938
1.11643844182914
1.17328575017922
1.20195145480561
1.18535156194904
1.1550276829761
1.16166103868469
1.20349465679141
1.22759428373018
1.11759675086758
1.15492823125343
1.17312072163298
1.20114861797885
1.1320454291586
1.15064323707838
1.14447318538999
1.16478637367148
1.18405891818441
1.13513948292477
1.08557217599629
1.16248261106915
1.14829997785937
1.12709234156045
1.07328501642464
1.10424093479366
1.08754012615556
1.08941639407015
1.08454521776408
1.11388145065334
1.12019450500179
1.12589078764494
1.11310431595912
1.15899539668218
1.07199269529003
1.08479661713282
1.1028227922744
1.12814405998369
1.06278433014467
1.05859461939302
1.06779601299362
1.07130964448411
1.08145726101042
1.09566286256132
1.06340750573597
1.08045320973687
1.05668318210736
1.04769049005705
1.03668415561527
1.05985295827586
1.03056196336455
1.02625703097346
1.02484497363703
1.02849390967067
1.00016531662643
1.02426531619687
0.999103722265606
1.00729022640656
0.96758244802631
0.971751881166681
0.996011269365814
1.00456097908678
0.974882405872241
0.991556472914254
0.963366599665071
0.964733724361584
0.985184313377725
0.957099354907105
0.95811829279182
0.987513604378767
0.96225588169994
0.966615988566095
0.944501011403255
0.987189285702507
0.959535914853118
0.93196346111076
0.940596851536403
0.945989468182454
0.944969430940994
0.905936212525608
0.884042831607369
0.914669805779273
0.913127440292054
0.921013483792964
0.911744744706695
0.945449354004078
0.892411625848239
0.871172605422609
0.853385172915792
0.887071901487106
0.889117386179099
0.846284859912566
0.870106609747902
0.88841437932975
0.84942925127378
0.84813264559083
0.836075000796036
0.849429882782428
0.843468648599028
0.839613774819661
0.847239177535428
0.836721237342617
0.832458590391845
0.844240931119683
0.797574792800355
0.823443805849549
0.832215961427315
0.811161479029413
0.808182085565917
0.800384967569313
0.784131935394134
0.790794064846802
0.780327616974232
0.776156121813526
0.78057850273309
0.77365253934891
0.764810738719524
0.78440176375747
0.777887687947437
0.771862552410973
0.746438725164823
0.743669149070094
0.748622262016429
0.750558907483506
0.73696900639178
0.742718312779494
0.726856100020435
0.735899704118151
0.720877542322565
0.71730364298606
0.714003734668623
0.71844300597134
0.713992371172636
0.704470632615227
0.698808210736889
0.704799420586717
0.683098380166587
0.686898757379578
0.687199205779342
0.689845776068434
0.680924474848943
0.683140765037913
0.680445834766191
0.676436513372353
0.669001718634821
0.665680844531352
0.655988740680803
0.662151065352758
0.647549023064227
0.66033054980685
0.654110239867206
0.643906250836631
0.656538839599596
0.632762007301507
0.627139692900469
0.642048786893881
0.635898974489609
0.625339537520107
0.622275188644753
0.621699717199406
0.61356755926992
0.61842500858699
0.606523760888642
0.607624884316095
0.603132214641397
0.590744678629396
0.591865143005362
0.597496155212038
0.5847549107206
0.583574601401873
0.583077180720212
0.577344107109798
0.584107872355422
0.585459502578233
0.577202929001375
0.574180485016576
0.568712041935587
0.560817029548218
0.552224186065277
0.565941261486295
0.563406179627436
0.554958931453717
0.547276247237434
0.544180387556898
0.54086830832377
0.54080983669559
0.547096521949239
0.54101936447657
0.523846014204849
0.526601717771162
0.526229520425585
0.528847423442714
0.521008557307822
0.524173495509141
0.512045644157064
0.515741806908748
0.511863025517703
0.500848955206233
0.503621757342775
0.503227693875188
0.48989676819769
0.497284822951775
0.494017843721022
0.497176520817667
0.494755040971161
0.486811748371804
0.48518563567724
0.47968396312584
0.478586665484858
0.483383934129932
0.471137900754128
0.477644517723248
0.470680966854598
0.466206563762685
0.456095520773549
0.459792522628335
0.45926957946455
0.455391688984746
0.459054575289664
0.457179040236768
0.451128987570597
0.452985253507757
0.445081501011305
0.448296957802411
0.439330539927386
0.432645541869169
0.432934738083328
0.434575494178441
0.431668721367234
0.431051153105705
0.427008849601899
0.428110422336574
0.425405114873282
0.417624075483284
0.411512827169541
0.416911645839538
0.408289202921612
0.412175665685434
0.41077719075189
0.401456572296213
0.40130772539241
0.403828730253118
0.39490269967778
0.395302909311528
0.395924407886382
0.394939441921904
0.394103447480407
0.38876158920382
0.381235326377005
0.392774409705848
0.391482957149184
0.383459270423102
0.378434129971653
0.384169732713014
0.384127778058696
0.379675303852407
0.376553355552263
0.375662891740397
0.377520615223848
0.384162435368372
0.373017042368775
0.36534759327387
0.370430738935103
0.370887294292472
0.36904860812699
0.368877073535276
0.364356440531878
0.359900533253395
0.360249270620637
0.36506298916109
0.366259563910442
0.3640948188663
0.364996746715129
0.362578965166934
0.363069103772284
0.372777362196272
0.368600755106455
0.369837729592516
0.367716791994284
0.363839025225583
0.366986364066562
0.371252115148477
0.369273875912677
0.369607186728823
0.371656942253268
0.378485107298301
0.377536653206685
0.37342037239895
0.375658282789434
0.379839207759881
0.379078046654156
0.384298316081302
0.383470543060705
0.389108763860771
0.39256509007886
0.386391893983212
0.389706258220409
0.395155651505553
0.393334050676776
0.395062929646981
0.401268807113557
0.400473506646005
0.401825028060692
0.408976107798534
0.406905639908633
0.404799978052472
0.400864402005681
0.407993021210681
0.40917495812773
0.414652562333218
0.423171709869498
0.419027769446199
0.421394887835157
0.424560222427421
0.42213834862028
0.426452998385851
0.437328379192202
0.438544373713572
0.427758627183043
0.436027229636624
0.445964711738865
0.452206266211533
0.452712267611265
0.456583642429284
0.462896096965728
0.463237374368228
0.469894596004807
0.473168605806069
0.473536498334804
0.481425025289316
0.479890720405131
0.493369503831517
0.491410948000619
0.484426342791269
0.488970732764307
0.491864851680747
0.495968182569402
0.498414275304399
0.497370545300691
0.494925511321372
0.495804710538742
0.504247676370935
0.500384452451281
0.499209540797719
0.497664629921661
0.499222434550689
0.496294924578409
0.495639709304764
0.500697627425189
0.492047742405935
0.485515279309632
0.490598703844057
0.490984668025666
0.497352013528488
0.490445466744438
0.48249264262148
0.483973448193485
0.49028921597291
0.48825040267126
0.490116497625576
0.489896883032938
0.487481688761768
0.486249165187363
0.481043726653714
0.486325918581572
0.489892601002466
0.480438729647818
0.481621909748097
0.484588670610609
0.487415873113603
0.482619190800727
0.487920851151149
0.492441261748274
0.489114179841902
0.486669596249237
0.485344303090769
0.485048980165577
0.488176591034573
0.48643972231678
0.484411093912785
0.483906864732854
0.488890335780365
0.484044295611608
0.482735653398046
0.482066051950825
0.489375474923076
0.48685943642531
0.484030331108995
0.48565794303906
0.482841873391234
0.481926316317235
0.482148336137986
0.482994281174587
0.479350073032548
0.475333392793935
0.481648913278763
0.473081868103383
0.466442227631354
0.469530361496262
0.463938283523368
0.463334093309771
0.458974853910796
0.45974732673188
0.457815100405139
0.448095961754849
0.453391579244989
0.456334435187477
0.450199355656525
0.441803315319837
0.43345969908593
0.429071812358112
0.428351281542658
0.431312572779302
0.427627662317523
0.417992482097295
0.420491574895775
0.415436756118762
0.407395215055509
0.406157901576957
0.409313795842143
0.409519979305766
0.39892773474417
0.390192504740336
0.396282709930243
0.396754582727832
0.384678252325006
0.384479416451201
0.382552348355776
0.375215864309506
0.374116704020336
0.374765568334314
0.370951993759954
0.365795724361537
0.363540793660272
0.357889279754996
0.360781642294551
0.361088128079458
0.361143960452737
0.357898343177046
0.349160832173417
0.34692135069176
0.345395147759916
0.343191615675642
0.338577403513192
0.33844100277366
0.338038109704222
0.336261230322552
0.336308283339897
0.335278250282383
0.331041444490291
0.333532162062035
0.330778344356603
0.325111461643311
0.326738621223176
0.323296208939297
0.320961212538853
0.315685601073875
0.315378231519279
0.315348432147943
0.313638394909744
0.313264114639559
0.310942102392194
0.306706762977682
0.305045839882328
0.305037407103287
0.304669651001281
0.306474130295151
0.299763411617545
0.297074760192399
0.298880002547342
0.298663469178505
0.292274551212508
0.28888771284704
0.29372526242509
0.292811323059971
0.29302233816882
0.289561800734859
0.2887374438498
0.286556158550248
0.284928898178068
0.28559031698567
0.281050970998896
0.281569235161924
0.281401102611146
0.27928962218037
0.279405030799783
0.276610803007483
0.273578744768043
0.275834101020731
0.274896690063628
0.275543024819373
0.272720312216906
0.274210138889027
0.270581990968201
0.264200858970767
0.271621015437477
0.270966781212501
0.264692963112306
0.262602157654524
0.259633652975282
0.260270850101014
0.262148029155343
0.261069967016718
0.261435337867881
0.262875381230918
0.256966236656787
0.256217867266507
0.256443580707527
0.254301668652921
0.254315999733214
0.257395580570668
0.255583820420945
0.253084701591816
0.254603844528383
0.251067645765648
0.252453514741877
0.250744037877569
0.248543747321978
0.249757610003855
0.245758918304981
0.25170987914015
0.250946949396977
0.244964862565985
0.245518187511651
0.247086543633647
0.245047534645713
0.243802719098559
0.245720503261735
0.241600780416744
0.245946861127875
0.245387820011025
0.237937627540281
0.240580679735615
0.238405801901463
0.237432573896579
0.236107314067204
0.233124370471986
0.231582542132821
0.232698853371196
0.236098723481552
0.236194886733156
0.234273122595969
0.23430201427915
0.232302114006342
0.232405161234274
0.232140029372888
0.232307152922181
0.231609807740072
0.228823685983382
0.229533968280166
0.233571047591536
0.22922468332904
0.225672581049904
0.227258942892647
0.229272006045732
0.229620400226837
0.23162887358553
0.23239909367022
0.225928483629555
0.224962389418551
0.226444904269631
0.223848496076759
0.224748641314221
0.22339625426401
0.22162169154613
0.225298297248845
0.223190282590557
0.220119375205667
0.220958214173625
0.219996831578158
0.225375420908783
0.22596320809498
0.222684830319866
0.219897415083732
0.219783475258443
0.218013642550802
0.218414292592111
0.216676641007036
0.212909168343587
0.217406322642336
0.217753689315815
0.218251410726495
0.216542605480487
0.214395736764271
0.208979890504866
0.21141696105404
0.213925053661525
0.208826295092065
0.213117745137922
0.208038191416407
0.206230481204195
0.209528186730516
0.210002120452732
0.207112390030544
0.207044532142283
0.20154246858432
0.202237193787133
0.204905027383847
0.202459994471952
0.204480011043625
0.20062526751964
0.198454941358922
0.201288634714225
0.199520428659347
0.197397020175246
0.193802682222942
0.197440497970604
0.19637437904578
0.194484491994205
0.19433998462879
0.193845778498136
0.195912796294612
0.194097788551688
0.194350108913924
0.18990207647731
0.18825658164805
0.191382537734777
0.186188890539546
0.187639364796509
0.188332706770852
0.189454428227513
0.188777638227874
0.189588675401189
0.184569155418176
0.18376941824648
0.185425706990318
0.18113216486667
0.182117657046377
0.184446456815123
0.183921092429066
0.179909707478423
0.178979633656215
0.180952697271785
0.177862242226703
0.176449272055935
0.174908795847083
0.173807208930963
0.170226847992558
0.174490640469219
0.1768999854277
0.17244272352437
0.170842647570455
0.168761254435954
0.169311858390889
0.16872897477364
0.164282398039442
0.165762531856788
0.165271499910029
0.166560569799403
0.163053440815324
0.163919098887949
0.162074217488858
0.16159415902525
0.162279577589069
0.158262200276156
0.157621023033515
0.158753727461634
0.157341196171062
0.154634917185588
0.156510131991933
0.155189908302741
0.153036996227055
0.151562098442874
0.150356569815291
0.151889667177169
0.152100964102542
0.149678227567976
0.147221262677396
0.150023973193416
0.148596625636125
0.146793821262822
0.143092074608893
0.142869857855637
0.144332620545027
0.147138394776173
0.14179787469688
0.142146540883045
0.145499812329533
0.144213563546291
0.143971427036138
0.141889692672664
0.142805663051073
0.142388788592379
0.138911500885809
0.13994681563932
0.138765634911167
0.137623004065587
0.13749650635365
0.137295525167136
0.13458201518087
0.136571291649149
0.136938297886592
0.134926550572307
0.135711528486279
0.134494499394529
0.134292524034118
0.136914871732632
0.134285275567785
0.132564092016784
0.134026121132721
0.132741882322263
0.131816414338308
0.135518333863301
0.131051214986017
0.128231986504724
0.128027599815796
0.126920191687946
0.127891043021938
0.127111812068459
0.126555791403593
0.128322705168376
0.127755364503644
0.12593325044429
0.127024388872335
0.128361672620632
0.125159282428614
0.123696651676425
0.123362953276778
0.125467985994427
0.123996272335122
0.122673493846632
0.11934444318005
0.122210697645383
0.123499875573052
0.122462208776873
0.12123166943016
0.120909489203557
0.120275761374759
0.121645959088872
0.119775439513646
0.118694367046364
0.12262701787021
0.121201536943355
0.122443325900603
0.12289083157512
0.118320127463904
0.120801101891206
0.120739221416623
0.119486944895173
0.119113652517775
0.116379880075826
0.116155804593338
0.120301704165844
0.119507125815057
0.116532424198609
0.115345340351285
0.11733561011845
0.116390570229245
0.117518422091662
0.116018257077742
0.116991736382256
0.116374131564417
0.11492480799928
0.114746285443974
0.116821657778658
0.117862801298759
0.117488816676644
0.117003614056872
0.112278419904633
0.112003793970653
0.114356902804447
0.112245384708006
0.113357876907741
0.111957450101858
0.113895322061137
0.111745366490882
0.111551099682473
0.110071955038955
0.105564200272906
0.108913278754467
0.110513091398428
0.110018257062234
0.110506496343188
0.106736723522308
0.107587326211087
0.10596472726778
0.108435074598696
0.109002978291935
0.106374550050531
0.108667998123495
0.108864604606304
0.10545789924388
0.104131481401622
0.103630516925189
0.10503757613568
0.105793468943294
0.107230329102928
0.105528080709139
0.104417850777406
0.105002731314373
0.105299975683778
0.101972309257924
0.103663369849618
0.103071529307082
0.104922073609641
0.105880530332
0.10379221175613
0.101058965635185
0.102191548269762
0.101664747168017
0.100614315682155
0.103299596819112
0.104367045161264
0.100761160307692
0.102563552356079
0.100234700417387
0.0981482880608406
0.100720650221158
0.100250466717761
0.0987461093911576
0.0993576210830965
0.100339070193521
0.100980389613956
0.0988712121181679
0.0983884977228427
0.0973463014634247
0.0984886201799446
0.0972988719331238
0.101123492396264
0.0993682501190968
0.0961880865381609
0.0964187505942042
0.0955087639890431
0.0962927506486618
0.0951347885842193
0.0946479012100424
0.096355905989316
0.0919341125850057
0.0915839831160148
0.0931677060245426
0.0936179228393709
0.0922107426813656
0.0902071067903387
0.0907493658098995
0.0928555066652576
0.0906193402056337
0.0889049374139579
0.0890878677347901
0.0905517859976621
0.0883069382754802
0.0884408820246041
0.0859272083410734
0.086336824654364
0.0865523896564542
0.0862317706870178
0.0848806373607678
0.0855720417523532
0.0862734318037192
0.0829622010824708
0.0830659405816036
0.0862120394170375
0.0845136074678416
0.0859235655710079
0.0849628972742152
0.0835387639585477
0.0834289576267389
0.0817933349320946
0.0826154003147807
0.0834016598481244
0.0822893086068913
0.0822357298658836
0.0798088698508882
0.080286420411762
0.0809650907591203
0.0829305654523649
0.0799884251448015
0.0798132865930791
0.0778449808398541
0.0779505631011083
0.0803320260122904
0.0786475278550037
0.0760387248951683
0.0788287362896369
0.0781292715740986
0.0765155212200728
0.0755491767761844
0.0759560745282549
0.0782377318648653
0.0792204256316134
0.0747252817932686
0.0740120532597614
0.0748865281001374
0.0746197778695987
0.0742427828808186
0.0769787570576526
0.0754295311890767
0.0721918151403696
0.0730523964875406
0.0754673271040283
0.0719842560651
0.0729524764968022
0.0726241831131488
0.0725716995900719
0.0740381562734253
0.0734400028488539
0.0695704079989828
0.0700580757295611
0.0688147399898489
0.0699680644687525
0.0693817877156925
0.0700734432753905
0.0694292917503955
0.0693170561416069
0.0687068324349952
0.0710528881592263
0.0689381677076061
0.0683827061767169
0.0653012018487643
0.0662161009629979
0.0655122368311455
0.0672259417557017
0.0686115542609759
0.0669987506177852
0.0652262815052788
0.0682364189200928
0.0660293728267218
0.0672686679883209
0.0678472341033701
0.0667327521031135
0.0666855892252883
0.0670641712705977
0.0665486872962262
0.0684192787151297
0.0647643606090537
0.0661058207042695
0.0651429518132314
0.0662708796614518
0.0662529214696483
0.0663561826379958
0.0644157227392386
0.0650905211885067
0.0630554383688879
0.0655966163025661
0.0651294850103257
0.0674608920812806
0.0640359159774948
0.065383096587476
0.0641893954133135
0.0569153254693263
0.0506256504817985
0.0571226105412358
0.0607170177136186
0.0698420114126809
0.0648897199755894
0.057726531429528
0.0514758182981414
0.065735686835662
0.0626938455792838
0.0550199740613647
0.0600737007966308
0.0627508331741783
0.0545687405924294
0.0605984294038639
0.0579546424940158
0.0620358353324325
0.0586362928620913
0.0642832742389052
0.0585053222737048
0.060873010302264
0.0624667095716266
0.0677570629842306
0.0577549461484132
0.059818439651174
0.059153537345979
0.0615877831957808
0.0583111610093096
0.0590088500420731
0.0565426067979917
0.062374616588983
0.0559221040429296
0.0608887858564849
0.0569797480791366
0.0598983666977846
0.0563270179870269
0.0593527031448481
0.0530232816891643
0.0574768801892328
0.0527814629639918
0.0580872995740179
0.0574771683959245
0.0644029532107977
0.0618652285275289
0.0560146140858015
0.0530235630657615
0.0537349862902083
0.063820739558993
0.0571813750839311
0.0603616647608977
0.0512694359253251
0.0656038981052391
0.0636196228212542
0.0666323078559251
0.0467419354364815
0.0688005345583659
0.0580459284316572
0.0626560122451049
0.0522352328521634
0.0715088518068442
0.0554742999021799
0.0617398303886097
0.0593614582188452
0.061410576124172
0.0537296051967611
0.0639496856188397
0.0601784082541033
0.0619809973815034
0.0595230387676611
0.0629685940042501
0.0589897468431957
0.0614438781514665
0.060245271534958
0.0606428372532844
0.0579459603136768
0.0596066714444379
0.0595450527868384
0.0598393095044657
0.0565104510506983
0.05803844639113
0.0565127421198238
0.0577152402363418
0.0548856422629374
0.059074362238384
0.0576234111584437
0.0588075865054576
0.0580563893355166
0.0578745633462888
0.0572633606995544
0.0585738733147742
0.0571421601364202
0.0585232009664325
0.0579155695650071
0.0579667411451537
0.0558461126106985
0.0576160082241
0.0577792581463524
0.058163358650812
0.0568724928503833
0.0591877385090517
0.0564528786935189
0.0600921251360968
0.0601344931407753
0.0594836595487856
0.0576890105148227
0.0573805826113706
0.05794905816599
0.060066752727344
0.0587096938634055
0.0581644574302053
0.0591889672760972
0.0607978506515886
0.0598723444704829
0.0587012037050894
0.0572594587956917
0.060214801444515
0.0578281558274284
0.0599898011464597
0.0599367316043747
0.0613694435203713
0.0595659857676404
0.0604487893685381
0.0607058852769611
0.0604768258142356
0.0591304618169216
0.0602966625526085
0.057208728203202
0.0554398205517402
0.0581055138604312
0.0616253956614786
0.0616681119754727
0.0609620050791694
0.0588393412772504
0.059824481731073
0.0610332099904469
0.0607103432621932
0.0584223899735291
0.0596479268641772
0.0589791925415192
0.0591961306786802
0.0600448010866758
0.0598146224524143
0.0585074757190326
0.0599293898059115
0.0595121948899171
0.0596271752665927
0.0599739197093018
0.0606962377348966
0.0598782822754438
0.0598061939708489
0.0605891102127023
0.0593999218229034
0.0571607127004732
0.0610023129756642
0.060222902343727
0.0606233010376955
0.0616351889775033
0.0610934561992051
0.0622625640721604
0.0627593100780263
0.0598956417862667
0.0600286971788084
0.0625699285746862
0.0614530844161243
0.0605958953562417
0.0620828152921204
0.0617377245505444
0.0598266276363841
0.0611219409291932
0.06382971704689
0.0610185834123619
0.0608106831543833
0.0611414717913236
0.0634896667075878
0.0646347486750042
0.0625121471417767
0.0601178061200095
0.061412362460788
0.0645785775918273
0.0651778797856847
0.0648323985628592
0.0626162802981958
0.0640297910662547
0.0671949956801694
0.0648673616085517
0.0639612024189492
0.0655095743528253
0.063988988583261
0.0651225911564485
0.0655746983659633
0.0651235134476755
0.0646970655459062
0.0637434045119737
0.0642673931063018
0.0642865160677132
0.0646388165468346
0.0642627121737391
0.0626898384795005
0.0619157707598406
0.0647053227675672
0.065130741627694
0.0645464637321207
0.0643721034087008
0.0655501979374039
0.0665055361576244
0.0666561691291755
0.0656164893156072
0.065948829125434
0.0651101057846726
0.0662380502832582
0.0679638739414
0.0660538677262004
0.0649023314847021
0.0666105898740243
0.0654759328370052
0.0672375183557126
0.0669997069057168
0.0661504736978875
0.0679697732850933
0.068153711199925
0.0679957897882814
0.0679112281653311
0.0685940866658982
0.0689523038425074
0.068044113871944
0.0690657691053038
0.0693083694999738
0.0678160941172803
0.0686485005823065
0.0682202021350015
0.0691603079717609
0.067696013476153
0.0673906467819085
0.0694241544899977
0.0676311953611833
0.0664911821767452
0.0674682979547229
0.068709186807531
0.0682877406457784
0.0687349235332838
0.0706864994905816
0.0704178907777082
0.0685950199189762
0.0694037386885515
0.0683103143772663
0.067576342563476
0.0679452026041108
0.0699314092562118
0.0688183625427151
0.0681855186889714
0.0701545495102542
0.0675893943810114
0.0671773006875546
0.0683262543940381
0.0680724063069756
0.0654556542856747
0.0657539312280638
0.0666216984871922
0.0661997574469369
0.0651673468074893
0.066200070838483
0.0675000755152262
0.0641668089600757
0.0641261882571421
0.0659631182767626
0.0664187992688139
0.066873277716221
0.0658493774623424
0.0669602397623822
0.0657562282638543
0.0666150781368056
0.0674083422518601
0.0652323891800648
0.0640250659718323
0.0647465151104722
0.0647658888524828
0.0662142062019969
0.0651824303144014
0.0654057371461275
0.0673516380076034
0.0645355087770145
0.0651430905080043
0.0655442533217736
0.0634738395483269
0.0641905417009235
0.0645272930447354
0.0641606621654888
0.064436570966056
0.0630787137913734
0.0645792561652733
0.0650782392248261
0.064627890228202
0.0615077842713218
0.0634978613187406
0.0648991933657239
0.0627651318219332
0.0643999164458766
0.0632714980991778
0.0631351513312513
0.0618686706646306
0.0611655045822371
0.0632568611795532
0.0641563537934405
0.0633126622730449
0.0641510751040468
0.0639850713665914
0.0644443201967001
0.0631891811245618
0.0618187248180784
0.0644112153475887
0.062009540155297
0.0612746593222459
0.0619903784638644
0.0649026969832856
0.0621974712535074
0.0624662794190388
0.0642071379306401
0.0630032832672029
0.063506198655588
0.0621729228076031
0.0637700713692804
0.0623916821299462
0.060427116435476
0.0609905092726139
0.0616084825711784
0.0621114198184679
0.0628913116493087
0.0610711836060658
0.0615041787133954
0.0626630514975561
0.0614689062784339
0.0599423340495264
0.0620668891708473
0.0617045170330405
0.0625461039583441
0.0607746799079774
0.0590301367264095
0.0610176179994022
0.0613943514476543
0.0606740993948727
0.0603674817650537
0.0610320457697021
0.0602324334974117
0.0583482178550799
0.0595737509061633
0.060690043086244
0.0603731273171421
0.0594394800697026
0.0592708266932921
0.0596662356278732
0.0586964838567171
0.0598809318672421
0.0599143251184413
0.0598038847400732
0.0615646672526851
0.0624255045183129
0.0591529684428464
0.0555641836138035
0.0574251551472582
0.0594611180045503
0.0590861154785544
0.0591384231589301
0.0582647034363389
0.0576764063924032
0.0602032350085013
0.0589166695389102
0.0564786071503132
0.0564972733599892
0.0567505772592311
0.0576673340270982
0.055023582025117
0.0551547783205331
0.0544637199242052
0.0568272275695144
0.0562174430836843
0.0546915974126512
0.0539298782752308
0.0532865653501293
0.0527600920572324
0.0535823905047709
0.0539166036810032
0.0533560096290965
0.0545650229951092
0.0531814774770813
0.0541550809843851
0.0530139126994357
0.0530323065044241
0.0516397347044553
0.0509851165220405
0.0521019942301659
0.0528699543031399
0.0511916856209843
0.051651934736554
0.0496071996856366
0.049873892766197
0.0501264073360133
0.050765278871807
0.0492242195304299
0.0501787130760986
0.0490256394938984
0.0476710400257476
0.0486055111710678
0.0497784577831412
0.0476058913678815
0.0500675654023503
0.0475123547192293
0.0515541594763095
0.0525981546204429
0.0511563134098948
0.0483007695252229
0.0498355691623366
0.0479927052665633
0.0505262257079806
0.0467614315035441
0.0478354991179204
0.0488143261336419
0.0489052132875103
0.0490850860107768
0.0500738421486436
0.0481070149342083
0.0487497125127893
0.0477512341728108
0.0479273956149388
0.045958561292505
0.0485076201423019
0.0482271230409636
0.045497228881749
0.0461769913347028
0.0488500215379538
0.0462750988018876
0.0490557290691597
0.0457074816600167
0.0461719550275916
0.0503659788016144
0.0509835697760207
0.0501111572901503
0.0474157169327805
0.0470796484939058
0.0472788165188541
0.0472147251161051
0.0455207201307636
0.0462419271109998
0.0468289946224454
0.0486083215830518
0.046962525361976
0.0446573486931963
0.0451318313323214
0.0441693282885277
0.0454426002354878
0.0448508657656672
0.0442333812974999
0.0448228943657452
0.0430599782295603
0.0443494874692216
0.043577394959192
0.0451571027706174
0.0454238323920172
0.0463354724053542
0.0423733138927212
0.047521138922686
0.047683342627892
0.0486958585066708
0.0435674100073205
0.0442623900928196
0.0447633496195223
0.0438892141819521
0.0430206786333307
0.0450784242598806
0.0423517795752501
0.0438692306775226
0.0422146164838245
0.0434980856569003
0.0445487968415082
0.0422054653482614
0.0425213117702077
0.0447053760004611
0.0422033773918666
0.0428587264032371
0.0446244505981988
0.042462739348043
0.0415672496684957
0.0502722354800312
0.0465056220213074
0.0475361975283468
0.0414362428590397
0.04071259963686
0.0501880859981452
0.0470295636649869
0.0450885635545377
0.0406118636789622
0.0456364686763802
0.0424071379536031
0.0457972830607867
0.040194612302278
0.045629644133578
0.0431409994128074
0.0443609578482961
0.0433597024606681
0.0464986874214247
0.0408648217923397
0.0426938020341154
0.0429192687315454
0.0436164665340126
0.0407628073755031
0.043840637647148
0.0418789462272654
0.0425865919105014
0.0409325215416285
0.043590377863552
0.0407061152112939
0.0455094311754669
0.0440713903931835
0.0445649799004566
0.0399958613566295
0.0438213715926853
0.0383669761509399
0.0463212168110921
0.0444116397140099
0.0458076494546883
0.0433246920764734
0.0443007233932774
0.0400966273057712
0.0407117974441736
0.0430908144349975
0.0417966873030318
0.0422825208366579
0.0435974316492348
0.0424766427281054
0.0427581464230844
0.0426022233769265
0.0423698051623841
0.0448543172771546
0.0399302770363394
0.0425017578659252
0.0435110442739872
0.0437673198011714
0.0419548108992758
0.0389969244554193
0.0543240907010133
0.0508215682268424
0.0516013267461061
0.0468667857727937
0.0480890056586209
0.0404949751009077
0.045292431405567
0.0404397926642995
0.0437996270504821
0.0416828070416598
0.0457263030162569
0.0420787395329827
0.0470248820239272
0.0415604510912882
0.0435567461624369
0.0397667224328457
0.0435930709052653
0.0404427081837911
0.0454811354618292
0.0402635125949985
0.0435582729995016
0.0404150705975769
0.0442322876716579
0.0405479565043198
0.0497688657397921
0.044339231405065
0.0354634813708637
0.0549671456879169
0.0494581420852721
0.0524154881943229
0.0420197193857802
0.0476412092525294
0.039852011198384
0.0423281822944399
0.0439026286008705
0.0477208852331604
0.0437615605856747
0.0452250379063276
0.0448432472461024
0.0461148750296356
0.0436544440470382
0.0386632334685987
0.0505739219490936
0.0581115509414749
0.0498049455277801
0.0505633565889128
0.0378903164005119
0.0484389620604228
0.0561054457398943
0.0497737649440512
0.0451361200700004
0.0448471113466422
0.0461683637706049
0.0462060275629229
0.0455508742186369
0.0462653844612508
0.0498362995316973
0.0461862024975322
0.0478801327707839
0.0431626263968911
0.0463469858664124
0.0443566923942459
0.0462004134871078
0.0476664280807035
0.047667425564685
0.048524171821606
0.0478735094974012
0.0479274481796344
0.0489582121948769
0.0459981780854858
0.0478249733633308
0.0460032987941471
0.0544798824769101
0.0488130001394302
0.0495929890977009
0.0527050012747967
0.0540080963485815
0.0462915408873293
0.0463091221197413
0.0525792338330287
0.0578314948953934
0.0381181943487663
0.0566186905566482
0.050861638061531
0.071476070623274
0.0503582117430906
0.0591223352637729
0.0450520768750086
0.0531192236688707
0.0453923531480943
0.0526779587567718
0.0537967166500312
0.0564986850308799
0.0527281270712192
0.0461648925464537
0.0537038352527646
0.054278725664356
0.0589376706652228
0.0508871196589099
0.0564714499073592
0.0487469692161096
0.062414577202994
0.0482147606519488
0.0522586962304161
0.0596589989380316
0.064748660683301
0.0686137544883761
0.0555005186441694
0.0590266957044343
0.057919228799999
0.0652218888886018
0.0588664409033328
0.0546998937541397
0.0611487748866826
0.0483931724711318
0.0584329569015691
0.0709660571323168
0.0644963091814933
0.0629596269093369
0.0567389815939967
0.0609003969252082
0.0683870028244006
0.0676062516668583
0.0578545907258735
0.0622277217979539
0.0592571452195735
0.0529452876245263
0.0780702423848121
0.0685644359839593
0.0763358202969108
0.0666715902438494
0.0816737004354401
0.0668987303096415
0.0790927188587323
0.0634543564181045
0.0764306377477994
0.0764269525630166
0.0783854631073657
0.0596637439057349
0.0836058308167259
0.0768492460128927
0.0821470762814689
0.0752960007902725
0.0762550420635255
0.0667207357000477
0.084941315730908
0.103277367730439
0.105076215844079
0.0805195063731825
0.0848578473797757
0.0885740496764702
0.0898711412153897
0.0825880887485388
0.0874366007461188
0.0863580987811277
0.0859971254293519
0.0894952349918293
0.0927840524500543
0.0881313036046503
0.0981899003331345
0.0882961411540842
0.0974893834824428
0.0931938374597291
0.135033271063257
0.10467973924158
0.11474630069396
0.104684621159832
0.115247509558549
0.109235277790938
0.10623221908781
0.106137142599838
0.107745925559789
0.114347409968194
0.111720579655595
0.110348641635444
0.126606623481483
0.114537554653428
0.141317345249752
0.122895580525161
0.140557960961481
0.112912768481487
0.14461101845656
0.173576916121487
0.16628953236592
0.154491445874779
0.135886572548582
0.165223353402809
0.167460872654344
0.178746142869167
0.160373648409871
0.171566562129276
0.1682549504254
0.180372479684902
0.184735232418717
0.19145412382334
0.203039845890734
0.205360854431811
0.198627808883946
0.208543799075018
0.231123429786013
0.271334637428641
0.233785293603087
0.242180584812412
0.2437297763181
0.25971986266423
0.250028653299469
0.270271129046439
0.25187196158324
0.286565974931697
0.281928564346706
0.311586534220639
0.280104537924648
0.312452876835537
0.300203829195167
0.31665558942236
0.332724718155877
0.343187333644694
0.345213158873042
0.335862948613431
0.356239006497157
0.343582460126123
0.358230583178917
0.377091565684263
0.382826801032707
0.379731347729059
0.379626427945553
0.385746859557812
0.387339710524322
0.400920158835108
0.391776227023416
0.406745197363592
0.403194818897542
0.434671088780563
0.494134316838218
0.441139722705242
0.431357901745468
0.409435068677842
0.432180343118444
0.425550613867292
0.430134193743073
0.455389102966059
0.44001192148638
0.427596352820222
0.414455482570299
0.434694678829843
0.423954026128313
0.430763739789239
0.422331964365498
0.433003650197382
0.436957253186393
0.405923666451368
0.45471969556665
0.442649896211744
0.440425516365025
0.414620130142652
0.41901764347315
0.41212618973565
0.425896865164865
0.402322120414966
0.425471533650244
0.412485439031464
0.415725603940662
0.390715937586157
0.396239628586216
0.409320452255924
0.408352286535876
0.39227063426686
0.381908783934141
0.387939452294214
0.385484922917473
0.360952205395304
0.386369388674596
0.384468522942764
0.382689169812674
0.360044158413874
0.361621335121697
0.354745659928131
0.355083564940587
0.350314487406805
0.355108869136287
0.348012296392237
0.350959359487539
0.341481281879524
0.343908790248486
0.335279070374908
0.331213073715325
0.337243134749898
0.333927679172898
0.329352532330196
0.328975153443762
0.332594255765205
0.329400380801987
0.328301824068357
0.32959591657328
0.323921086530183
0.329022563254015
0.327056471923205
0.323496916974771
0.32590177900353
0.322459717607494
0.324454988296667
0.318726698289654
0.324998366845502
0.3191338953504
0.323613211625249
0.320177152528791
0.318391506860456
0.315747864502377
0.320243453178713
0.3149540896002
0.317373984540661
0.308940443463122
0.319336911604691
0.30784365828071
0.307630102709787
0.336980356008882
0.322348248191071
0.320997291817663
0.296181874109564
0.314118793794071
0.289892855754195
0.296225672873502
0.312450267117114
0.317844438766203
0.298989102461491
0.297255979731889
0.290356594849694
0.30390475520288
0.287186800927825
0.295716687198199
0.282894058970227
0.27657451757543
0.304755544762171
0.293271037588441
0.336083704782254
0.304810992408022
0.310987466988631
0.264735559699665
0.300602549313515
0.285530110341956
0.29148396866859
0.265970110275966
0.275085251517723
0.27505750754791
0.277759023424841
0.275555062195433
0.26537778198664
0.259355284756802
0.272737132040657
0.279054575917456
0.26373868920589
0.274813440331106
0.267028513438695
0.2637378493776
0.26030012420315
0.303365979152558
0.271807133719335
0.253074234915066
0.251642028596781
0.238762652323103
0.258375990748694
0.253399703525999
0.249162490270403
0.242914970297813
0.232189479703533
0.237719748105798
0.229300155204209
0.254236713453382
0.222011394775582
0.242736170963827
0.225792888460333
0.234619683111946
0.219669218445505
0.224514733919703
0.246888637398259
0.247767356276663
0.231245631761395
0.2080828135526
0.235221386683563
0.219794377339765
0.228662798488247
0.212511470666634
0.206562734892206
0.213080954664143
0.212980398968072
0.204883397693032
0.208987614977844
0.201448494581807
0.215780734387405
0.195146680253905
0.231022927164174
0.230155309323482
0.205842397775353
0.200675555954831
0.19105657847938
0.202775843566592
0.192643756669767
0.188908036046881
0.211528775998643
0.191306462034757
0.210069273171395
0.198553285333324
0.215577031954066
0.201303424053908
0.204846775287402
0.199508518118526
0.207786891281243
0.221490109165575
0.236017280948261
0.210890240604703
0.223720937995119
0.215768056896309
0.232865934685071
0.215905155200755
0.232983635332912
0.22562147107927
0.239460081705749
0.24224504809515
0.251784096783054
0.246771335775753
0.261888222845072
0.246033483247958
0.288300536294225
0.270278811303175
0.283314761251887
0.272105382953958
0.310083444135446
0.313770121033406
0.314167007739795
0.314135860163008
0.310197175257964
0.321232688097751
0.325995162413152
0.321180850564664
0.342122146231786
0.340396086544902
0.354124061292934
0.337826461076125
0.359065644829781
0.34881849582689
0.36076869872369
0.372828445688773
0.364220358603948
0.403414708554243
0.382851014227961
0.396469716093758
0.370823730603683
0.385887315522689
0.384035925514723
0.392363801189607
0.386193563412335
0.380255163427326
0.39159996934624
0.398359989422316
0.400641112030901
0.3948924139235
0.391323826072271
0.398080427032882
0.398267480209383
0.400768768148708
0.406721175074169
0.406977242480994
0.41761111916641
0.404991453321369
0.425655505601088
0.444697501911379
0.440192607813504
0.426042606322745
0.423863484237655
0.439102257283815
0.429977167454105
0.437781311659003
0.442548235171048
0.448757018980483
0.449930291534172
0.445529928185378
0.454648610114735
0.445246794648405
0.464843398975564
0.468891289803101
0.46940577403259
0.465813033625264
0.453243319204699
0.497316495344749
0.487069979375029
0.501165638729509
0.474559605906859
0.490436922576165
0.473682225157978
0.486305963865783
0.476987369933861
0.486439776715083
0.484806044664526
0.490744973562756
0.480403545380806
0.484017236415799
0.489328757483459
0.480751113799597
0.48404944671284
0.494755354562334
0.488492874184685
0.479436668373495
0.48298775023417
0.479549045570131
0.472407510894197
0.487763730243919
0.488453352636815
0.482561385681662
0.466919098723318
0.484057764568198
0.49668127582974
0.490925985289049
0.473819865453086
0.476263866513567
0.47125349480621
0.483817430445681
0.473100610533747
0.490285200923435
0.485394589175507
0.496187962066107
0.482652406270817
0.490612609002929
0.487141142285367
0.501297475535532
0.49038657221607
0.496118816700119
0.495276791698011
0.50734926002545
0.507213447589741
0.511137446235865
0.505719605976647
0.511733829347451
0.514116988789432
0.516642869682158
0.505634158895145
0.506359782627756
0.499296866369192
0.509080234055329
0.503625926872025
0.507115250794286
0.489825908689901
0.497898377000837
0.479999488512309
0.489808358396551
0.482300571117953
0.484450504146204
0.481034734533775
0.478554865593074
0.470172849877571
0.465039314512144
0.463746094502324
0.459552172414438
0.459743769655276
0.455912537998573
0.45029561054409
0.449843259837008
0.449724954091127
0.443296743805843
0.447615290885825
0.445660745295951
0.439853873603805
0.445787832702623
0.440749351778637
0.435628041626268
0.437779811885402
0.438196335910734
0.434841453772415
0.436861434195701
0.442493612007865
0.444332249101252
0.448470771890336
0.435132778362726
0.443687922128811
0.434422960881292
0.440163512465958
0.433428054572439
0.438599307413173
0.433122645803035
0.435345625018809
0.430510431969471
0.432122184483594
0.433831609189176
0.434424778871913
0.430166540869229
0.428732853774787
0.42664739606598
0.429102577556975
0.427004725632093
0.426392975492984
0.42619771919695
0.424842791207476
0.42780223251508
0.422094992207929
0.424640688278294
0.424556038834677
0.424383726151908
0.422462990674054
0.418948443974278
0.420663117163458
0.423083115490335
0.419500525372495
0.418509727268943
0.418597971214182
0.416590414684026
0.420424914639364
0.417894360575796
0.417393754030054
0.416223698170986
0.413421520280662
0.410684038356472
0.408128435404181
0.405330924375026
0.403400508820293
0.402570323989008
0.396426632218023
0.396001066856454
0.391941844071635
0.387652599387211
0.382454379420606
0.381911229473287
0.378513856096237
0.375062596867927
0.369982243422252
0.367722831610315
0.368556345966385
0.365019776728752
0.364380838947142
0.368020462170777
0.364460330025076
0.363737975947562
0.360970773944927
0.362365938707193
0.361706409008013
0.359480268677755
0.35955987367453
0.362702315425398
0.362032319543615
0.36089834046767
0.361573896161008
0.364034148031407
0.3654330160696
0.367587982776276
0.36865772410698
0.370913529053942
0.370603352824167
0.370739880873443
0.374068874636066
0.377347611566172
0.376339293805812
0.380145564582356
0.379593172719133
0.381096491178205
0.380713192785804
0.38277337919501
0.384528843652049
0.38379804165639
0.383996834601467
0.382651454945018
0.382183822896197
0.383415966349909
0.382037489706787
0.383259518691875
0.381379112538937
0.38359540648406
0.38068779600306
0.377039346690913
0.380155173313207
0.377398747226172
0.378918000106055
0.376258253781946
0.372831469373187
0.373617063134929
0.370692175069428
0.371482924221546
0.368111528051656
0.367538319392924
0.367563279422297
0.365117651724885
0.36333063924163
0.363744306463881
0.362580092548244
0.358260662877357
0.358498991385381
0.356822149173491
0.356018507722848
0.353537305446495
0.353545098554222
0.353477955782366
0.348089710705612
0.348160644511431
0.34704576398255
0.344815550661845
0.344780694276091
0.343115973658848
0.341861744352818
0.338067374502967
0.339942848603119
0.336421294443111
0.33662146094648
0.331926687252085
0.328141065640532
0.327117911498516
0.324001582549356
0.322046106679622
0.321128895415236
0.319595520173849
0.315450464718759
0.314321305542999
0.309061581730587
0.310601117357956
0.307277919986982
0.307380197555092
0.306938288602971
0.306980538132715
0.306391668189133
0.306163285848458
0.304973337194563
0.305640480589066
0.303988958276452
0.300743162615226
0.30076105530884
0.298901101817213
0.295603783808527
0.29329112906354
0.29015756153747
0.286319971575376
0.282645768631089
0.279288483424371
0.276507062994022
0.275169972520863
0.268018381023635
0.264977755001519
0.26577578745779
0.262661373954374
0.262878899576985
0.263235373948961
0.263763468300873
0.26754360812324
0.271461083500272
0.277528858758916
0.285245676860067
0.29344301125041
0.302216632261061
0.313277964555459
0.323179801840839
0.337136359454445
0.348094120851267
0.365488264024958
0.378067696556544
0.391168644360126
0.409519962367775
0.423260439831358
0.435537556071925
0.45175483442121
0.467255508312673
0.484719806259034
0.498478374187477
0.516890628691216
0.531223302897962
0.548129217412761
0.564648355043045
0.577096393032107
0.592422547008787
0.605662099344665
0.618977948284134
0.634913709708727
0.644576104162851
0.653686709550373
0.65994443561377
0.671085607885701
0.680384570481113
0.685842946350222
0.686186713130444
0.694625980970836
0.692480167509564
0.693140113271333
0.693989752314716
0.688382433608014
0.686240391863512
0.688064794180795
0.684336808880885
0.685491296715633
0.681559987295544
0.68176197444901
0.683192243114258
0.682489508431045
0.684635862441437
0.684835845117179
0.679118218796558
0.683181838292375
0.68872333732156
0.698222478215322
0.703018028204083
0.705115444025898
0.710322897519762
0.713733765463044
0.722412991877092
0.731040015864708
0.74586385240627
0.756293226271534
0.760463795039095
0.782096588471809
0.785992224405952
0.794966838986258
0.805169058066074
0.81486541217786
0.819462430284546
0.827542865786041
0.825522316741248
0.835722744628822
0.840617862036811
0.835040728780698
0.840882028644064
0.844154043338489
0.832331740152324
0.828111465343937
0.833563695558757
0.839593490321949
0.822304708137828
0.831814364768194
0.829738641103356
0.836705302829554
0.842140912970915
0.85502535816278
0.865247905429816
0.874991948932705
0.883555261475292
0.903330940330094
0.898634889029674
0.918359631158965
0.924984898851398
0.949418208784347
0.958356915844444
0.958351503370288
0.965649823158802
0.9882494714182
1.01234646943994
1.01317827171303
1.02619081421672
1.04844685891992
1.06222706215579
1.0792426696816
1.104448548961
1.11389258160401
1.14212871532864
1.19389346928859
1.19209088320137
1.21738141788188
1.23549491841038
1.25005041410878
1.27363947037673
1.30358389443787
1.3075222359271
1.3397253359305
1.34307461499163
1.33508636932172
1.36128560497302
1.39668864967161
1.37129802467793
1.3794741870548
1.40421933371555
1.3499685212064
1.3524669509432
1.38927719718075
1.34388165629252
1.3709961276012
1.35949764647664
1.39609134192289
1.34540045453306
1.36698582885568
1.35205495091021
1.36302172369233
1.34436252506096
1.36053886917249
1.37400639098062
1.40100992388526
1.38450413830057
1.40729013647646
1.39246625476498
1.4362689982094
1.43833277864571
1.51456134209337
1.46519260446837
1.54705985727773
1.49627435354564
1.50344226883359
1.5441047425161
1.56147472988225
1.56560629709713
1.58093892916344
1.52596993743317
1.58731391151276
1.6122682876532
1.62738638569626
1.6023654638074
1.68610746639132
1.67949479050382
1.76880013134534
1.68256420123663
1.69873619468967
1.7585486087646
1.71593105575796
1.7603296818454
1.71604074158326
1.72146117940998
1.79184972822892
1.80696195316614
1.79154169352757
1.74850840045424
1.80819887217673
1.77012872088601
1.80940313129572
1.85085305289845
1.80535294611595
1.71762978669939
1.77375841212532
1.66547404832302
1.68768350412292
1.61319205987985
1.64937670969217
1.58597371804671
1.559775773971
1.49962456144992
1.47395952748746
1.41649532757107
1.40146592645341
1.31373897706206
1.30592044747545
1.2061150149775
1.22654196197152
1.17887650444462
1.1560694978299
1.12776178922772
1.12722156980622
1.09201846959504
1.10182953123893
1.07622193039671
1.06913130393564
1.05396490503647
1.06076364837622
1.03327150085795
1.02274803285461
0.997906397286525
0.977366281865834
0.960936519071388
0.936911988906627
0.907157791811482
0.903074900809619
0.855363882713996
0.836901488140437
0.804055231379206
0.778519278014099
0.738353860257375
0.721726981720363
0.684158664992024
0.660178773679244
0.617556856066056
0.590124599146219
0.563074029779538
0.539995957835648
0.508075221275645
0.481765112745602
0.46249568187779
0.444313345536877
0.41989001376416
0.400217692288224
0.389655383805222
0.376444660338165
0.357099320371517
0.343289751715533
0.332864233401465
0.328231671696759
0.315833597463529
0.305181237045904
0.301965093754294
0.300432298848233
0.294511973443409
0.295729731121695
0.290671640699355
0.285423615163547
0.286611764010092
0.286681455768351
0.282604668224245
0.285509380007322
0.28741504403057
0.292568105507652
0.291448377823051
0.295386300262616
0.295186764894124
0.294354772366587
0.298246143250056
0.302872212048752
0.303096594727012
0.302302517435161
0.304150186861689
0.307650956600626
0.30145479697087
0.302246380087074
0.303224415442426
0.301113027026942
0.299701928201104
0.302292479327781
0.301246555048446
0.297855852052487
0.292947730627117
0.303517428169542
0.292455453301097
0.301130949790438
0.301299273092442
0.302135058332043
0.306350291331159
0.309390666803448
0.309053249306851
0.31147088334647
0.313972439409584
0.320238596501403
0.315679809654212
0.322383965877723
0.319930876585358
0.328464287546787
0.318703032683639
0.320486163195022
0.326985895947092
0.325695248469948
0.322026604878073
0.32468571474919
0.330987255516475
0.322910922924822
0.324530014204714
0.32917317943491
0.322257763097682
0.337206435699145
0.327292285316187
0.334299119181412
0.331104626914654
0.340176978062446
0.343580682863457
0.348896803162429
0.357552258540058
0.3675933079441
0.36575640827936
0.383471540097437
0.387543184088109
0.399509736055131
0.416072042877352
0.419038835984481
0.422641627208999
0.433640360476961
0.429979073800325
0.436718084942128
0.420485987712538
0.419869839547026
0.416186915714996
0.414461448374362
0.408487653850466
0.396775301958047
0.385622542834775
0.388675100176864
0.379405216868424
0.379743537635348
0.378665949863221
0.378429058392049
0.376173947516211
0.379734898026899
0.382213133200587
0.386807536728275
0.389171728313744
0.385669911694349
0.374964435980014
0.384601729718694
0.376662361944998
0.382051899152227
0.372697060363037
0.372333852796617
0.360785665316547
0.36850948112936
0.365210872476429
0.369894954914248
0.35936577951247
0.352853760759754
0.3501128160993
0.358645841245578
0.350877999245881
0.356309612559305
0.341182204166315
0.347713999608994
0.352101165764862
0.355983257961506
0.347436387940304
0.348919755688699
0.342009518465896
0.349541984942349
0.341955986054372
0.344177687332856
0.334060580728856
0.341281982173385
0.338216758509571
0.343555408829952
0.334380481203843
0.344930949037934
0.337712639361031
0.330938768788143
0.339300125668186
0.334986290677816
0.325731648436478
0.331899983544009
0.32660976334908
0.335042003758137
0.330570598592097
0.323254865625766
0.311953782449257
0.321373106255078
0.311825446842393
0.323403713112392
0.316858354016424
0.310400449656973
0.313035918209075
0.3234706020093
0.303901622365933
0.313769293203233
0.315309332758441
0.319865420997958
0.31670752592377
0.313564931212531
0.330033879699096
0.32877800568134
0.314519543722237
0.322692751868234
0.325781323939013
0.316116576815918
0.326366560725272
0.334252473703714
0.338306285820616
0.346954596369745
0.327836672960517
0.349124210074506
0.342513673458964
0.346475716342799
0.341333441005206
0.351984201506736
0.355916543704883
0.364805457353098
0.352550302330657
0.370380986018698
0.362438928250459
0.380942420956685
0.368654015444688
0.39386851264561
0.403908064165527
0.419909947762214
0.407285259636418
0.427372850734033
0.423744485911603
0.436185804536416
0.434947351367519
0.456424030461576
0.462768888893238
0.497252610588283
0.500267528824581
0.533104063020198
0.498697815406456
0.539200111600149
0.525518331335547
0.543556995600553
0.54078259552963
0.55959176787514
0.560473733807659
0.55314709175183
0.543969321919304
0.557953250902704
0.533506809979795
0.566861758931373
0.538959774973537
0.551016353784268
0.544255335673
0.563253330098174
0.52786209266315
0.577050009568595
0.543600641546572
0.556555914687167
0.535425423781508
0.527653196547174
0.518562630120314
0.527144483858936
0.525845298772193
0.55205512271476
0.535865858550956
0.546473498622934
0.508112156002461
0.550078953311324
0.50208591532243
0.5177768170873
0.517690641279034
0.501948095398349
0.50493144460826
0.515679950231062
0.502909276189328
0.499574584532562
0.495315291771139
0.522444432509981
0.491876339334234
0.521153046097712
0.506773333764147
0.529430713927442
0.523912683694383
0.500422843053086
0.504852609114822
0.511732021833469
0.501673349836125
0.501211957068437
0.479833307204651
0.539920777834671
0.509472657693963
0.507241877685451
0.485012546754154
0.500174007955307
0.514337436182367
0.507720985264819
0.515032185833274
0.540570408783894
0.538238081894958
0.532568042017683
0.48461158567415
0.531292104726636
0.526208930844591
0.539098929582385
0.555412366456444
0.574563136205749
0.543614741895077
0.558033615609259
0.546686284442611
0.556945464328987
0.535189814299369
0.656491793251904
0.568394346093065
0.6020246547544
0.517097448868496
0.671408292082158
0.543844188743759
0.629788147617666
0.657999359793184
0.659552749101983
0.59829030819395
0.751023568984382
0.571723013485492
0.734459592906968
0.618405617167195
0.598887566761813
0.629020033625985
0.659696562724791
0.678882319215828
0.779698587409708
0.774808379957455
0.788924967013242
0.709636607759645
0.738798293682226
0.63554762713412
0.666009163277258
0.657046991738294
0.680223880075458
0.590822201069288
0.65757746006992
0.620977277294766
0.744096209910439
0.65598291539886
0.654992625484969
0.644041256045778
0.727574955720548
0.602741247145497
0.764532365701591
0.704638446038695
0.669082975053037
0.68887020461698
0.747455172554731
0.645186615477841
0.746015892493255
0.682609599619892
0.74017041736926
0.658220629717577
0.734850204417176
0.59470638919775
0.654890888634847
0.508602181971188
0.547387329698156
0.629530247037952
0.658374040417238
0.676138030805239
0.77070024535889
0.803344782535115
1.15592550745334
1.09030241547398
0.556064354892559
0.952829198728718
0.607840259377014
0.572402246830831
0.817957852100851
0.955710032652033
0.955892175249714
0.67576228036301
0.658595996554314
0.548509384247842
1.01737113300984
0.765303785139661
1.58167362339087
0.531400623313195
0.821466314365847
0.676867423004962
1.12745847182867
0.771677946323492
0.89623778077615
