3596
4000.36533379555
650.420452594757
1
2
2
0.0393064342004364
0.0400851119834206
0.0434193068684578
0.0456590789083822
0.032819975475694
0.0412305760642656
0.0508540203154516
0.0443462116366039
0.0412700576916142
0.0508960797299339
0.0458508727797017
0.045994535154224
0.0356982998972897
0.0493887295756573
0.039140657762701
0.0386790454790218
0.0382117910785222
0.0324024974502346
0.0314784882318853
0.0445871942672115
0.0348375792369947
0.0451698835956408
0.0418994111824048
0.0379625773742512
0.0405989219862675
0.0415561681072198
0.0360033456010092
0.0373215806012391
0.0315211132606016
0.046353002885945
0.0362686022273285
0.0395624754448449
0.0449026066760238
0.0389739757185765
0.0331256949329559
0.0397871948534091
0.031070912513326
0.0337564252991962
0.0362255916222637
0.043390829135096
0.0393766753694282
0.0418785585401445
0.0372304259688136
0.0345903266820246
0.0380721752825443
0.0416957506523288
0.041561775557155
0.0395696051312128
0.0377611982859702
0.0462300537686837
0.0361539574340737
0.0400928877176413
0.0437457018211045
0.0517675412643675
0.0319112326979101
0.0529975182152805
0.0431541384221702
0.0473289750904692
0.0444241380319406
0.0328952266808011
0.0489871761080244
0.0552363871441158
0.0335883734363357
0.0425819287271135
0.0389733270064396
0.0398855937510816
0.0400553193555324
0.0404966631895265
0.0293223708314869
0.0441793170172969
0.0253488600831906
0.0563148547711045
0.0443774969086066
0.0441172816613289
0.0404948521464065
0.0411881566858035
0.0292026827539911
0.0372718114388971
0.0240997883014743
0.0382758171925227
0.0387473972573406
0.0437820336366868
0.0395111913613864
0.037180743484445
0.0286613732468485
0.0563902534170499
0.0286908533740698
0.0350141462282074
0.0527439447751775
0.0492296575395239
0.0353791656709398
0.0414204783859504
0.0257435695158617
0.0393965229643226
0.0260739904875355
0.0457868798069039
0.0297271725522493
0.0427118768645042
0.0320449425959081
0.0406363532925086
0.0243466651960229
0.0358496744357425
0.073175990533838
0.0269003172964229
0.0693392537568385
0.045354464456351
0.0304014423719448
0.0712562381790848
0.0416467530551188
0.0440934854888192
0.0333187934943323
0.0457241013127218
0.0323898710073952
0.0439992867049321
0.016079102446732
0.0503317238935209
0.052561127939661
0.0466432531141259
0.0338990704790568
0.0423778180146445
0.006303448171764
0.0435490037697127
0.0605651594298841
0.0391834730905023
0.0444648579017457
0.0426960475339539
0.0132166568751656
0.0650718133228124
0.0569924384911488
0.0366593094915805
0.0320767926225153
0.0447240362895309
0.0259841388089775
0.0274333039805161
0.0602859930456556
0.0387864259334579
0.038197966049771
0.0168645841621042
0.0335631005794704
0.0766880578311237
0.0397727350147612
0.0411276009339024
0.0214381472613445
0.032076124266069
0.058537749307767
0.0546851233998079
0.0219712421685945
0.058219093813549
0.043022034090179
0.0383131545921629
0.0333666337421373
0.0268542690916915
0.0410486044817318
0.0487936219475523
-0.0222302702962644
0.0542162051498891
0.0655212792707006
0.0419340890585886
0.0856608331268476
0.0330196727916066
0.047432521615152
0.0307705513202973
0.041857834956583
0.0286484466527618
0.0488710376176378
0.0197064445405041
0.0362514718787863
0.0572357490326665
0.0365347946369589
0.0324351549387809
0.0499401043284203
0.0481362805399242
0.0123138503040709
0.0879113189551788
0.0501463744185947
0.0351362754022909
0.0561406356337239
0.0531704184037638
0.0269895461072223
0.0344214387450962
0.0500614270715217
0.0353904937161576
0.0387667306214408
0.0271117903145321
0.0297207015636077
0.0516648575891295
0.0351654092074607
0.0387322106271456
0.036517816791363
0.0192835339061482
0.0278172549324999
0.0741457838458432
0.0584892235989809
0.0389350491135881
0.0411632813592549
0.00284260865407524
0.0566339688308612
0.0637309903010352
0.0391298307352042
0.0360423048600394
0.0251904357106492
0.0406803558560075
0.0269429759287395
0.0353278450200467
0.02331356435092
0.00192292098890856
0.0603283240877935
0.0562974411066096
0.0407121168321647
0.0305933700126551
0.0369588862236062
0.00344259691928006
0.0698669283070984
0.0601379008084399
0.0409632996815413
0.0323622867200693
0.0211557781895005
0.0491143132568159
0.0444426636047272
0.0327908518399253
0.0371908270829008
0.0329485036592842
0.0410593912861302
0.0332837929742462
0.0320398121110026
0.0341918879790193
0.0300773103104755
0.0365866981188773
0.0290271602775198
0.0291821440118258
0.0422797670029925
0.0362719658564409
0.0323547305835803
0.035130117123675
0.0204112613430787
0.0401782274797018
0.0487054033489412
0.045630173785022
0.0361013110791455
0.0344206226042201
0.0291710026788381
0.0357837936078048
0.032623215346273
0.0410718819108653
0.0352251496493162
0.021811710874854
0.0645804830254031
0.0366376042771895
0.0463698540959085
0.0191955760935942
0.0487729594654949
0.0409697881001536
0.0436496627848664
0.0333719553650124
0.0341022880318228
0.0238394516544418
0.0289594185856655
0.0663279398205677
0.0410474249948717
0.0240414626472994
0.0524257565219721
0.0400478254574099
0.0351948641889812
0.0236850205973303
-0.00352632527581697
0.0970838507923428
0.0418557919769196
0.0157539813070827
0.0879542974657237
0.050664795831144
0.0481379643455775
0.0291605643164609
-0.0144822433345652
0.10587737700986
0.0810180400210463
0.0505447368492485
0.0292878112784863
0.054523384682933
0.0316614373254238
0.0415752075934642
0.0303692542872462
0.0446154103542068
0.0554502092584517
0.056480619517776
0.0887764121461098
0.0152845908587668
0.0566086509685254
0.0571408266596608
0.0463293796430761
0.038823826866241
0.0396737492490882
0.021586810923316
0.0490039065785316
0.04472751477135
0.052961756517059
0.0482888891637546
0.0293026263580713
0.0629219473294325
0.0534681861888185
0.0413853971365009
0.0367645232150692
0.0458921575482828
0.0325715042909567
0.0413171915437388
0.0276914950055131
0.0512542152114603
0.0241997148997539
0.0273389641842544
0.0834365026052114
0.0493820825066668
0.0419707454924541
0.066002912002617
0.0419829989030851
0.0410958707837178
0.0400026385049427
0.0488304129165912
0.035315256245343
0.0356527207337028
0.0193842260460656
0.0663511082074261
0.0412529781411199
0.0437246759001879
0.0386010924102362
0.0411202046830817
0.0356850978382858
0.0440666452419711
0.0374142142085835
0.0441454971289112
0.0390971703137345
0.0299759054091497
0.0400451100976936
0.0721741458961694
0.0133055880945008
0.071677063407999
0.0716101483233394
0.0450175969000981
0.0460201364069445
0.0430660866513004
0.0491196451881138
0.0466534791241306
0.0491542189944119
0.0398542752560132
0.0440359311136491
0.0608437728228768
0.0488762417870924
0.0422659047970556
0.0275852033816768
0.0710208996467142
0.0977374654335572
0.0590165020124298
0.0564430973013611
0.0221414617230316
0.082308534943475
0.0644533133817044
0.0698090717467933
0.0845228598569523
0.0543020521594047
0.0629639229919661
0.0464510540226898
0.065040478345696
0.0538253822217426
0.0663265466111323
0.0488490994068744
0.0678030818007444
0.0590266664897818
0.0789562323365054
0.0477277592385822
0.0642491557773233
0.0977583169515977
0.0784469276584476
0.0663782885668487
0.0760069469485113
0.0475323266344939
0.0958360127568044
0.0564241604344256
0.119124798048536
0.0955062705770217
0.0969526187222906
0.107347076475287
0.0863951006111347
0.0840583263953456
0.0743608049624562
0.0866501685444976
0.0868202117919857
0.0872836341547419
0.0897608776978544
0.0853454985750966
0.0823284546095253
0.0907627977840426
0.0860089382012267
0.0954517752643031
0.0877934924375575
0.115094207389984
0.0966116476528818
0.115313971703278
0.0826081920549578
0.0972812501125842
0.128996168782989
0.15020921057649
0.112304552384842
0.117391661275536
0.111146177902668
0.112890713559003
0.116551922617487
0.106150981818323
0.126468624690504
0.100371548197868
0.153817282466649
0.124754546005891
0.135721399724191
0.140937931401183
0.116472769378347
0.14337993822067
0.122849118869023
0.125388409163471
0.161364083956724
0.143877923765852
0.126027410932777
0.158860353744427
0.147436140146002
0.144241329681395
0.173554680896148
0.14498567068683
0.15356186013517
0.144005248667175
0.165534059604985
0.151499037121768
0.180095330426912
0.164635365997283
0.164413233305603
0.161292534751321
0.179476862001694
0.15134557236001
0.198551364294075
0.172341960746902
0.182574549103747
0.183282676773512
0.174039888994834
0.1972531799525
0.166641158864513
0.195560492841158
0.205179901776165
0.192972037818542
0.221842532066979
0.185916104249626
0.204305821067072
0.196597726765399
0.203581249785458
0.181803696968619
0.212276955778144
0.21414191954119
0.208019041706997
0.204133556607599
0.225142294074706
0.210671469530465
0.227817354550367
0.219010254216352
0.224902586882581
0.222432133295212
0.233010012610514
0.227406163042948
0.236019422934088
0.27024261838376
0.259967848216205
0.264099131889759
0.270191612995672
0.242266319322627
0.258629518813797
0.243536523566663
0.265891513604216
0.246342772793268
0.274445493181696
0.268941433573232
0.277151741448578
0.269447185454318
0.280017794401341
0.26310864550776
0.296939263539043
0.280680815871668
0.30675457609276
0.29083895027564
0.311436768154009
0.294659670629941
0.29992618732271
0.302934875320797
0.330667631566765
0.298847727314144
0.33923900841889
0.31198248795765
0.323880754745488
0.302895473105653
0.33769201762952
0.322039699166197
0.341317074564033
0.323978715143216
0.345604792173818
0.335360910472918
0.358615658781988
0.348608288938169
0.365063669984153
0.355300202120691
0.375350641486661
0.369812225216715
0.372014245360487
0.362166589168078
0.384149987577097
0.363586719956347
0.387608862718204
0.37178809940685
0.390026420048742
0.378060641688788
0.410219833168727
0.378336234330492
0.404797514806859
0.416301197545115
0.447140298790037
0.393773890440344
0.423843258659385
0.400372190322378
0.428965048692843
0.415299555117733
0.445112808293349
0.41032452645405
0.430668845332794
0.427201245482247
0.458065955004682
0.437412390333162
0.456495960571525
0.445412266404456
0.476557710706147
0.434262353458766
0.482049295104261
0.471266919003501
0.492215800230701
0.469009457214595
0.50283444972297
0.489213355521451
0.496668107421529
0.484583893286827
0.542921425168168
0.472543557747576
0.515157560076765
0.474404305963487
0.537349726261689
0.517080701855238
0.530664310997278
0.506829662111518
0.522518263935417
0.527917044073638
0.552623046549426
0.519469682686081
0.546962559950842
0.523745426566372
0.552642070014941
0.549316163474459
0.560328254614341
0.543903719866
0.562071620705688
0.54494156366945
0.591222330179328
0.554529929052432
0.591086521541879
0.546245911538748
0.610671054772155
0.570284418490883
0.58936932042584
0.576808712072861
0.587483550435442
0.578938586946585
0.61274456190482
0.578274932161789
0.655753447726414
0.589635365399104
0.670690177654271
0.6120962079392
0.662845838309464
0.615700818095415
0.644364086622
0.616147101853208
0.654926390708074
0.615302104510553
0.640005591765963
0.656734034864396
0.653712116590899
0.624280128970652
0.680318668358609
0.64287377619604
0.711166217098201
0.634765217300706
0.707994134728582
0.658428766197228
0.691464887946548
0.640214853453512
0.681599790279134
0.661440593181938
0.709748850157717
0.677152264281946
0.706185048419471
0.694219817671622
0.726249678656165
0.705186176945712
0.718821421437167
0.662916639883112
0.74827032626876
0.698205300681032
0.76121508799614
0.727948485538185
0.765422852767696
0.713317474397493
0.736865650586593
0.698465315382426
0.792794617433518
0.70058330788486
0.797453900638502
0.745471156792235
0.795965539404813
0.733804307529275
0.804376587395655
0.766225914998566
0.813046433670246
0.746763850820277
0.829186544778257
0.782724954346487
0.825525819964668
0.761420796836766
0.810186728055233
0.741653135193749
0.804973746581497
0.793253551372446
0.817190437716146
0.778313357186875
0.84068056115704
0.792648167912034
0.843825581586679
0.772911056148468
0.862076243730197
0.795294910830017
0.814488023804432
0.826854651496337
0.855318668087169
0.755630800543593
0.861781799739998
0.789107701442124
0.866655519597689
0.817947474298599
0.869680694291263
0.823447566163958
0.851348640504839
0.795727755396507
0.892474962787783
0.819344981170936
0.87910941311671
0.861983020688873
0.860293096281437
0.85451975738597
0.864110380785089
0.869574579215109
0.924746791081785
0.859054638783187
0.895612536454316
0.836046917496558
0.903961550558511
0.874066981452701
0.879030883570158
0.848846158626542
0.901332366356849
0.881967155444924
0.918671855757212
0.88107852187031
0.931673725647848
0.88487979002771
0.962540403793026
0.844973129324162
0.880606588355344
0.877714494640805
0.884657375285172
0.879725958967817
0.920878742993804
0.887884114108636
0.904894679221613
0.885434759156276
0.955749497726831
0.90034295804868
0.985492935329396
0.846628073595232
0.928299304478842
0.946663499742121
0.959152223094198
0.887248256784865
0.923190898592655
0.881903718073423
0.937186402747671
0.889588621224664
0.95246612594299
0.920362083622626
0.931743652583697
0.870568626250822
0.982881220656226
0.891905233140396
0.942884841429672
0.910957281287209
0.976396237934817
0.884872028777834
0.986816895962068
0.913825041113543
0.962592136846718
0.925515842894362
0.949979682432455
0.875470067860427
0.957408324859181
0.90594833059841
0.995922425061071
0.906088843323693
0.984845881870591
0.895594624917027
0.961682609836253
0.942671833973164
0.979581718039315
0.946212298206942
0.975190506218942
0.894079145869942
1.00157351359957
0.90736467176597
0.999198584580882
0.956645358988534
1.00349115758487
0.930326410881573
0.987575383761945
0.932985168886625
0.988596628162536
0.96132655042645
0.986326044955653
0.911014518756069
1.04323242672522
0.906041142148841
0.944805500989836
0.902840593721924
0.945693594285868
0.919547914813062
0.969886422767681
0.921938283786566
0.978580586763666
0.951884095937442
0.97950999030239
0.922289675037659
0.999604204459529
0.910997939906987
0.995825555341029
0.938267317687422
0.999785121992612
0.930304338040224
0.986386274109839
0.919857797921754
0.958276168992645
0.937336906498443
0.961576816410668
0.907248864863332
0.95483566989715
0.945758943985245
0.955886149253442
0.904591679318139
0.974425893920635
0.934218213998814
0.990248325505387
0.894951911041652
0.973734897463341
0.920269904026432
0.967955898430579
0.915937691913092
0.980316704557231
0.910985481465365
0.961232441859122
0.945108139699767
0.950920318078309
0.913314749239024
0.956368410592783
0.923565502799636
0.953204793155654
0.901251435471825
0.939141758150556
0.933855565704422
0.944118193990883
0.908943692894087
0.93557564267303
0.934341061405891
0.960563450666058
0.884830903476306
0.950816684064617
0.900138721049969
0.966407356445148
0.898032967756016
0.934779706404954
0.904863682641477
0.946679281977066
0.877598198612927
0.907657818244403
0.885062248736463
0.90681908765287
0.885346387657558
0.922578057899455
0.899705458097049
0.927206759510255
0.861201687874643
0.949989883347816
0.874911935981589
0.906340617138981
0.884973336360735
0.918400411501623
0.857734021773026
0.893315304959583
0.892335655189422
0.887698499317801
0.852093635467775
0.915468550213006
0.844175449452039
0.906746603351698
0.845625398245303
0.899668030261384
0.820669839638486
0.894837864073603
0.864000042863482
0.857710122271805
0.809592271364265
0.87578526579287
0.825872898986542
0.879663439939394
0.823408881654035
0.87119582283864
0.840490999834697
0.843679429750962
0.825759927044238
0.843122016603583
0.823082439661901
0.857548513378005
0.82349810867503
0.837346260769611
0.802826314825935
0.852992045767695
0.818510368551929
0.831767944960348
0.803021609457958
0.844362686261318
0.803103646286382
0.818042882215997
0.807871161380127
0.808646707380687
0.7938490217337
0.81180487953314
0.811825293904766
0.808343696757713
0.776472244447412
0.815166500569768
0.770816115635765
0.791808104280636
0.769360087225567
0.804984188199104
0.760174887919237
0.789587606447401
0.777068982053237
0.786976769562059
0.756386086099197
0.768640775601089
0.77755558739466
0.761841591215842
0.748756812319356
0.762431496633966
0.72417136772982
0.75445368881534
0.718630946834936
0.743348147559093
0.729851137030257
0.75757396653341
0.720026380028206
0.741384022178424
0.706856485909246
0.718206360085444
0.706150686041964
0.725369996495342
0.706823427890673
0.72894347195298
0.689693825855394
0.723708530869173
0.694733488088214
0.70704628118689
0.69743490818652
0.723114497287136
0.68239169075399
0.669747567835061
0.66948410625329
0.709071134990398
0.675262136974354
0.687523457659691
0.668277556704215
0.67597010175439
0.649705606944472
0.666036981767152
0.662389061264201
0.665916334402704
0.638667751148156
0.674216058614365
0.646353276276398
0.645679947343217
0.634981284188498
0.643449933050461
0.627760241028347
0.641134980612338
0.63527942024086
0.63937420965886
0.599418386165118
0.633817581557251
0.610322793068923
0.624098301119365
0.615033363802014
0.622398355839976
0.599889310716895
0.607156324920846
0.587780037315567
0.59848956010341
0.578758541880741
0.601527769554539
0.575808166448812
0.588438521767466
0.579542985756374
0.577045241738711
0.574159623781393
0.574052706471306
0.571248036620147
0.586329141918991
0.557862059964382
0.576373448580507
0.560057180327266
0.567146377268569
0.546127745663471
0.570556231619695
0.548671521846216
0.561198046315279
0.543187239961574
0.564595136086004
0.532479095818997
0.541167960766527
0.526127751771873
0.533430798372084
0.518886250193575
0.52782863081245
0.513029844449641
0.524623077889285
0.512638311689571
0.527534590333326
0.507332495709446
0.520328028784958
0.506706463685197
0.511247998847226
0.498904721296951
0.522467861192546
0.498004708499152
0.499767233995569
0.486394249109293
0.492955397586841
0.48478512458367
0.499582206571403
0.483812481194465
0.4865590531998
0.475681014997723
0.480078553706888
0.473374420700438
0.479558801973429
0.465381474913031
0.486703781311407
0.469364398937212
0.468052895206196
0.45870416383021
0.464591969081017
0.459368790360807
0.466808017312493
0.453913735551867
0.44684328451098
0.440448482683491
0.456004689343053
0.437722585401868
0.449961587297028
0.433931278350189
0.435467245446301
0.432479704553718
0.444222540682396
0.43622041168405
0.436102744083937
0.420537177160649
0.436107956916074
0.421759412189692
0.437772278444158
0.417095879337755
0.427865130631039
0.416524021534046
0.416945519419604
0.404992195139001
0.415584006695042
0.408438162717143
0.409806988343709
0.396666960453918
0.416259335088236
0.397856207869061
0.408770244528534
0.405139630920746
0.401383287273253
0.392068920669891
0.398055483855918
0.386680383855976
0.391157186864174
0.386617011767586
0.391753467194219
0.37686983309307
0.384381729052694
0.378284584374565
0.382940578412841
0.373875449575242
0.384287661488659
0.371061965297232
0.374446320605636
0.366549281751623
0.371802079769398
0.368218040897855
0.366596415212197
0.358330124776542
0.358756566694734
0.356117349829675
0.363136589713373
0.353721865068666
0.361938111542766
0.351671630637525
0.355978579197027
0.345673928081647
0.351052009577279
0.342374924462186
0.351217079523692
0.337019405757259
0.344023254909039
0.334216658262996
0.344784430325256
0.336455877611686
0.343034693410187
0.334464575250334
0.330943583212619
0.324497109376238
0.336103123078713
0.326109600350052
0.325115604609805
0.316213704902105
0.325486268397632
0.319464752070313
0.322478397324474
0.312319778818805
0.323138676518113
0.313637378660244
0.318049878195404
0.313441543853969
0.318310810028108
0.308629283993905
0.31810679268778
0.305970665298984
0.311417797617385
0.312421015420273
0.311319871354377
0.302771570313668
0.305816178261192
0.299367737823616
0.310607769915792
0.300232177074272
0.302557521364631
0.298997274117013
0.306399016486266
0.299487782051284
0.301065459471454
0.289158763012923
0.299122519398205
0.288354303412099
0.299457448194603
0.293635845883137
0.299980737262545
0.292560308974702
0.302119374807422
0.286965074013935
0.300063236464443
0.298487722489084
0.300265404725918
0.294301836779005
0.302835460045254
0.298031588299526
0.297567419858522
0.29497073689686
0.3026764326808
0.299677653368994
0.30413671452333
0.302173358271545
0.312220426354784
0.303065648347688
0.308206035565314
0.303674731621001
0.309712475548831
0.309973230532288
0.319753514979276
0.308867454878607
0.312497294392426
0.306270823112492
0.319284591252639
0.309881534311353
0.320626900104555
0.315323553395418
0.321422265260592
0.31494529823368
0.325762708045268
0.326141899428345
0.332781487666884
0.327561807180139
0.329034181103988
0.330400465262019
0.334486495959019
0.326380496743111
0.339000096751372
0.334585575473598
0.344219210291048
0.348301596115734
0.349452383756243
0.345924930971289
0.352414968627751
0.348285176196789
0.355011528138661
0.358588650738353
0.365029259033372
0.356664416892843
0.36562201860213
0.362891721023363
0.374313745999785
0.373069568268656
0.374466142914291
0.371745502543649
0.387124556311992
0.384938367884778
0.395775401208651
0.388620495413161
0.39933120988305
0.388669897297682
0.400019556163907
0.397136088651036
0.409033666336126
0.398002559886426
0.411380381841271
0.409775606612805
0.418039475547988
0.408960656578807
0.417847961868354
0.403618403918209
0.41804982646854
0.408479768852095
0.413628849010717
0.411329671545603
0.412101840564025
0.408635816307677
0.415576399680105
0.415068993718651
0.414688760934232
0.401265212098872
0.415694169067905
0.398098530451011
0.409008029478464
0.41063191836449
0.401126369876771
0.407313206075005
0.405968547336326
0.394788946350301
0.406092171183375
0.398138631027708
0.409025224644875
0.399589580873849
0.406126060069363
0.397447885947163
0.404608982311164
0.395525409999293
0.404462067778193
0.397507408783034
0.404327201685359
0.396726063160178
0.400905799376571
0.400399428252258
0.405756023745021
0.394541046742729
0.4072149699606
0.400652864054747
0.406010842590288
0.398018840537836
0.40129225450092
0.394408123084132
0.413747635274825
0.398456219429271
0.403832471811882
0.394953150396987
0.408241119632482
0.402947282557987
0.397742894737076
0.394860648785552
0.407500310847861
0.401636652078749
0.406904850716357
0.390721055947393
0.394932259820358
0.389595164233362
0.393869763844846
0.385931043967053
0.39386472088435
0.385519198361329
0.391641505759519
0.375703884621666
0.381942174533858
0.374881809438609
0.380304687346766
0.374200910229878
0.375777026855047
0.36496702491569
0.368883010305962
0.357135232104058
0.36456822661576
0.355119053153625
0.359963223012988
0.352457310718885
0.354737286919443
0.340264778451681
0.351727401403935
0.343581094529353
0.348521561548914
0.339808720526172
0.344015460439513
0.336017273408016
0.33352775951758
0.327014488221252
0.338504447348432
0.324690979094414
0.323945726045479
0.320466611994355
0.323876993140152
0.31240812716465
0.316057682618818
0.309751714726827
0.315127799684896
0.303483758796045
0.315228631619275
0.300387508882646
0.307885002341456
0.30407541681175
0.304319813958953
0.299646303379591
0.297932259231522
0.295684113717143
0.296349730296675
0.291810943636328
0.296369064654378
0.289516179674729
0.288801394125431
0.283778369043648
0.289774370985179
0.283141980548074
0.284812433679532
0.286122353830077
0.284433353570445
0.278524847686986
0.284426667930028
0.276544853914012
0.276728241519876
0.270614264761545
0.276885241377858
0.27083304015398
0.275383207504549
0.269354557622344
0.271017640957186
0.267772149445631
0.271127189300356
0.264562432768267
0.2672741273938
0.259700096362856
0.263938354029852
0.257515667409711
0.262045184158334
0.260143406109231
0.258841174163008
0.251745160973743
0.251476374554186
0.250115557641846
0.256251079102123
0.248357903756573
0.251208220178229
0.25309602941783
0.248719554115626
0.244582962020519
0.252796929539349
0.248981287575791
0.246420086871767
0.242464016880491
0.250587733662375
0.243210261279261
0.243919091487388
0.237503132425852
0.240736435338031
0.236071821952752
0.242600336628098
0.24008143028395
0.241279655172732
0.235093734431589
0.239605787881785
0.231763627390865
0.236210714245205
0.231161125963557
0.234728881498026
0.228423482536797
0.237813158191586
0.23467384928644
0.231829396123742
0.22876150790851
0.233090300465622
0.225378915066309
0.233245667917387
0.225939971526203
0.229961616266015
0.226210002518909
0.229091371378678
0.224018030099645
0.226501464296913
0.218135805654074
0.225339752762855
0.223984860345668
0.224854369356603
0.220006309625756
0.225039252486116
0.22230997285469
0.221899869670758
0.217553068073819
0.221472051389781
0.216855240443649
0.221910967149418
0.217619125039931
0.220496116404255
0.211671575057407
0.21766950978483
0.21393741861496
0.218323883196309
0.21521305559376
0.214603460525825
0.209582911433944
0.21296644674479
0.20835660662509
0.217798902614931
0.209367968405662
0.211983618988225
0.207484409108052
0.213875840075819
0.212305335524647
0.210891903589029
0.206890198125314
0.212770319920227
0.203255592110205
0.210465208548382
0.204540998899891
0.208030692523361
0.207053402177118
0.208317575701695
0.207244635961261
0.208929626490599
0.200716514894065
0.205922485808702
0.205547141169949
0.207202710654213
0.20298316905373
0.205627934636902
0.201535224859168
0.204098345936886
0.202041011689984
0.203019055994945
0.196977127905738
0.203513412057447
0.196468676491522
0.199822505045397
0.197595603513003
0.203673941104662
0.199972495882351
0.201666428401067
0.196508414213139
0.198212700764976
0.198271051549826
0.20085774953162
0.196734549647799
0.195701509705482
0.193922400220534
0.200410493555775
0.194976538963204
0.196537274154176
0.19179155238228
0.198805871543084
0.190031470928727
0.195357902534276
0.189786445018192
0.190808861280174
0.190040780785849
0.193107134212039
0.189267941108685
0.191005132944913
0.187600294014796
0.189127194987538
0.189098092628106
0.184781790934845
0.18291540840649
0.183538016419697
0.1770320440238
0.186545731048544
0.18092775873224
0.183122777949612
0.180266736712858
0.183186152358823
0.181715235732454
0.183420457595879
0.176426225448674
0.180331137190849
0.175618911986836
0.181434922708215
0.178384969840003
0.179403679979472
0.173712764893334
0.176989305546943
0.173790205581946
0.174737669643447
0.176666982413396
0.175964954768704
0.173697661769215
0.175153609940484
0.169940219771647
0.174353292625568
0.172356919206955
0.175392674144979
0.166780922703801
0.169473764376819
0.166647885531111
0.170945307312954
0.164997925144478
0.170766697194821
0.16846038713185
0.170351294556417
0.164708673289029
0.165469016983
0.160730730402829
0.169224676371312
0.161437470339433
0.162067449010826
0.159829626098096
0.164308011660731
0.158861758373519
0.159945896882167
0.154145338950956
0.159825047368103
0.158601021408043
0.154579579512533
0.151488616650584
0.154885573375724
0.155106285743796
0.156210835850369
0.15314360324802
0.153552224874299
0.149166669942873
0.152292995619053
0.147042755060191
0.148487628960975
0.151198475729848
0.147392567622545
0.14414055055995
0.1477714484725
0.141615082592184
0.145439548527722
0.13817647678004
0.144394611538751
0.141829657399872
0.141205743237465
0.139958342059276
0.140139132472867
0.137662925725277
0.141562185828056
0.137767284729215
0.135998771210576
0.13537267084393
0.13933906794353
0.134220081840627
0.136228935549265
0.13172532420444
0.137659819355314
0.133341141090525
0.136120583874793
0.132904390158934
0.134639417175723
0.131931585635173
0.135114321105788
0.132019334804943
0.13236446969539
0.127064466242856
0.131794655165111
0.128857156406489
0.128190927528464
0.126590398154706
0.12896710485332
0.125012560226856
0.127920278011511
0.125095486525922
0.128133576289619
0.126797656070252
0.125435626754776
0.122162010508359
0.124652740410223
0.123086072782183
0.121962552042092
0.124376264406691
0.123683718275731
0.121647457655821
0.123045981676413
0.12043506866378
0.123583406088166
0.117691121918251
0.123635417657187
0.120703112396016
0.121300313087971
0.118343759850687
0.12072406914612
0.116017618081458
0.118573141427079
0.114300006009092
0.11867947215455
0.115928122935458
0.117169347503808
0.109164758669442
0.113768557233838
0.11583234701612
0.116809317559986
0.112822883890805
0.114351938841777
0.110883659918446
0.116847435095642
0.114425945085204
0.113298028068092
0.111382646744622
0.116258791288561
0.110357212252147
0.114418163794496
0.111720377825895
0.112543829045426
0.111320143958024
0.114492202548737
0.110083584877992
0.112215263784772
0.108175434318977
0.111402355468383
0.110564503585794
0.111900136976489
0.107551476937189
0.111635625614352
0.108823223681389
0.108233791912786
0.106965903858549
0.109927011375474
0.1081905062263
0.110602184337067
0.10878686284993
0.111937224046436
0.107632456287665
0.111888981795033
0.105026381648663
0.108486584480637
0.104464269292242
0.10892993030368
0.104770514188367
0.107067188345034
0.104473610304579
0.104644731475592
0.102649720965601
0.10423378614684
0.103177808240333
0.104029793225751
0.0995747610247907
0.103868954246435
0.103051252279003
0.103481528908189
0.10066323653109
0.102574359182207
0.09973209479984
0.101374448092989
0.0963366889340114
0.102754687753008
0.0982818487334844
0.0993122350456552
0.0976241516386733
0.0979192053264204
0.0967429177141371
0.0970843447437545
0.0969703336423412
0.100009468963279
0.0949199896820109
0.098307862526276
0.0965734367584389
0.0997312084041932
0.0963700515542689
0.0958716344615143
0.0938842766884764
0.0995893010221549
0.0962896396837171
0.0956169852697082
0.0922458171302761
0.0952349134876936
0.097048631592898
0.0952711682574972
0.0906473174320949
0.0978857444883619
0.0930531970205418
0.0970887186287902
0.0944313667685729
0.0953166686895476
0.0897879728455722
0.0939868589980085
0.0912525717111462
0.0934136366215646
0.0911014817711246
0.0944003891599552
0.0924411330007809
0.093008445948382
0.0897863683610184
0.0927866823166259
0.0911349782293446
0.0941813702814707
0.0903736614591129
0.0929050541734863
0.0873467529297252
0.0899491574593504
0.0877280164258737
0.0877759132553988
0.0864721277000338
0.0902655689366172
0.0856231897048795
0.0872644375936502
0.0849919224611002
0.0888754200395555
0.0852693099227634
0.0880896837133017
0.0834932080309652
0.0861807637917958
0.0829212747154144
0.0857969279100609
0.0809369384996912
0.0830299249246209
0.0810502437234266
0.0832155678605839
0.0803578351292359
0.0821694528116519
0.0800729073554527
0.0813346561342267
0.0774826843281614
0.0796108894409095
0.0768755772177888
0.0798663007837318
0.0749450608333324
0.0796872838454668
0.0775919232234561
0.0786968300855205
0.0754777569918857
0.0784372175366325
0.076909654304789
0.0792195721493614
0.0749748138998934
0.0788081483088949
0.0748495047392605
0.0770454517831965
0.0766846999444163
0.0779731300613526
0.0714336984560364
0.0764079329695273
0.0752642659736776
0.0740954361031764
0.0729388497575102
0.0748538493454127
0.0716992063232151
0.0746645088330379
0.070811897415375
0.0718912932325021
0.0710750570080877
0.0732325010912586
0.0709935755032758
0.0714133197853982
0.0692754679279393
0.0732688015498068
0.0716084321536344
0.0709309313716244
0.0677285172410225
0.070106718684383
0.0683736530802296
0.0693235837652142
0.0659224314801406
0.0697932973339817
0.0647043232330783
0.0677156815401862
0.0648046093780163
0.0671082895618358
0.0651824725287738
0.0678352876359173
0.0650151040942818
0.0679210247362192
0.0642685061622195
0.0630369105470515
0.0625680053959421
0.0641456696585194
0.060998194501517
0.0635204682026327
0.0596144220820954
0.0646975742630626
0.0624900442457322
0.0624526556896622
0.0609421688432213
0.0636119391345617
0.0601811550811568
0.0612572068808876
0.0583371115023284
0.0609348199217031
0.0600152538653324
0.0635422154300476
0.0585560196150698
0.061639791803941
0.0592343737806207
0.0615216951204872
0.0592799083828852
0.0629275954430324
0.0578472580825547
0.0602219797556759
0.0576628480963817
0.061897364612378
0.0579555680531362
0.0604308293781742
0.0598539089927527
0.0607066573145317
0.0587149039526704
0.0623482898456777
0.0554058436660593
0.0587674786261112
0.0564532272102077
0.0611468329639375
0.0582592527404044
0.0629776840265302
0.0583622322855563
0.0602333887781154
0.0596703901127656
0.0637735369794137
0.046739938611677
0.0494695553621561
0.0464246570936658
0.0539183785118887
0.0560470630907543
0.0621269473734375
0.0475852900448765
0.0431525304949962
0.0497440180567889
0.0594942974781317
0.0433539610971428
0.0555301136189799
0.0466876510739064
0.0507977993003583
0.050548108641298
0.0543274898428924
0.0481843271224622
0.0563978606712287
0.0506650525005789
0.0562843091175216
0.0463106049384175
0.0595703614787616
0.0533944964707058
0.0560112687124328
0.0478856319254108
0.0575612427345444
0.0456656349536899
0.0546130330903545
0.0433019031110019
0.0549769902522179
0.0478525612826922
0.054200597757092
0.044631533103113
0.0583669114784368
0.0454422642978186
0.0590761867617901
0.0428368236623527
0.0556438746238821
0.0381777275390852
0.0485807395468792
0.041084361192338
0.0510961513994088
0.0484202466269199
0.0638922226580062
0.0424026102121547
0.052595863333346
0.0449711239212239
0.0589292198970429
0.052886230014645
0.0561158809657204
0.0447626949076253
0.0488268168947569
0.0589999617754505
0.0525796982715476
0.0489738581050791
0.0433569870431924
0.0659357708128082
0.0406252643833821
0.0601847065770322
0.0451303046590141
0.0635765647283864
0.0395476540934964
0.0630162056656378
0.0443251529262797
0.0535263395295055
0.0510316399077621
0.0547979258485006
0.0497659805632853
0.0514657905744444
0.0543024439926642
0.0477381686645873
0.0525435962800341
0.0509718706554943
0.0509570580207286
0.0518458703651444
0.0485052837174264
0.0527100490224258
0.0496817941936056
0.052108236177697
0.0490895669771593
0.0489467251403151
0.0482890976471973
0.0490090067782448
0.0501922792935295
0.0496766476844111
0.0499367784512069
0.049735371126575
0.0482228936898711
0.0501120004191198
0.0489757293842575
0.0489681879012815
0.0490161947786614
0.0512845468838729
0.0486625426304353
0.0482077071593298
0.048422138005659
0.0498411262537162
0.0499581944645288
0.0485885744199857
0.048745854982137
0.0483627171297591
0.050360809437944
0.0510942865910253
0.0502947641468018
0.0501335024751472
0.0479484868845729
0.0478898165604656
0.0510955617634206
0.0496337056745119
0.0494523790122599
0.0510782338052629
0.0504620347486822
0.0504760449942835
0.0496381885829279
0.0492760738253972
0.0498794538790197
0.0481271824999938
0.0478046369787915
0.050489954769169
0.0518436878515591
0.0487080828325367
0.0481969811895235
0.0506560142930214
0.0498824674223304
0.0500624323504321
0.0505890459144684
0.0485305997760437
0.0468698120374987
0.0493020952552339
0.0511993048287534
0.049815135303528
0.0495832356275443
0.0503694180049125
0.05134051835782
0.050085679962417
0.0511608730857182
0.0497435082539681
0.0496252075835901
0.0490398086007175
0.0497937325813307
0.0489329769392846
0.0494190794751893
0.0490081100133092
0.0488411950702594
0.0506019219353948
0.0493402455426053
0.0487212236008958
0.0500667574265032
0.0485780106101394
0.0489808895837557
0.0511845342396909
0.0501125764970221
0.0471976269752724
0.0508759872465682
0.051109501563918
0.0508617728385549
0.0485522081206903
0.0498058256806869
0.0503606448564716
0.0490815573841795
0.0485665229745454
0.048935500788694
0.0498112005772648
0.050071756102093
0.0493560410734638
0.0531639832747165
0.0511219352374561
0.05047465791567
0.0505707225543711
0.0505432898548483
0.0499260968881555
0.0528551640577065
0.0515478002770301
0.0516006419045921
0.0511933578250838
0.0535390480046521
0.0509853625772458
0.0497767563212597
0.0520060247012581
0.0519361776821184
0.0521308319676004
0.0529517362231494
0.0513427494306251
0.0550124447360833
0.0514543789421175
0.0520994774069511
0.0543914025988932
0.0520233446038999
0.0516532862001878
0.0538010870130554
0.052708749488366
0.0524132333689661
0.0542571551291115
0.0529424479524484
0.0511177469145332
0.0525439158969721
0.0509718687349696
0.0506045822101562
0.0508968082076443
0.0540792447001967
0.0514017626391773
0.0525864671624545
0.054738794852154
0.0555382448502522
0.0537248933900228
0.053281774026391
0.0520152227624502
0.0534085158658332
0.0528550815682763
0.0549544113673566
0.0542438561589613
0.0536884184623398
0.0534807771819418
0.0530521123537498
0.0522770770495652
0.0533538517637879
0.0524103823695441
0.0524432964673841
0.0543603946270359
0.0574285866949531
0.0561883175447351
0.0555396962668421
0.0541768105401594
0.0558686930626192
0.055939743383927
0.0575808596926263
0.0547230209110391
0.0524478561944551
0.0551642357460999
0.0567850951866767
0.0547340982841238
0.0531440265912593
0.0552241424218748
0.0571847129173681
0.0546697801575755
0.0566047125986383
0.0570829356865424
0.0562637952276536
0.0550619471042114
0.0558849135045601
0.0552480851037582
0.0566907780690434
0.0551182804355977
0.0555160469422544
0.0556938195247936
0.0576004909890508
0.0561947143005363
0.0559402122638486
0.0548679243648567
0.0552371176373781
0.0540812039517148
0.0548158465103443
0.0547403916650596
0.0557237071463935
0.0549266833432922
0.0543623870663266
0.0553126963189376
0.0542424016446265
0.0513842680410587
0.054755391602015
0.053350769071055
0.054379815899308
0.0513054050302447
0.052798096026514
0.0526183556744567
0.0531869295134419
0.0524251121637969
0.0529977640561309
0.0531626140944364
0.0538942897156752
0.0538455272162716
0.0541851832229703
0.0510911070075743
0.0528837416322125
0.0518828459766063
0.0536457841939762
0.0511126822140825
0.052105644858517
0.0524384857180871
0.0531906201535522
0.0512384049231822
0.0522308854738904
0.0523226805462204
0.0529589017792353
0.0507299392544979
0.0508040354909589
0.0514196111705282
0.0517186134997335
0.0511519898561053
0.0529025076267145
0.0514535342001888
0.0526146689282152
0.0505087303966121
0.0522300757598674
0.0510951122382303
0.052641012594654
0.0522134515431684
0.0525629372039069
0.0513848776967394
0.0498039394032342
0.0495413843296601
0.0525285372609452
0.0514211529364217
0.0520458034015452
0.0504460728298513
0.0509571311170917
0.0526228044929375
0.052197178050944
0.0497585542024913
0.0533079205400893
0.049787535430727
0.0488309367706185
0.0490942762218492
0.0530736757190117
0.050785719411048
0.0504155112335168
0.0506880717317133
0.052445559379031
0.05148605499324
0.0514768655003852
0.0520634218651534
0.0508905597901687
0.0489574246769753
0.0508589504176357
0.0496205076583604
0.0506287374127503
0.0508998112498834
0.0500090848578237
0.0490349739689064
0.0501509389837199
0.0488704101181521
0.0511500880395925
0.0496533535277166
0.0498034971325314
0.0493178260470797
0.0490565669743252
0.0478991405817156
0.0505802670100879
0.049871720538243
0.0497524259949478
0.0493547604338918
0.051825205371437
0.0496441660327105
0.0491609386730917
0.0490532429280246
0.0505058498230905
0.0485415507561704
0.0493675565332238
0.0496619920456957
0.0515699730839974
0.0485172513303756
0.0487409091162949
0.0499909654354335
0.0491755685628286
0.0509634468088052
0.0515451825742218
0.0479892587957419
0.0462264727942384
0.0468200858701868
0.0487581441583011
0.0480844823752634
0.049547623399673
0.0475850545080172
0.0478708428907978
0.047095325986607
0.0486429272639652
0.0468372405031647
0.0460047197544141
0.0463566970822837
0.0482740949082732
0.0435332224678391
0.0464625204233673
0.0452950188827356
0.0467624266037917
0.0462922662319826
0.0453702545086853
0.0433100135195638
0.0454771370332919
0.045070575189765
0.044903000001851
0.0455866564554379
0.0459073477742023
0.0455276443343561
0.045782396090653
0.0431150984491755
0.0438898205015483
0.0426993902039754
0.0428255039277535
0.0423500070482469
0.0447147730890813
0.0424607241656527
0.0438700080578154
0.041632049164801
0.0416948761779908
0.0410518290867981
0.0412440162292303
0.0399334081356515
0.0423750150289518
0.0408260036590131
0.040146556014906
0.0398435985915928
0.0411820373703008
0.040586866998933
0.0388716645049232
0.039679947097619
0.0415371431529193
0.0426302215128964
0.0467789290138021
0.0434638282396402
0.0413585053933864
0.0417824720548926
0.0410049326671847
0.0407166358178022
0.0403845809262381
0.0399766265314064
0.0418090556737308
0.0413214483025705
0.0400153358686892
0.039719919400475
0.0421174117446591
0.0398151217789658
0.0382543484033864
0.0387179608235831
0.0385697678069171
0.0399598527835803
0.0419199861376157
0.038974708727078
0.0383274356756762
0.0392419600319354
0.0394740494200574
0.03960343381648
0.0391297831038997
0.0384603469262751
0.0449578890158018
0.0443543628729842
0.0418142616780438
0.0392466192272966
0.0388737178375342
0.0401305488160119
0.0392321451718144
0.0380930334458811
0.0400845204907987
0.0397302591675256
0.0393884561569041
0.0379732599773326
0.0379448214978082
0.0380947615637531
0.0382044472372634
0.0373136136089294
0.0375020172376373
0.0368671474622663
0.0372659846550425
0.0371451136956668
0.0382566331485155
0.0367829264603094
0.0390398357782902
0.0398755896064113
0.0395657340007894
0.0371787869975994
0.04178577295654
0.0457531151968304
0.0419914110647941
0.0363588106196741
0.0378503344352827
0.0359167507681151
0.0354388719177413
0.0363984859848408
0.0395171685999563
0.0339162901173951
0.0368291491785228
0.0362763866963959
0.0376747784404339
0.035546937583475
0.0358272308318462
0.0366195807876232
0.0380423874563594
0.035357062469124
0.0379513796444254
0.0377661162235105
0.0361065680134225
0.0354674353238316
0.0433580267124063
0.0395784942338194
0.0389502762812174
0.0367666362008646
0.0355527943840097
0.046663476629655
0.0482490235332801
0.036329827843924
0.0374236580170806
0.0374585130354356
0.0373894208388661
0.0359778307494298
0.0362911829408478
0.037600197833748
0.03941712508894
0.0377435495855644
0.0405225442238326
0.0391048250508403
0.0344456530823055
0.0356280372929543
0.0347046550129564
0.0358021539806413
0.0360316098477422
0.0345771407448495
0.0368588300352546
0.0362445200369747
0.0344350267512301
0.0351073490960201
0.035001295044033
0.0369861675939837
0.0415753932703541
0.0365626599355713
0.0346380453728101
0.0366182729666512
0.0334062285618356
0.0388034571178701
0.0443273228145308
0.0380093142095179
0.0351419113142606
0.038697250083041
0.0365505310504611
0.03616795357792
0.0371784803412554
0.0339444203265355
0.0358364125176594
0.0357665586959472
0.0359047329881967
0.0360926505558827
0.0356626787276612
0.035932253160511
0.0378107445091297
0.0332331926695977
0.0349914296893996
0.0352352569345712
0.0364797303470834
0.037192283775715
0.0355021153526381
0.0464906582776812
0.0513926530594689
0.0429914424463557
0.0439549587737138
0.0376487689843839
0.0339874317162116
0.0368664182175016
0.0352109951055025
0.0344426195442093
0.0350799661141778
0.0377681073610526
0.0361360036982804
0.0373375194088765
0.0361343625647301
0.0348341343179084
0.0350058556446339
0.0356075389953603
0.034446853618523
0.0374403297624608
0.0350809587771176
0.0372530866527755
0.0341856232922338
0.0357315236182704
0.0351217726065878
0.0425387025591802
0.0346636843230794
0.0313510317036938
0.04464040688977
0.0518764261376993
0.0430373648299973
0.038163227936558
0.0383206588287264
0.0339848884884074
0.0365194442347273
0.036662855784179
0.0405442289678301
0.0357013155887175
0.0357228153592215
0.0376750811130227
0.039336710593758
0.0355981757040826
0.0326627099462112
0.0421010741180395
0.0528296364589443
0.0439823723958016
0.0411056127058084
0.0333439481678946
0.0392037525884189
0.0524203094589707
0.045901517705527
0.0373215132634071
0.0393604762470902
0.0355817608292183
0.0383719789864337
0.0369940833856845
0.0404049978899599
0.0416476088487808
0.0415019814156857
0.0389760780226473
0.0357707434283746
0.0379802150597817
0.0397454380816823
0.0391569026955812
0.041400826712402
0.0402652734713884
0.0385695593731148
0.0378678086988966
0.0413947288376815
0.0381606544016535
0.0393440178348768
0.0388216582073866
0.038823622401907
0.0449422261119637
0.0423632869116952
0.0398582733639338
0.0459006635702619
0.0455002975136518
0.0400588985746349
0.0392213612578779
0.0451190179584242
0.045465663626591
0.036227655879771
0.0419104526640169
0.0522360994918298
0.05958192978308
0.0459833577978959
0.0477548022753763
0.0371631193388255
0.044501402140065
0.0368200989752453
0.0450820937080918
0.0432254495054512
0.048684369489041
0.0387364418309916
0.0406731904556438
0.0409390288690489
0.0478287502759206
0.0462544986452004
0.0435022259157276
0.0449582729765987
0.0387788251999973
0.0459789669283753
0.043973149071428
0.0428738413282906
0.0531175860713128
0.0585949369725691
0.0544542941186329
0.049918250219444
0.047952535655248
0.0554477189954859
0.0560250644168451
0.0442246213319557
0.0459162594184241
0.0457737414772189
0.0409140505561399
0.0435259577536935
0.0616741629431589
0.0567758175970288
0.046841063459661
0.046474721600843
0.0471344843524778
0.0574021440824108
0.0610960892743067
0.0472761477996535
0.0508955488444043
0.046926407324827
0.0464117633117073
0.058970704703299
0.0679795767968002
0.0587673301058928
0.0629634527540742
0.0666950872967989
0.0556483058500488
0.0629054964375692
0.0535678994725366
0.0621884194025605
0.0665531782671685
0.0627438843037851
0.0472949429534798
0.0631126066571671
0.0683862763578316
0.0681190383961564
0.0606428402986498
0.0619958917494079
0.0527132438284743
0.0729580096199073
0.0945001144366468
0.0885073109162499
0.0644240386590179
0.0673297629785062
0.0739268348250838
0.0721387448479467
0.0638860054534879
0.0682609655514989
0.065374714205921
0.0655699369490458
0.0675733606324482
0.0711357505814472
0.0686500384958636
0.0734306951748636
0.0697042639982602
0.0733042937062836
0.0789611694208192
0.113590162066508
0.0895236156082615
0.0908715953152493
0.0805136419441463
0.0939976650941148
0.0821491319130808
0.0817965583721714
0.0786985932857023
0.0845373304787629
0.0859809990595207
0.0838788965255955
0.0832678625306977
0.0945627071426367
0.090755381489345
0.105331533226158
0.0993358078676808
0.104797946264031
0.0822705445978358
0.118654788870879
0.147167805973257
0.140169077744884
0.105240357529346
0.112007003324911
0.123738344787712
0.14812037655537
0.136595765735173
0.123074564187778
0.128668888420317
0.127017025530131
0.134106472439701
0.142967972361592
0.142822987732741
0.156003995119268
0.152675525598431
0.151578074632443
0.155287274022235
0.19725003901795
0.209423602841372
0.184316591242528
0.179802386985988
0.187144714320213
0.197540733935864
0.190647153157277
0.200360994285131
0.19241535175893
0.212485116485976
0.226973096287513
0.232543706867657
0.207381640737666
0.235481476334758
0.222343858674954
0.239145511503698
0.250335288740033
0.272872306081703
0.251739419277692
0.251082873327974
0.259683778676312
0.256715585117999
0.269891212836108
0.283934004956125
0.288045633910951
0.283165734889771
0.283981204901565
0.284106680042969
0.286826381740823
0.298301607275879
0.29299477853243
0.303041546008314
0.30444804133752
0.330687044713407
0.393127060033106
0.336722812640356
0.308357711208424
0.30359607948296
0.31144563012222
0.318596083237457
0.322602657828684
0.330286611470609
0.332693360337592
0.311607075131067
0.306769064965685
0.313929653918312
0.306820999740873
0.315989140654896
0.30559087841647
0.319129430734091
0.31466649638604
0.314651518364369
0.326310125459959
0.347954264774928
0.32645289827455
0.297482561761175
0.308652992509807
0.301360644121818
0.307438681229934
0.288299572840992
0.307844696907234
0.30822569655792
0.309360244049125
0.285979732852781
0.291075808474005
0.300073614144477
0.307134475543232
0.29066397973743
0.27904056229092
0.281159964654874
0.276392056998241
0.264369497213553
0.281248419366098
0.291437804383162
0.288384807613778
0.25891709900225
0.269736802192038
0.260006018948383
0.263627739765043
0.256978541241642
0.268282429226202
0.255799500839754
0.259305146459664
0.25480185706603
0.259437457967976
0.248698081706086
0.253647358933357
0.253367786975796
0.250192895582906
0.247183238134427
0.251190491372775
0.249994601243122
0.248946082748885
0.246231011739938
0.249120054589224
0.244485584839291
0.249923804768232
0.245535798994929
0.247843882219526
0.246050144391868
0.245902794213395
0.24937333104826
0.245843920756621
0.244838058526407
0.244367260011929
0.243720603801193
0.24618028895653
0.247213757747448
0.244744601301352
0.244347197953738
0.240451536802468
0.239522019104552
0.236998463228617
0.24542199778984
0.23557680370393
0.241893382616271
0.256754013333275
0.257888550756782
0.242242225231847
0.229468281848778
0.240035905640006
0.223986158404152
0.235193464754973
0.237345804098464
0.253815018459207
0.22913873440323
0.227461692183338
0.220905716512963
0.232407568481741
0.22609734327187
0.230679435210209
0.212829129154983
0.22478182239618
0.233427360556055
0.263676139014558
0.256738110034951
0.261727064759578
0.245942651661971
0.208838502274903
0.231747409890632
0.225843614344437
0.226988244388497
0.20241676261444
0.218263916732761
0.218558263018677
0.220009000839228
0.211161528291595
0.208201931988368
0.207306420018651
0.217688151257357
0.223138934821532
0.212979701433673
0.218525249615884
0.22432718012634
0.218032944917339
0.210676547199612
0.258294633096477
0.223068785650242
0.203732079754061
0.199653546175581
0.192250727066678
0.212191673910059
0.209749413250811
0.202363051815763
0.195622672789117
0.187433846666501
0.185531900668658
0.184875851817176
0.204347077889422
0.182580886544314
0.200673090536478
0.185027345649205
0.193083796434186
0.169024700025927
0.195099917538619
0.197272026008829
0.211524160673646
0.182322668318755
0.171912965713147
0.196386832848813
0.187567889346699
0.184124436116527
0.174821043576586
0.167715929368639
0.171469283672745
0.17344808443973
0.169372353968879
0.168684687062047
0.168564898590124
0.17657603973976
0.174402210489964
0.204972011326613
0.189285808828015
0.164377327083593
0.159025349468278
0.153889993098178
0.164447974984481
0.149977872304108
0.157126410117359
0.162380726058901
0.159207510259823
0.166663133315543
0.163406141497889
0.171347763251892
0.156668338041149
0.160750595074384
0.158084976378117
0.164136414218951
0.182886470418091
0.190061276617355
0.173971117431245
0.175216178990583
0.175058505890935
0.184503804766147
0.173517068265203
0.185098129831462
0.179811170104402
0.189583942492482
0.189324205607814
0.198523103266118
0.196231190259111
0.205049908686653
0.197266486954168
0.231344608772594
0.216629385259279
0.230819199550049
0.212748470314044
0.262697547882421
0.25073359372323
0.254717652040884
0.246339830672995
0.248836056424755
0.252570762556107
0.256160585765513
0.254203751650232
0.275214748475272
0.27590967917782
0.283863718620624
0.266347806084757
0.287131857748993
0.273195233746987
0.297726487547529
0.296423212543852
0.313437129291269
0.322362325060677
0.32757194404248
0.319378414593777
0.297207732014955
0.30882932985247
0.304106324591107
0.308873351462871
0.305058561747091
0.303141469073435
0.315678402061505
0.321007517722755
0.318146171152015
0.313164612311884
0.315324054504795
0.315542412494629
0.318840192437183
0.320137171059621
0.323060979607621
0.325142933711962
0.331939756570775
0.321539041925845
0.348251761339144
0.360228235684388
0.356275578267981
0.336175177219105
0.34324940532171
0.348351527262781
0.345450945639502
0.34565265712766
0.350992619207327
0.360763449796966
0.358124606952063
0.358493593554663
0.362194594462615
0.35394461536692
0.380162584335756
0.369825676136777
0.377770694872004
0.36226048192841
0.37169419016968
0.393737283048956
0.400950349449523
0.398602502550052
0.380812536887212
0.396781255863843
0.374726150231918
0.388794056573559
0.383007254769025
0.388396219732251
0.388235343439653
0.392083201311647
0.384946829929157
0.387465785439873
0.388131471235556
0.3845508823344
0.389724353180572
0.395708042014237
0.388871624945627
0.38409995674057
0.388783001786246
0.384699483071886
0.386705759674841
0.392769955601504
0.395428652680699
0.389813484299402
0.376599793838902
0.390462208203465
0.395687847922153
0.392253918289505
0.380804237237479
0.379770745894346
0.378582500452291
0.384710500255407
0.375084978696143
0.390955730955365
0.391268507347431
0.394813019133477
0.37875251799827
0.392406744805745
0.387510238031315
0.39601076718673
0.388679207549175
0.398350813804624
0.396772466037952
0.400893124165242
0.402430954020381
0.40647577967925
0.399572453354067
0.408444745481775
0.410030277411331
0.409935609360993
0.405402318432435
0.405744365474035
0.400940319889982
0.403091203098541
0.403718772923127
0.401771979873349
0.391437009501452
0.401387314441192
0.383791629727987
0.400607897271347
0.394532840448209
0.396015143315003
0.385497011754625
0.387956258499777
0.3762231600221
0.378607639828504
0.370621260962128
0.369629922998158
0.37138859539922
0.371626486659177
0.36950266069424
0.368148829520583
0.361446486161711
0.358880056091399
0.361937458645352
0.362103884469707
0.356570699783712
0.362065323637666
0.356915330739257
0.358224369704726
0.354334823607499
0.358471885181695
0.349894978880688
0.356008773272386
0.359394185633681
0.363707248122672
0.35741196544136
0.355308960627022
0.362714016831102
0.356383059404141
0.352227906379073
0.347939608375403
0.354252715565995
0.349134155373168
0.350790834144914
0.34923069065025
0.349570555303522
0.347052336706836
0.348170583794851
0.347119211475905
0.347627578439981
0.344994084261797
0.34786484802865
0.343830981516523
0.344502999424879
0.344978549566087
0.343323792302254
0.343716983082588
0.341190571760988
0.343690235686728
0.337804912463371
0.340743689959531
0.335756919577054
0.337560700685588
0.339496200458331
0.338504690697783
0.33498452882973
0.33334247166632
0.33763750657463
0.336997729374103
0.335641954348933
0.334601522104727
0.336275511934735
0.332985938643208
0.330736311258561
0.329034520306455
0.32711029539279
0.327234442914329
0.326267023779191
0.319889667047056
0.321552939264432
0.319837604253034
0.314555906218413
0.312848751571799
0.309251571567198
0.307107440166681
0.304647257787403
0.301164510302228
0.299476288088758
0.296771736895883
0.296133848945416
0.29389135489913
0.293284925039347
0.292757148761695
0.290499267098837
0.291549805704726
0.289521741914935
0.290914875378959
0.288675930420147
0.287736142842361
0.287056004851105
0.287271260606641
0.289170363307846
0.288940823594992
0.287888054308253
0.290217846683296
0.290063249534433
0.296844749951747
0.296075321872095
0.295840758714652
0.295276424815345
0.298544936509358
0.29757871155915
0.297316004691375
0.296188672390642
0.301550097658734
0.29941086116826
0.29949157809768
0.302917241159081
0.305321981635949
0.30766979136595
0.305812527051738
0.306842591776536
0.306374346462313
0.304410797560716
0.303894486440621
0.302609208819003
0.304809585202867
0.302737374582473
0.303633368293446
0.303416696230901
0.30144527309315
0.301897227488739
0.301165939607294
0.301265711386562
0.299611867672536
0.296694872005529
0.297220695969217
0.295816839210985
0.296231726572787
0.295782174521334
0.29480536480029
0.291313030284448
0.294404337052987
0.292396434135612
0.290817698292146
0.289183858997067
0.289469612131964
0.285646215920845
0.287257030903306
0.28468070663804
0.283609330710285
0.284077479147257
0.282452973547757
0.281066710795729
0.277658455183576
0.276938700770914
0.274903109777222
0.273264986631946
0.273676460334033
0.270894165708772
0.269973130021914
0.269455404659172
0.266704539544284
0.267818067328112
0.263334328037276
0.261732714605375
0.257434438770791
0.258666124966733
0.254569947633038
0.253019331919947
0.254033466909109
0.248547255429161
0.249848613767582
0.248525687209292
0.246938617673177
0.244089224223542
0.246864216045287
0.246480341463021
0.245388928487224
0.244488792058112
0.244677497141515
0.24274518088931
0.243075640336828
0.241394176618626
0.241507714869095
0.240637847584828
0.240977364286813
0.23802488802161
0.234478411584916
0.231670468899858
0.230514006702231
0.227901158273982
0.223493829265512
0.218946486478898
0.218495648139574
0.213291921753339
0.209779274148738
0.211154735013636
0.209591411660757
0.207745144141584
0.206802251867426
0.206814638234037
0.212011697086372
0.212961693686032
0.216729507780722
0.221051566020571
0.2285589956372
0.236279695772567
0.242750821812002
0.250354193611512
0.260045785275006
0.270538674813508
0.281216855330537
0.291351629939841
0.302294033485474
0.313802501464995
0.326566432969751
0.336496987488255
0.350645100514688
0.362314864467193
0.377865849686707
0.388248477932287
0.402664490286537
0.416769523187663
0.428151555615867
0.445149935506758
0.458007060478176
0.47018889995137
0.483100372521049
0.49444843501477
0.509537879310799
0.517654303990785
0.525477066996112
0.53797131350769
0.546613227211505
0.552908728207436
0.559669292362606
0.559149402792543
0.564755872934051
0.56467759195572
0.567778000376076
0.56413965152104
0.564405750420773
0.566701809362495
0.561718412322888
0.55839079256042
0.560911341185651
0.553207079470741
0.55114761322894
0.555064750238925
0.549707941808996
0.547032853150235
0.547285715436856
0.546064718202133
0.548026838370357
0.544760594047631
0.550358822688364
0.552057361184015
0.557592466997379
0.562686164567137
0.56308178285407
0.565468185502088
0.573029821742723
0.584250002692574
0.589766249028982
0.590788731773883
0.605728130860622
0.613238583551463
0.622681377005188
0.62602197036428
0.628184303751751
0.636163986949533
0.636945491946541
0.641524930476996
0.64838654261372
0.650503577839687
0.653049109890275
0.651849556827025
0.654273222205444
0.655336316459639
0.654654338192166
0.655101722721434
0.660287885399472
0.659624889046583
0.653857449912656
0.658646995183158
0.659980741932152
0.66547731300047
0.670260143768655
0.681241465223668
0.686545934789025
0.6916450282655
0.69770873245731
0.702855113360108
0.711699957094351
0.717880804955613
0.730819148298095
0.742927091480101
0.745087014193802
0.752140432399289
0.76183901993768
0.774539341038857
0.777358913595083
0.799760798194982
0.802890133579108
0.818338512892333
0.840360404534463
0.855274006007762
0.86886946815269
0.888426414778638
0.915000589290702
0.92878557147154
0.949268261318895
0.975064997952118
0.985664192475194
0.987278151210499
1.01220044713668
1.02197782572832
1.02757696489296
1.03166651891958
1.03771305272249
1.03679436557191
1.06227622201912
1.05900624587
1.06466633217358
1.05206370757986
1.05613349572183
1.05133238071556
1.04826622854802
1.02776355793912
1.05515218875204
1.04496525672
1.04193550500647
1.0396885244934
1.03977892639905
1.05496822221852
1.05453402906314
1.05285682728789
1.06665596724994
1.06421904025806
1.09451749430748
1.08340787755751
1.11100893224865
1.0993266812681
1.11706045268428
1.12259809949883
1.15477830521347
1.15063913533417
1.17038318841572
1.17036758197202
1.19088658995968
1.19829500440004
1.20292717441807
1.22639444460186
1.26719531754778
1.25436308807029
1.28772134828942
1.27022254244758
1.30292545606528
1.2982909380062
1.32112385606391
1.3148615349754
1.33531253391446
1.36095819388425
1.38072226793031
1.39922034228046
1.40056905004433
1.39013672924056
1.42826904419577
1.39847890362213
1.43078136090825
1.45249923626186
1.49266629755138
1.47001264469048
1.45913024341359
1.47555996274706
1.5256284373237
1.52748038873387
1.54614394201858
1.51664364737198
1.53195034411859
1.48643486493922
1.48478683785956
1.44469034630923
1.42418274967763
1.3820245071643
1.42169166663268
1.33753269276028
1.30128595556727
1.25258530661856
1.23047198835007
1.20556126638083
1.16493963550617
1.11919238430224
1.10386609072214
1.07235144772822
1.05936681837727
1.0432305792709
1.03130341397424
1.01190538427185
1.00676948655615
0.977369104651214
0.972608664249954
0.960522876781937
0.952569104503926
0.926036930286943
0.916553898293775
0.895379586223566
0.873248900766081
0.852489263417833
0.84005104914993
0.811616720539654
0.787057319637673
0.761111272413697
0.737558892108992
0.709944915004789
0.68116346280836
0.653036298870125
0.626907725611587
0.595613729248583
0.5724929795036
0.540836243074192
0.516352521817642
0.49151305458479
0.472814575382121
0.443182014912053
0.421770856884507
0.399363306750959
0.384005210208206
0.36234933212718
0.344200525365887
0.332005429893338
0.322141805021619
0.304199048387473
0.298608596409236
0.284530300827787
0.279533101926779
0.268467756368324
0.262506558147453
0.259669606780515
0.251182534056465
0.24665490803179
0.248553035435382
0.241942711078277
0.241484916048027
0.237027401321368
0.238465727933877
0.237049811911651
0.23750068120193
0.234942709513426
0.23726983409486
0.24000628413265
0.240214659105542
0.241324941623815
0.24367295634618
0.250479002148948
0.250242106489074
0.250755089007767
0.254415810300583
0.255728196919729
0.255481511156059
0.255900576917884
0.256762312195293
0.256745202723786
0.256354104320058
0.258789997262835
0.264586274809948
0.257431576770883
0.258401974065291
0.258190224764501
0.259027863074994
0.257338316239498
0.258829308474309
0.256107725460249
0.256404607686698
0.259003918216663
0.266914118214385
0.264024495842173
0.267395829992279
0.268509982753317
0.272483489583944
0.269218603073626
0.266120723113352
0.265223603909048
0.269532341835066
0.268646800999762
0.268671637902394
0.268540150097188
0.268620378569182
0.263469856107452
0.269433436808207
0.271249107063638
0.268040802907433
0.262085015358951
0.256929290886714
0.264624937210164
0.268263449749125
0.266363987512339
0.269199839923547
0.270906440994945
0.276587023956572
0.275862963584685
0.283505569498974
0.289036498968055
0.285887173183733
0.287274992586972
0.297477272735542
0.305903366133038
0.31469509705684
0.321605211560601
0.324905326320672
0.328151015505147
0.333721628198545
0.330577062179886
0.333091683121418
0.332263740582734
0.324100112228924
0.321604604925979
0.318253720267681
0.312632325897596
0.304766079750976
0.301688202179211
0.296001088369345
0.29357722239824
0.287950241120463
0.292941163492315
0.287153788960333
0.28529854996752
0.29146241539263
0.288398824309198
0.286357516147188
0.284307102948302
0.287755091433094
0.287722646298506
0.288464971887919
0.284469827194752
0.289937770931638
0.287013221870955
0.289223005005176
0.277808064070524
0.28676358063423
0.282200448390879
0.280183248221911
0.275239425491689
0.27261218344643
0.274224667232475
0.272906282992416
0.272727451569347
0.274369769337354
0.272881509433677
0.267177571316005
0.264781629105216
0.271824037560903
0.26705938601171
0.274109444724621
0.268858800767629
0.270395792142281
0.271190724413291
0.267677031361743
0.255963574230017
0.27087237877326
0.262383896963688
0.25952457642125
0.262993599349189
0.259909922676605
0.262873280726307
0.258882912234211
0.253838247342313
0.255462310727291
0.251646506820721
0.24625643490731
0.248843660889231
0.248742798487658
0.236317301885682
0.238545457253394
0.240547326249305
0.228742005943846
0.221872458102703
0.234382948336796
0.228026800785384
0.225359149872507
0.221443624225948
0.231477423933164
0.227271088611108
0.232388039227045
0.222361090858446
0.227203850116863
0.223532381251376
0.229314373926241
0.233742666651637
0.234821195648225
0.226585550275858
0.221514367945923
0.23148735197796
0.234458135559749
0.232548973933256
0.236000552787236
0.225310958954808
0.240045231374457
0.23740143421232
0.235674779643586
0.243779900062641
0.251693494161089
0.239318558670577
0.249401532269061
0.253641976756919
0.256795491812807
0.254912612351565
0.260544856612703
0.264723253709408
0.267920654757475
0.269565169033392
0.283407987806377
0.280821811929104
0.28654459924961
0.284442408322413
0.305406889089517
0.303690613151684
0.308389550034856
0.318717546996545
0.332467173380133
0.347347935001767
0.369034896320612
0.362461348573477
0.375979807425283
0.351328859719694
0.399866783539411
0.375850664265318
0.379291021541589
0.39972879581846
0.394018777187836
0.397750050217961
0.398841092159518
0.394441549686237
0.405469552733604
0.409599220966837
0.397477606819483
0.395357701366268
0.401061721882033
0.388881925452387
0.401761584676444
0.403283198994203
0.413829824342761
0.388937832132925
0.418029620667693
0.390966087631283
0.413906881158028
0.373402547650771
0.387501144438348
0.383426993229219
0.401724743387909
0.381321379048792
0.396926668267832
0.379423730711707
0.379872039876024
0.372697719965652
0.366762301595496
0.353164106994658
0.376884086146812
0.362986727050275
0.362577998703917
0.352600273548697
0.382341624030607
0.347935351599976
0.374209276416452
0.367084355084427
0.376930958541837
0.37996915760773
0.36330767561623
0.391458840716109
0.367816448698343
0.352979320578878
0.341229605074154
0.35961173480938
0.370785061633426
0.353378548546145
0.351177629020688
0.362243910114348
0.362042680596556
0.350635121354266
0.369825199813681
0.369302328504436
0.361488223963358
0.345051126202121
0.369370115966046
0.360521378699426
0.381573186511461
0.358466360921197
0.374237011565128
0.368174155354232
0.390039585615761
0.366492105667406
0.391739622184269
0.374309179653007
0.38376017508233
0.387555607473713
0.378430186586202
0.390016569224546
0.431337280506015
0.414326937857032
0.401400676871402
0.407153745200497
0.436100870983246
0.422460294766513
0.444227701975446
0.455469470015057
0.478427432080262
0.389475915174232
0.470132170223117
0.417570199516745
0.50286918173723
0.477281323413448
0.496351045060939
0.467859154996588
0.513121379316882
0.484709179411102
0.51768002602418
0.530436020355867
0.541769517520346
0.472102185562627
0.516311498795059
0.494287265675665
0.50263567135253
0.486482616962819
0.505439973339551
0.526770340658513
0.478615463002987
0.474031685020962
0.486264479133871
0.48435262403148
0.481239740149664
0.429499533715076
0.529354787193186
0.524316873168776
0.54128203598069
0.43455825866234
0.451881406833163
0.422073160924668
0.449111043970617
0.415221426421829
0.520727165498065
0.422327546453727
0.538344355446334
0.459477538252115
0.419355948807828
0.44951324218074
0.508632040988283
0.476242164148418
0.607276139151133
0.523609685585443
0.609962072036011
0.474734600124511
0.505477488270547
0.366131537059836
0.612506778433982
0.559044179302024
0.478165888182347
0.485100243281576
0.487406549543389
0.483664050387691
0.493186652567315
0.433110586304895
0.544431685501118
0.659960363053845
0.543310027675065
0.65534945814295
0.502968203539542
0.651269014115065
0.622909264730101
0.459054615744613
0.789803824687682
0.493762276371577
0.912859407124367
0.618088414066407
0.60711201920198
