3596
4000.36533379555
650.420452594757
1
2
2
0.0646018451799786
0.0608926886624245
0.0683967332843468
0.0681272002306652
0.0632893344073265
0.0730115247447723
0.0727880788780749
0.0639509185744829
0.0696048678581161
0.0747690147288975
0.067585294384844
0.0649968547452438
0.0617217740563284
0.0670789198662016
0.0627062708296391
0.0654896962862693
0.0621324181102957
0.0583592220659424
0.0619527086201102
0.0595339772133031
0.0629674711151553
0.072917096567638
0.0640784243134722
0.0673403883864121
0.0662016296032651
0.0581939677648677
0.0627248005905455
0.0584410256291348
0.0619456803437782
0.0668841580459522
0.0607629917254131
0.0646137878998071
0.0665216717666773
0.0596695467119213
0.0589775391721923
0.0677805617512633
0.0603798496601158
0.0552248088659073
0.0601188651806609
0.0659141294475088
0.0666065616534967
0.0612491867346728
0.0636946982369461
0.0666475770903695
0.0673980680896204
0.0679744717114885
0.0718744322213126
0.0592298268663246
0.0617991160250258
0.0680336745784312
0.0630155645390323
0.0658903434639167
0.0680232857824329
0.07331682380608
0.0616577898885159
0.0701602871842061
0.0640808778458582
0.0625287631658019
0.0697563658270187
0.0631725946326085
0.0703459978729525
0.0788558781109161
0.06324798644664
0.0662846115139615
0.0710056161118758
0.0667891390809591
0.0686212620345383
0.0644502983067909
0.0558161597275202
0.0665339593239387
0.0511192584070224
0.073503503247935
0.0704626209226221
0.0581265467482252
0.0668882277039609
0.0740502224666846
0.0552093340556232
0.0578335760482633
0.0483843339852097
0.0636334576259021
0.0639439845258382
0.0680494669896393
0.0605030728032912
0.0581211069303732
0.0551408250704367
0.0729062690516926
0.0554574654705473
0.0571835272224839
0.0693125872135193
0.0703113864865084
0.0573190675548813
0.0622151955961421
0.0539465217092962
0.0594386507988314
0.0510097260845296
0.0574971548445921
0.0631486230757404
0.0665135718300876
0.0499030902992599
0.0672003268478324
0.0520313205851863
0.0537885142238846
0.078952941656955
0.0510101808286778
0.0889166828586188
0.0634370572357569
0.0599135320324664
0.0883834700836891
0.0687216962804406
0.0703503934208826
0.059448916905355
0.0634470340042262
0.0617671699239285
0.0600468355733222
0.039683039009961
0.0777877717345754
0.0799389253345606
0.0657333282282981
0.0571172278051818
0.0633961302761387
0.0343764106500928
0.0768143379427235
0.0875805495700935
0.0671781823721536
0.0682224488712072
0.0582559146484346
0.0418120123824528
0.0814112513809059
0.0808661916104108
0.0603189021261449
0.050668653226834
0.062486169264138
0.0486406902801642
0.0470557583434456
0.0824540773377431
0.0685122919754534
0.0605478576817874
0.0419608636852656
0.0614189895303576
0.0928836259469211
0.0593213936859415
0.0590073851517647
0.039802491606119
0.0479854687692399
0.0838027759115891
0.07091844022031
0.0451980054830592
0.0759810529421061
0.0604613835770785
0.054483885993789
0.0491582012799019
0.0472732964164255
0.0648204553515375
0.0619987211057115
0.00504417427312855
0.0770398531341272
0.0957050126509547
0.0797346486969932
0.0959502715865182
0.0600074658261315
0.0540281402338046
0.0480038940739972
0.0551925814396947
0.0508377389820608
0.0587637582841177
0.0424438887562721
0.0615198993769624
0.0738706661293103
0.0582506922570759
0.062092250439501
0.0751968401439053
0.0635007376696097
0.0398307992103651
0.109382583476578
0.0719023750947751
0.0505062655361265
0.0770682751575662
0.0732944548028744
0.0369971667670779
0.0544344400430058
0.0655504003478199
0.0543576023154341
0.0554379079945855
0.0472609283141083
0.0462324188251316
0.06680167754924
0.056003745111664
0.0565510829818486
0.0590133567525991
0.0303967386219872
0.0487546662479805
0.0942790200011564
0.0752442803232514
0.0580174591747278
0.058618714325547
0.026515470374932
0.0753021397242553
0.0813570529264965
0.0538896089158993
0.0572276474017531
0.0413643107806552
0.0516455369942829
0.0493279421162758
0.0528682008823067
0.0391576653579209
0.0251532038662304
0.0734238234769658
0.0690161922018585
0.0579001356020901
0.0471256353306048
0.0560301577138496
0.0343169417283335
0.079099515842664
0.0803041689469252
0.0560561272707739
0.0479455761203729
0.0360208450183096
0.0680955596277893
0.0637133486998535
0.0481046246874523
0.0554142184717712
0.0488165786009211
0.0474724638329538
0.0518877166348538
0.0455273195891125
0.057859480521321
0.0519019692653284
0.0539577499407275
0.047110631471151
0.0517652398669855
0.0552949317129142
0.0561797294174253
0.0510191193108968
0.053990579300506
0.0458853292053089
0.0617354930351502
0.068541773547718
0.0603671651199614
0.0564233370439097
0.054190524269725
0.0448211406589865
0.0509391540673421
0.0487422553629043
0.0568627460408994
0.0485603592407549
0.0420043091778591
0.07630037817606
0.054909897464596
0.0566581291946433
0.0404629342731869
0.0697401429450349
0.063346130879702
0.0529228873444632
0.0533816483966543
0.056143986217339
0.0488902113708378
0.0542162403092405
0.0777619709250129
0.0602257479528723
0.0514184801081985
0.0655578688173182
0.0571057941973366
0.0552931051224807
0.0387429699790476
0.0246151303643265
0.110866853400494
0.0589933021562898
0.0403436387468498
0.10520554824028
0.0676471984252154
0.0660554519748275
0.0461266350236981
0.0118918489767148
0.126278697690651
0.104231292863565
0.0614458007109508
0.0528486335151936
0.0701436602679094
0.0529482088056252
0.0611467796369672
0.0483727000761206
0.0633700114737247
0.0716344830784298
0.092212013775368
0.0994734747561987
0.0420973634640633
0.0760465518839158
0.0802653593949097
0.0645174287726089
0.0565019348389179
0.0597607130663636
0.0423803395820332
0.0706867201883714
0.0613628354413708
0.0757586850704854
0.0618669068961477
0.0564037380068874
0.0776181781135547
0.0655119666407516
0.0549810510867453
0.0594796258887805
0.0668174866313171
0.0522531957086585
0.0634175276118411
0.0532097319234241
0.0749866235234067
0.0512208649477711
0.0506014515564711
0.10498637689851
0.0715607184114452
0.0668002312258964
0.0810414568657991
0.0675182009821901
0.0627633932804382
0.0626312296504706
0.0657227810766827
0.0626535051818382
0.0550823130299191
0.0494619616650218
0.0867101045913991
0.0675889042490827
0.0671422974308235
0.060913657095638
0.0677165840683005
0.0580994358711724
0.0690901592232912
0.0610034564816938
0.0686886066280089
0.0609226057313556
0.0565910020037159
0.0726182600610347
0.0963434851616679
0.0539886818098978
0.0986869117465985
0.0929303969692365
0.0792369964977396
0.0723908132870365
0.0752386551681098
0.0740591902700317
0.0766475595949226
0.0756170053554383
0.0719162197294204
0.0815483508056466
0.0925816351671156
0.0892846161836477
0.0790018252168611
0.0675276203079773
0.121716779758844
0.127364978470544
0.101314062019017
0.0926086374269277
0.0676469497886981
0.121464020025161
0.101139076884071
0.119693617059545
0.108414902543738
0.0969524179051804
0.100749099652463
0.0901099604094294
0.105616283492585
0.0977770252131014
0.107690420964487
0.0968165127215457
0.106578581038657
0.101799115630542
0.117518045904294
0.100025629191613
0.118422251733977
0.143989901019523
0.129425361136911
0.117604985732712
0.117842556352013
0.100529292114412
0.153558528201961
0.121720221497807
0.169123461573364
0.145323470054127
0.154140542815652
0.163710212969359
0.142883945809468
0.132781977746524
0.130642380861351
0.136097187430401
0.142203570869163
0.141991204049073
0.151970438372101
0.145903761216233
0.148355530006405
0.154994184061093
0.155408980307491
0.15637604903358
0.155377616039019
0.172887126531139
0.16580722258083
0.167673168536762
0.151173587490367
0.164804025636702
0.207256136641352
0.227829356922168
0.188541555964751
0.176896473059356
0.186139465084272
0.1799265273635
0.191925842249358
0.186876418659571
0.197253648239086
0.18793045588135
0.228685189363004
0.206849146962836
0.219252976626039
0.222787722223257
0.202824119230423
0.222575744868499
0.22588994543105
0.2160738967626
0.251090665772007
0.225139581789206
0.219923360285541
0.247803589735361
0.237280205984986
0.238859093958259
0.25809874824884
0.242722097251604
0.237072456762867
0.238963508194043
0.255321877260194
0.242474873167781
0.265222339866147
0.244737026249943
0.271199889175157
0.26629898875862
0.269943104018453
0.264389081533883
0.311807118278524
0.282430821194121
0.294421206091348
0.299325538611769
0.284620577900389
0.292201558424872
0.280326125611757
0.305461481306855
0.323025115141842
0.314489532347953
0.325994720845325
0.317658593527738
0.317561442056003
0.313334356530892
0.325185939852256
0.313280164252724
0.336574809134369
0.328944546217316
0.359727952612594
0.34395672369742
0.351476179234244
0.336096702762778
0.351097539367671
0.352776615762049
0.371035654750921
0.353733595978745
0.372663535557042
0.369413665246344
0.382666318756891
0.396724648493581
0.399452645748555
0.396885610088836
0.403334547743836
0.393353686078368
0.405625436423571
0.414190521879891
0.413391627247311
0.404490501808081
0.4374509372959
0.426462989320985
0.421439610255979
0.417196888896753
0.456767144475331
0.437895105727943
0.458334368896087
0.428523343741689
0.476389200041479
0.451339494381436
0.488194152077049
0.436903698375969
0.486951687673275
0.461997575714997
0.509343766394645
0.458242673647378
0.497013113450471
0.497304942505476
0.516072480832578
0.483534083846339
0.525132889462035
0.499791096582006
0.541061214170008
0.505093564453161
0.529691284560392
0.522595215417183
0.547955122671687
0.528763267774685
0.559211756602096
0.544310898645918
0.561954383641789
0.55892031076011
0.549278767726349
0.569087213328008
0.563059313939001
0.572887864135908
0.586651699488891
0.573458150169222
0.604191972899038
0.585686579697477
0.645278735683663
0.586047250543507
0.617829116169622
0.599266487394413
0.630940172774685
0.600971966114659
0.63897821333672
0.630081531908956
0.665996713346876
0.630071032504848
0.669051267884128
0.632997458852318
0.671335856955663
0.656824114871737
0.650243034134587
0.656098612159906
0.695085768036702
0.638695796661161
0.699658541065806
0.684123915937679
0.715793361565172
0.717659400717395
0.747214636650504
0.694054577695548
0.724547669542236
0.682505838070157
0.739456984257968
0.697617278415665
0.768351551425271
0.704716054905123
0.776315580613929
0.705538066035676
0.842985576384679
0.733231370196407
0.799230998825726
0.733067642088449
0.81775149845388
0.79646136956402
0.780463345465391
0.725206525727875
0.818061086195107
0.799343525438198
0.833503182247057
0.770082595142139
0.863220174139422
0.81098983350882
0.815522266678279
0.785915018873401
0.831061728062473
0.80154140247585
0.874763915998196
0.811516800466405
0.927573600485358
0.827333220153162
0.901024950961093
0.812856754191217
0.883561133252272
0.817381862209389
0.851464082427384
0.868460647588589
0.896782542318095
0.893240699995235
0.906910845729403
0.900196194242274
0.969423619356133
0.902643822947214
1.0428831791799
0.864997254322145
0.99576974498392
0.870380148469176
0.985415607507084
0.917052951478061
0.947588436130104
0.897062393246514
0.996044621329255
0.890847179212594
1.03072113462082
0.948575202716911
1.0123859605405
0.899511008757051
0.980727531015598
0.947952509033641
1.09537502792818
0.989597594680899
0.977945538109449
0.941461150900004
1.02036798970755
1.02007291732342
1.10068756695001
1.01388818030482
1.04802898269865
0.906114254875209
1.11152208721855
1.02872432939631
1.13495398699955
1.01589653867838
1.10299350470289
1.0213895746505
1.15697496214558
1.01940216384982
1.09639487560414
1.12566585763147
1.14192870352458
1.10045604023926
1.09013151980824
1.08195014829434
1.11966318768648
1.08247077709659
1.17627556178117
1.08042698627895
1.10588660705428
1.04940160365301
1.18625217258908
1.12441786432984
1.25620317341573
1.07650083214169
1.19353590144422
1.03959506929505
1.20089051081689
1.12184104786615
1.23207232238118
1.08804838788715
1.23626089664066
1.09704826491179
1.16876010642779
1.11244776950921
1.18757512870305
1.13192277513103
1.18200073637601
1.14347844193097
1.16693894811142
1.15590543029589
1.21459648271747
1.14300649550249
1.27743334715367
1.17001974457382
1.33084079511975
1.1281055798417
1.28048786735502
1.16930355417461
1.37664876639996
1.15894698532981
1.45187110331987
1.24554300970167
1.39527502422229
1.23053809489757
1.36329211305006
1.21002510084171
1.4440722993241
1.24005660505478
1.30165013977417
1.20497944736033
1.26283612330823
1.20570752052183
1.42340630809807
1.31088570818247
1.35731727245248
1.18666224334734
1.3236056354985
1.22721316520044
1.37396029424552
1.19185962382836
1.36742747361841
1.19401297901214
1.35283298853611
1.16700229684844
1.34705321753198
1.24976590166148
1.36956991179357
1.3176885457696
1.46475525916981
1.29955792732533
1.59167749369163
1.28060929106217
1.48982069762838
1.25830790598284
1.36948909081124
1.29592047094989
1.38876217008668
1.33664146893324
1.40088890967595
1.25134447740563
1.38848765563684
1.27582924029958
1.30548898243872
1.38106776209491
1.36880553828501
1.31645562069935
1.36598708723713
1.36977039859684
1.37289709669533
1.31313757041124
1.39499205937466
1.26720363137312
1.56959953961083
1.3206606424898
1.42737056729013
1.31296528589951
1.36191410736348
1.30702417464674
1.33748429353987
1.2028466160288
1.47284252720839
1.32939024385274
1.4533247414239
1.33856521937287
1.43794388247929
1.41974018811014
1.36962636503392
1.32118752818719
1.4641807638878
1.31611393969221
1.50519358367325
1.42905821399475
1.41895440806128
1.43879387381925
1.56474523182246
1.27788538083599
1.5096524826314
1.43212888524842
1.446004291913
1.40359269087977
1.43192339697235
1.31405243815871
1.37824934535672
1.3478638030084
1.52667647493776
1.42259458808509
1.50801073165339
1.30214289249402
1.43435466473609
1.31946840386127
1.40262315144595
1.35061103983681
1.36273576138411
1.31044379034811
1.47046463686802
1.29833907686869
1.45800784446239
1.24879206335455
1.42823884067816
1.39894844843172
1.4835664898521
1.29030645318215
1.40610180876584
1.39463408284085
1.60411663130451
1.29815456553079
1.48293515802878
1.36438936254278
1.39913190337857
1.37891030066982
1.55785532306586
1.31531542340186
1.4511123813034
1.33531831479564
1.40463891777353
1.33108679754213
1.46565573472344
1.46187642527362
1.47474963365789
1.36394837074643
1.46106808138364
1.250677580722
1.40288967672126
1.28519894079074
1.55226403401891
1.39516756606805
1.4752572320855
1.30746127728081
1.42947478815962
1.44375312955264
1.50627658042868
1.39113582577926
1.41635569479484
1.30124408241619
1.43187840882105
1.3482755011061
1.39081679843593
1.34342947623595
1.40927531405208
1.37632243574909
1.32593004380744
1.28789421204702
1.39218606448654
1.38859870277977
1.33947307162205
1.3840321691639
1.44869536721585
1.40796892494841
1.53006761910266
1.24517376034027
1.43391931071411
1.38987723845453
1.40056002296365
1.37059479998714
1.3016006940151
1.3048194161561
1.42971643886059
1.29953224102518
1.33444299374865
1.34224148331484
1.3049119837535
1.28562261622621
1.33369004433131
1.34235037488258
1.35996624812492
1.27533405011197
1.35765842007226
1.34445161804147
1.28866105583371
1.24353220766384
1.47307288017044
1.28316085873541
1.41649470532237
1.22858516652268
1.39679850857046
1.31739884175861
1.35609256191201
1.20340391677653
1.28141841401042
1.32447237386546
1.30816333237277
1.26676258692832
1.36193554930447
1.19568212120558
1.30711040403796
1.27869568227773
1.3577019190358
1.22480417358377
1.30985511055162
1.2175705531417
1.30183704624771
1.23090913601983
1.32100283940865
1.18610994016046
1.24580675184807
1.21270914863894
1.356481865616
1.15487574467569
1.27476788063328
1.20907223851295
1.24679796624639
1.17196041958302
1.19809751937443
1.13471464545009
1.23923556503138
1.22434585066231
1.20922147138874
1.15287530533041
1.19926552109607
1.11766449754744
1.25348684442106
1.15741298307227
1.22655514931774
1.1468706549287
1.21774067463537
1.09698746599735
1.1708720244848
1.1363419122609
1.19494350709007
1.13903617104212
1.12404448256823
1.13763985303044
1.15153462794423
1.06534623177767
1.13882081995905
1.08368380021733
1.1875310018798
1.10587146907505
1.12031616664923
1.09266419399675
1.13734653246153
1.08321004821193
1.133973412337
1.05272656152513
1.07093291733464
1.06604014045081
1.0799870245583
1.0029605122275
1.07742799672148
1.05295277390651
1.07393927263279
1.04261324527141
1.07059780790262
0.993739849131812
1.05050389800416
1.03363082148338
1.03824424939095
0.968532700706891
1.02928746393524
1.0040510766253
1.05286893041026
0.977012023618069
1.04900564596532
0.974742513168293
0.977918306337849
0.967747853043844
0.964161300003597
0.955186595456904
1.01683950317818
0.929937583137386
0.936725160252535
0.936009394662185
1.00727288946112
0.925741081975151
0.945397825687431
0.93400092179053
0.930855802838027
0.915220698213924
0.948207979138734
0.898651669597881
0.922753627762924
0.871910746344645
0.943726281292285
0.874690292237661
0.918394981259175
0.881133318534008
0.897913261933786
0.863287430338473
0.895347165863291
0.836437061315623
0.873269897127283
0.864237032268565
0.8791047360562
0.85101010238258
0.863933324188015
0.83052004932703
0.858030168163911
0.835471296902753
0.833449882421964
0.821225731322129
0.839810290702616
0.80919697072723
0.823347614490939
0.803277864607217
0.793537488337204
0.784238094953804
0.79964331582249
0.801909832644101
0.807196964267718
0.765653217322583
0.803410948922688
0.780010589749058
0.754572015904375
0.743645273089617
0.781426720647255
0.75140398022094
0.76279330003187
0.749171339226534
0.75956312772955
0.72342100808095
0.74841561063361
0.709911139844641
0.755219439314814
0.709022323043551
0.723762121604149
0.702078473114381
0.725367132879578
0.719454671099645
0.728389754508437
0.705801146798811
0.710304048677129
0.697446597128537
0.705870125537104
0.674001666701242
0.696077279258438
0.670625163213805
0.692039359928389
0.661206533400544
0.675507855203396
0.669372952663886
0.683209732644398
0.662220350613986
0.675487999615006
0.6515233065384
0.658441384289355
0.649832632921537
0.649033189432598
0.638065189162484
0.641160575655236
0.638140770418293
0.635860966353816
0.625379524713822
0.628978679577162
0.608615058390487
0.626280571429346
0.615009321485929
0.616401667891432
0.61345675896579
0.609693516393182
0.593937569824633
0.602608563540337
0.589000386356952
0.595209178214442
0.5710176493233
0.589831037380174
0.577181319563209
0.589017175262448
0.566100608089954
0.572677310661606
0.568740760906254
0.566491856975337
0.567887721685567
0.574620078881843
0.550676759116438
0.570452603082222
0.548787266520859
0.55432571367947
0.537602474604691
0.549689729825768
0.539367466376073
0.54209337365896
0.534548594854431
0.545900652460967
0.521044848863815
0.534358687264485
0.519975651153107
0.531731273563666
0.532455866967239
0.522982333657026
0.504987123991788
0.516088060592855
0.502514634923371
0.512773245508429
0.493668428970477
0.510285454456479
0.492848785520845
0.504965771017335
0.482990635471099
0.492240073821232
0.488423227012518
0.494565924162003
0.474931686615543
0.485206296829806
0.47809488992456
0.489748228003052
0.474712597407245
0.475232178283085
0.460772266649758
0.470526048637472
0.462509634940727
0.460620284185509
0.456384958020861
0.466308049717744
0.44855929152193
0.463218013070429
0.448932080466344
0.461311284796605
0.447951846280998
0.456315989603089
0.437287852341035
0.456636472990269
0.439924695827988
0.452348125205966
0.438885474463602
0.446153757930395
0.434664399034136
0.448342068955823
0.42874853223804
0.443356113107298
0.440862246318528
0.428865430847435
0.431388566248647
0.440889507542088
0.436446495377802
0.44151971959061
0.424800519775872
0.442976349065467
0.435436413808218
0.440756592725906
0.429732670885271
0.442663998854139
0.426365462712194
0.435001430050378
0.431265347296823
0.446771410457561
0.434000116486467
0.443725722438544
0.428209770784382
0.447175509456637
0.437666682235681
0.44365100161043
0.43860241723804
0.449436980558827
0.435017218026705
0.444037661859522
0.451549977593323
0.459602188686338
0.447676489256981
0.460711551614808
0.444927455199256
0.460827260941572
0.445416307833924
0.461174222612286
0.454775648437062
0.468810750560598
0.454079257583919
0.462152584330533
0.470755010434467
0.47712957343481
0.464632851188593
0.46806719140988
0.475213607042046
0.490151053957884
0.469599104166607
0.491386840880258
0.477655789877775
0.486253826389118
0.484641084902326
0.504082718875835
0.491702603912838
0.505784406461117
0.505018487547437
0.512602416336895
0.513831684763096
0.526823223633608
0.510237241794205
0.524283531483143
0.517395920825017
0.54223493419626
0.525977803393512
0.54764776802157
0.539869710161964
0.553255454494139
0.548656109719663
0.56195536900053
0.554202625468939
0.570722470736225
0.559327437710244
0.578001935747739
0.579314215556638
0.589999316796082
0.569479257529123
0.589997186110743
0.577877880248922
0.610894401119861
0.587090436341473
0.607611037161801
0.577317736681429
0.601623209570716
0.571599941191675
0.590864704539744
0.591654299565477
0.60160891640523
0.584813948847382
0.596117463349652
0.57643003307649
0.58859543234879
0.577066920765399
0.592973910307851
0.579963376690543
0.586640097647273
0.569424225212584
0.579517987917766
0.579813447490036
0.583792075813598
0.574232277877165
0.585531829874673
0.55842117320793
0.580513808057664
0.56767810851345
0.57295205101536
0.563415483837565
0.573862300651677
0.564250141730892
0.56592954258144
0.559778743858426
0.576678825139802
0.565910517458425
0.578640227909188
0.561270930871055
0.575186529000721
0.566817918746206
0.580973292637324
0.565066206713395
0.576794137163693
0.565830032620694
0.573527003876622
0.570448552807705
0.576993892364593
0.563534959137532
0.57594058546431
0.554481008412312
0.575678310702774
0.551020610258322
0.56924700622539
0.555976120205298
0.57527063105458
0.549890471154967
0.559970722247648
0.550908599628276
0.555571791114525
0.546561729811923
0.555087938048688
0.54049624271305
0.543619121859042
0.537150595397753
0.539822266633848
0.528685583784619
0.529240334348793
0.533589378123448
0.532355534030911
0.514697198645635
0.531533082860443
0.516950210127723
0.514684976135135
0.508032308569668
0.519198577694298
0.501439925060626
0.503064174635649
0.485910877315882
0.499668633494584
0.497133926706683
0.498197099797348
0.486522029567685
0.487371677880911
0.46252721197157
0.48193917956121
0.46513618396542
0.465451481034516
0.458509700771166
0.471988552961772
0.454086526982326
0.456692578530825
0.44777628093886
0.451778119026477
0.442792063812079
0.447236702552228
0.433662660910937
0.43861999142822
0.430375200406566
0.435696152166093
0.428179358679669
0.432037753514616
0.423597025642679
0.430282887197614
0.418924094303835
0.423387799252752
0.410302496362052
0.416214194504752
0.411947520449318
0.415428602277591
0.408068460358846
0.417674312093417
0.397734865111064
0.413169897796554
0.403065142022797
0.405760120243975
0.39718302612656
0.398809559882918
0.392392583639755
0.395430828666326
0.390399256732567
0.387984184138336
0.379358584103048
0.38609659222832
0.386330889624842
0.385778971373976
0.376769977704154
0.383483777545328
0.375818179667811
0.379516785631865
0.374754960285775
0.38294023869135
0.374122170553379
0.377423391591389
0.366108172701715
0.374136913844405
0.362822489336465
0.368229631697737
0.356403674053676
0.364912533334859
0.356391325373977
0.371288487127159
0.358394951248459
0.356594924509259
0.358056553910343
0.354481969696101
0.348239053397237
0.359395485718215
0.346729811463329
0.354749741124865
0.351462205532435
0.346200476348515
0.339392871591554
0.347370964310798
0.338865013509199
0.344535717871213
0.343248464988034
0.34615740983564
0.34137748445206
0.343916032551448
0.338478074354627
0.345557762318149
0.335837870438443
0.334982811265989
0.332056435132379
0.336438579236659
0.335073930740762
0.338726949042797
0.3293427055788
0.336907146723754
0.333391145399187
0.341726111041968
0.333336997059537
0.331219468112825
0.323492021676122
0.334918408638899
0.326172160364705
0.329780105492977
0.32493019541888
0.331898739172327
0.322342204972949
0.32654264606394
0.322203595629803
0.326392294685832
0.318472584807346
0.323353781464315
0.318762753036055
0.330071835545319
0.317129218513634
0.321334204931204
0.315108390751064
0.323500521141922
0.318949846433979
0.322405035594599
0.313866383048975
0.318819182222637
0.312964950781594
0.315523510613275
0.307900656051981
0.314569484129168
0.3096903346438
0.316181318655223
0.311453468459844
0.317852192593297
0.307518020775451
0.308102219198449
0.305843124832698
0.308866072109361
0.309257742305855
0.310388335618228
0.308191173873071
0.3147533240251
0.306557599090863
0.310635084325098
0.298276618752578
0.312980584005096
0.303841266734796
0.309740883436927
0.299089335846977
0.30995708580752
0.302328527375737
0.307998929225449
0.303171220434161
0.308626567071068
0.298865936802891
0.307588476133152
0.297795506162109
0.305842236673233
0.293455911390515
0.306091844802282
0.297290232005589
0.301370583805808
0.295916269713168
0.299796143940006
0.291524734090933
0.299162515863502
0.29171814719327
0.300314308903837
0.294044408656547
0.299337565872751
0.29141232354542
0.291996839454774
0.292078443235631
0.295018117949792
0.289675157855915
0.294151947555463
0.28773793108971
0.295105042614519
0.28566673048198
0.294135432637079
0.284512208257699
0.289894426812127
0.288250421214573
0.289336577426857
0.283709411835875
0.289395140965152
0.282287308607394
0.286448608743892
0.284703238792721
0.283879729674621
0.280268878097987
0.277798694341835
0.272922648137245
0.27878040732052
0.270667055944558
0.281960869414898
0.273121609387742
0.278346029766914
0.271015327794348
0.282897764698915
0.269021770999089
0.278075895651044
0.274114422331725
0.27899397338771
0.267788131705765
0.275302059691673
0.271512209873114
0.274355350641374
0.269073424714058
0.27272494009731
0.265361228241719
0.273652062391816
0.26840254310441
0.265550756294331
0.262208959706031
0.266528369831382
0.265266516833064
0.266588175027587
0.258044274768331
0.266780789838099
0.256600835230127
0.264319518884275
0.257906110631074
0.265667485980011
0.25872032993666
0.261636748255366
0.255697179430587
0.258827587711274
0.254345445593056
0.255518754677844
0.250437279734423
0.26103694662699
0.25373688293427
0.256503765516777
0.250517382141056
0.252036350028151
0.248568860384652
0.249371441345541
0.242102459633536
0.249852748741729
0.246796075372197
0.246413312406666
0.241183893298431
0.24623492115873
0.241617096664716
0.244196372515355
0.237626917853426
0.242300476692919
0.235728807306325
0.240986300084749
0.233552033801524
0.236064864010138
0.233147151192888
0.237602880787944
0.231090627189862
0.232515961033937
0.227739956920272
0.232947340585315
0.226057228047808
0.23149121005221
0.228587397511631
0.229508663663615
0.226815848331623
0.22644980347736
0.222613786557465
0.226343574183301
0.224181033368146
0.225409049879135
0.22033624746545
0.227085073111443
0.224450938197436
0.22163918668537
0.220530568865484
0.223372436737116
0.217474212654418
0.220308788116569
0.217600344880068
0.221920636093115
0.216513622763915
0.21790327638581
0.217566828300465
0.22005296735651
0.210915394363049
0.217423700329031
0.21103631035946
0.213211385461961
0.211737286085829
0.214960462812899
0.207742835735241
0.213709816997731
0.205686077685008
0.212141473644983
0.210309165693383
0.212760023630571
0.208386015428216
0.212739294531044
0.208664828866313
0.210637381998158
0.209311627523933
0.206713145998753
0.202270840681875
0.211269759932447
0.201609546906087
0.206101546309284
0.200029106867418
0.206716724194136
0.201263064236688
0.207459414627547
0.199514529633906
0.201901161066422
0.198924026574205
0.204010208491521
0.196833286281178
0.199623462160234
0.19704933357354
0.201529640150349
0.193373369993974
0.195778844119685
0.195894368382896
0.197904315636528
0.194245041155257
0.199724958170767
0.196743986523664
0.201488893264289
0.196456562847284
0.19499939148367
0.194493893275635
0.201290875674422
0.193827625339224
0.197157319700331
0.19500510160206
0.193363795605862
0.192245923696925
0.197132300870116
0.190755732425961
0.195863413936842
0.19186405611836
0.195689891013006
0.189374620423774
0.191136511497004
0.188892719342593
0.194904533169013
0.189413732703208
0.193025386038719
0.187756944844929
0.195661795985772
0.191893601599213
0.190970344235017
0.187690016762518
0.193464155146291
0.186845886505765
0.192657972884838
0.190293484677094
0.191543366515546
0.185388236985284
0.189247477021518
0.186912758712373
0.188119574851279
0.184389599784284
0.190011194236983
0.182812390689502
0.186146711496359
0.181457310773927
0.184305312659383
0.180270185118415
0.18614122418409
0.178951521097511
0.185086770019652
0.182829182576193
0.182827005374912
0.177244363082466
0.18301153617826
0.176041257805965
0.179184391181866
0.175043254454
0.179231711538599
0.17507487593511
0.177879198410338
0.172793345584899
0.18044185079066
0.17487618503944
0.177157804008017
0.174941868174026
0.178641706721799
0.174272328316457
0.178010723511676
0.17359394775124
0.173579212198096
0.172760712255849
0.177741771589182
0.171799740559388
0.174458210721345
0.172582908392508
0.172626444998617
0.171905399724983
0.173864340914652
0.168260544875193
0.175927332090299
0.172132945408166
0.172151662050064
0.168702025074681
0.172609390050857
0.168139929444094
0.172463086128033
0.16837840720199
0.17298437112877
0.168065099046246
0.17362734924172
0.170129632288549
0.171401410769616
0.166023569868095
0.169550956022298
0.16789327895557
0.17018722028336
0.165902537012588
0.170220672531997
0.163750828825775
0.167159596639035
0.160331096285761
0.165733966438742
0.159615218494347
0.162201971055049
0.159971351502862
0.160007363357759
0.159269633465059
0.166700886904321
0.160485994093593
0.161942541187263
0.156725335676478
0.159975796567963
0.156418978327275
0.157332061398839
0.154664547108043
0.158859655270385
0.152149404231006
0.15843870797744
0.152027905518647
0.154431258059658
0.153991353343545
0.157398909079493
0.14952765680925
0.151902629394043
0.151429956341807
0.156984780202305
0.1487641426856
0.15198420473468
0.150074093371198
0.151889654634263
0.149136438248369
0.150613801680717
0.146530673996053
0.151049319646691
0.14635972675077
0.148008122452969
0.14461598454144
0.150333630957392
0.145843686727069
0.1507317548651
0.141938778341673
0.144939742275382
0.146268461573195
0.14599526404617
0.142646539439948
0.144002190924536
0.141169614763043
0.144669884430322
0.141227608294263
0.144191849388062
0.138159928160566
0.143068252672317
0.136001284212618
0.140200811767273
0.135673682216431
0.145765502735079
0.136952331779877
0.137449996669315
0.133737818125952
0.138895900588087
0.133574703899076
0.139096123906646
0.135228495081169
0.136694960033948
0.130323906044378
0.135883218847456
0.131799272028463
0.13139068141762
0.13047355553163
0.134969492625399
0.130121216649071
0.135066357690601
0.130384501500457
0.133465116026056
0.127591657219465
0.129155486128427
0.125125549360331
0.129180144745703
0.126787110013209
0.129571538136314
0.127336480994171
0.129054210216339
0.126309880047393
0.128403001032909
0.122342315282816
0.128539249462506
0.121547422536254
0.124016906934745
0.121556904482036
0.125429450921605
0.121977208006948
0.125911025594237
0.120387756619558
0.124089189750158
0.1201392415929
0.127417445235853
0.122375026270192
0.124142217688113
0.11896095556386
0.126872885510958
0.122418657820658
0.123465154165429
0.121605373625105
0.123588033961176
0.120164200738491
0.126765202297364
0.119026582167032
0.125503875982218
0.1201233474875
0.124161903242961
0.120100369393584
0.123100417144403
0.123030940680087
0.128870530626378
0.121879595645907
0.123650452490444
0.110604714125355
0.111912475274226
0.107603355712048
0.115976977756757
0.111674169979283
0.122581948228389
0.109231091901731
0.111551985885376
0.111409696088152
0.124035064181807
0.10071239191015
0.117498120431413
0.106470086906356
0.111717998922295
0.113947279111091
0.119001687999941
0.105100795508405
0.117373866473714
0.111740390005003
0.122318826201128
0.106352372405495
0.120943722959428
0.111403693885298
0.116759229133077
0.104923403015241
0.121921707145679
0.102302511926353
0.116529006568164
0.0999016962896463
0.120505364562185
0.104549564170336
0.117567599802118
0.101907997694997
0.12249359119088
0.100495221523007
0.12291453866462
0.0988852830480034
0.120884040487421
0.0961160351078364
0.11638717375008
0.0953563262150868
0.117549080999166
0.100210394416401
0.128514200546605
0.0958159544417265
0.116805668347174
0.0925889733417931
0.122048671271918
0.10448205930787
0.121458892159218
0.0983917284479761
0.110177246910024
0.113467320845708
0.117029301783475
0.10812766804305
0.101897833136033
0.12458076708894
0.0993255767490786
0.122955713508573
0.102832901187548
0.122117617528172
0.095721989143357
0.126669989766711
0.101696249676259
0.117460624644351
0.102733364492169
0.116843921467752
0.107998465621829
0.10854922891668
0.11167064185431
0.107822618322334
0.109995351749279
0.108882759385386
0.110321603755051
0.109751234641979
0.107978975557142
0.111874793163201
0.106678458144979
0.110441749041492
0.106729454277397
0.110839691363453
0.105011250739457
0.107785896640505
0.107413404496326
0.107442821275945
0.10654869716456
0.108183112256038
0.106741848240813
0.106395114689252
0.106224647661458
0.106049358211013
0.106279729161774
0.108320523805163
0.104918772504118
0.106811552735446
0.108956457079446
0.106841479549428
0.106997671255525
0.109661001658124
0.105236191682314
0.105699418983229
0.108871429437726
0.110337713713467
0.106300820432858
0.106393590803816
0.10715167928575
0.107491508751421
0.107653290941959
0.108832544334907
0.107886867802658
0.109480837117201
0.110116610923747
0.108486353043883
0.108082171737848
0.10863756198005
0.107770068956613
0.108793164861864
0.107520709696719
0.108039286779274
0.108674646607939
0.108487298347613
0.107382473996869
0.109519740050742
0.10864739310224
0.109599070426534
0.108857582454024
0.107263257467436
0.105145740171588
0.10719497766625
0.109257752065062
0.109105585179411
0.108641755199656
0.108488485670479
0.109597187079615
0.109153930397636
0.110510665904481
0.109184365211763
0.108219705642313
0.107213663210125
0.108118464067074
0.110185715729987
0.109658410540985
0.106921819891431
0.106136316232619
0.110212030532988
0.110098409327851
0.108159259441303
0.109998818047965
0.108063470737687
0.107896292745574
0.11026184579942
0.107623960665207
0.10669131231715
0.110629194228288
0.109781466396378
0.109737644117127
0.109667241580224
0.111980616441672
0.109079618274157
0.108615487122432
0.108057098350536
0.109588715912491
0.110896634396294
0.111484499786691
0.10877739689755
0.111108100111166
0.112736296861906
0.112304991361287
0.109945349021255
0.112799153286345
0.111097087127287
0.111104110308095
0.111561409567995
0.113732619801893
0.113301815995254
0.114019522465286
0.111146191230195
0.111850797520766
0.11345976844566
0.114266767636567
0.114032422290339
0.113377297600436
0.1133083717323
0.114175837780091
0.112755261844115
0.11394559945447
0.114737769069936
0.111630860738839
0.113827165700911
0.117023552276373
0.116018021022636
0.1162499024224
0.112896738227484
0.114359149249526
0.11579204481666
0.115532278056426
0.113531995563207
0.112813402788617
0.112447155006708
0.116397388576031
0.114593877566593
0.114770459677642
0.116369480424062
0.116356183297466
0.113592499252712
0.118269921355927
0.116383604686017
0.114309722995113
0.114021432067594
0.11742248680543
0.116726627997882
0.117432792446781
0.116633058998415
0.118116545315531
0.117502398589007
0.118430009250387
0.116543111394958
0.116504851254814
0.118906043608976
0.121339507036315
0.120642464295665
0.121133590553266
0.118320284873127
0.118362655842885
0.119345701660894
0.121413242809203
0.120248254470137
0.118528957881206
0.119725776030733
0.121774614481118
0.119552096520271
0.119291660325157
0.119095230348556
0.120915688607094
0.119340756890065
0.118791238172357
0.120079269338605
0.121082638288286
0.120949658310514
0.119814516416091
0.119839154392655
0.121824439080166
0.119831472241425
0.121496742578732
0.121109945932763
0.119478836902381
0.117955124812571
0.120879574341499
0.11838196120547
0.119699214351001
0.118646810460774
0.117723153125817
0.116291339264649
0.118828375462914
0.117911585690002
0.118180151194235
0.117175748984431
0.117815152391965
0.117297906866901
0.115411341410037
0.114272504514601
0.115843935208091
0.113690273188452
0.115835005280758
0.115574765410999
0.117176298113767
0.115239816947824
0.114346182925337
0.114130100827693
0.115022647698635
0.114277564200817
0.115600367583016
0.112858253791044
0.114687876724582
0.11417430132104
0.115697405358177
0.112310396472768
0.115297779750986
0.114189565318681
0.11581045594532
0.112616808937399
0.114044989062342
0.114070465109876
0.113260368241172
0.110496693339065
0.111428698197124
0.112742338576594
0.112506149108627
0.110779629356497
0.113670051378126
0.112069691180633
0.111220188389624
0.109496465064385
0.113245316933263
0.110326887813762
0.1124191421165
0.112299921964058
0.111414008564703
0.110146101675983
0.109728617998502
0.109468514242701
0.112404821520236
0.111713122067041
0.112202678236819
0.112055217558218
0.113156671639422
0.112845474032107
0.110860993671526
0.10690319297965
0.110919592661371
0.10715920242964
0.1083222003805
0.108146126220642
0.111424574551334
0.108876568367484
0.107467692431383
0.108895948910298
0.109601879836257
0.1084892687307
0.108450826600994
0.109117074683953
0.109489453509568
0.104211963434552
0.108007242915054
0.106947101926818
0.105834421881115
0.108649546178458
0.105907687560492
0.107451637088617
0.110029727357445
0.106835871110085
0.108873445948658
0.105948501191451
0.106295443676357
0.106140732269527
0.106247598679608
0.105081092994576
0.105770046011676
0.10447182320575
0.106998887139156
0.104961036002454
0.10605293018925
0.104871389920122
0.104459243533349
0.103020096158236
0.105863959681809
0.104330838705661
0.105734058571192
0.103111060728072
0.104926862773045
0.102624166813721
0.103695098101768
0.103495954832961
0.105150376982435
0.103163917739835
0.103041908458027
0.101141131708279
0.100293284517402
0.100997439004628
0.102878992205026
0.0997876834439973
0.101328094530387
0.0996293283180843
0.100893739560781
0.101080427204798
0.100695540068965
0.0962704622228812
0.0979056980825268
0.0989434112159199
0.0981693441901217
0.0919942627566567
0.0950888687944655
0.0939456698937629
0.094748040716409
0.0943333035749642
0.0950321848452011
0.0919518667799984
0.093693493278913
0.0933109090351885
0.0941653949606683
0.0944731551432324
0.0935897863534856
0.0929356362440426
0.0924837240804571
0.0895281997365833
0.0905580563793552
0.0894573368573595
0.0896960453879923
0.0881683611476806
0.0898718352382972
0.0875510511195857
0.0888183541408345
0.0867628974509877
0.0889094340438388
0.085258269976492
0.0852393326689542
0.0851787115540799
0.0879322237997893
0.0853058249751206
0.0843218414982881
0.0821698454499967
0.0835462667839828
0.0837133289683268
0.0824583801658302
0.0817619140271442
0.0821530698484754
0.0837654335868063
0.0899634365397687
0.0841825735569555
0.0829804744890279
0.0829197055504944
0.08276609754242
0.0826044470991091
0.0825726393165425
0.0812929400562497
0.0835391739371172
0.0827428417811414
0.0815491159834415
0.0809618551582939
0.082423925261062
0.0815772917155505
0.0822809243090798
0.0804322375607267
0.0806367531864109
0.0801284283781054
0.0828647615707313
0.0795863559956116
0.0793174147964864
0.0802837605918911
0.0794549717120642
0.0796130842233601
0.0800117812211107
0.0787283152266223
0.0845532462154403
0.0813494944207588
0.0814953249632741
0.0795879915573466
0.079467805271912
0.07821236028492
0.0789569826786655
0.0787825694669085
0.0776788288049884
0.0773241846953459
0.077905844349191
0.0783309183385083
0.0778197186388512
0.0752478866143692
0.0759723945811539
0.0772841536974336
0.0771526150863683
0.0743760013087977
0.0756562456400694
0.0738267095278173
0.0769145005089961
0.0755075199138705
0.0759291843558481
0.0767851801235891
0.0773634653620365
0.0740704482866425
0.0787256039814111
0.0860888846994922
0.079825407222974
0.0745877486726802
0.0764038268409777
0.0735578732955891
0.0737445812737698
0.0740263864286569
0.076782513725811
0.0728849167404684
0.0744994002112328
0.0727771247156988
0.075500365887346
0.0737442377278111
0.0738851164927843
0.0733617651364999
0.0740392641371398
0.0730909568655284
0.0736879286870542
0.0746096791678294
0.0731390631238547
0.0721392121846964
0.0809620549183158
0.0773553807229884
0.0768181421658029
0.0740277518613493
0.07011510174657
0.0832318505029336
0.0830654557478619
0.0709797618250969
0.0760157022048158
0.0729080934985039
0.0738514903291793
0.0727873815550567
0.0711710295017953
0.0706434015132246
0.0768995696691587
0.0720285556646827
0.0754441529378371
0.0750186721463251
0.0718234256656898
0.0714845470730884
0.073032242251932
0.0715934517285605
0.0722206568404957
0.0714443637615697
0.0722600426956849
0.0696948855279128
0.0699811240443693
0.0726221583994977
0.0707519810258448
0.0692235857029712
0.0760620907266057
0.0711848216568561
0.071196382670757
0.0718698397043835
0.0709883641829399
0.0764386438470119
0.0819579447657818
0.0703019449594127
0.0712505102652548
0.0717388577561171
0.0703878328497468
0.0688661087906381
0.0702767576811309
0.0700409072612618
0.0725657694966437
0.0704631883329321
0.0723905711459994
0.0723069934936122
0.0712919608926392
0.070590447898762
0.0726831482074452
0.069620153963229
0.0709096872643863
0.0710548623486916
0.0716266668832211
0.0721478417560618
0.0710726037021263
0.0820256296538707
0.0889285847364085
0.0764695543790284
0.0803147155594608
0.0722834332017136
0.0716562702043731
0.0709820653564073
0.0703005038201122
0.0714941076897559
0.0721942769651894
0.0724315456034372
0.0735337461003933
0.0726224122854704
0.0719754849295691
0.0706373818642997
0.0706292314703214
0.0702122044476884
0.0728289635241915
0.0728071346779566
0.0707216176038363
0.0713493958853781
0.0704507510339919
0.0700532336746979
0.0710615472986466
0.0768137003581418
0.0722522244458419
0.0677014416666727
0.0808422628874673
0.0891140894390783
0.0759060420250422
0.0748463376052987
0.0729126556181449
0.0694720286051712
0.0720351574477769
0.0713409463355151
0.0779424428959868
0.0720838187818017
0.069834669168483
0.0736569322443781
0.07490749635509
0.0723269226007595
0.0696909079637201
0.0782073614162179
0.0933483826860194
0.0808013916871696
0.0764629566841233
0.0711535212294268
0.0764739733684169
0.0888676479953687
0.0791255097584588
0.0747702984150527
0.0763473802999312
0.0717566597367165
0.0776655633848372
0.0719646837381189
0.0752911801967101
0.0777179573287624
0.0776133868939237
0.0734346189822482
0.0741800867856035
0.0751241059329178
0.076402426395432
0.0753342043981124
0.0777300695185442
0.0802636858469442
0.0783848429975748
0.0775062016907278
0.0798392900076945
0.0767631015599323
0.0775584872713151
0.0765570952677229
0.0789994730198905
0.0837284698212446
0.0849487942575099
0.079256945951942
0.0842441824112101
0.0861241636372336
0.0789294574968739
0.0782568861905051
0.0859367088464086
0.084774737406763
0.077285532548481
0.0794245089231655
0.0969357123926715
0.0945360591932592
0.0875362828322331
0.0853205595623892
0.0768958876988111
0.08284065730375
0.0785002783042088
0.0825413569215767
0.0847670469224139
0.0893479070978674
0.0804123618341982
0.0830464021243333
0.0837645221858112
0.0914057273196909
0.0874307948969881
0.0836557854248759
0.0853668148930346
0.0839648941416852
0.0889271563311389
0.088177278484289
0.084300630437145
0.101937061351651
0.10261693074474
0.0949956607051394
0.0949206017692506
0.0910244824490947
0.103200656453314
0.0957955397930104
0.0891534525052727
0.089458202042648
0.0883024169752372
0.0864100513061008
0.0878269179946044
0.109024867651154
0.102847492265347
0.0916160269211551
0.0916211473041036
0.0909773615166512
0.104140955780466
0.10635637914847
0.0928499208686687
0.0956633005315198
0.09260915751298
0.0896366649557439
0.106795553967219
0.116959436251061
0.104968964507816
0.113143075261547
0.110165082009966
0.107919607756047
0.111766918949337
0.101692876938677
0.11065132162528
0.116068269076289
0.111066701193517
0.0990575781632063
0.114755108904077
0.123240300453985
0.116013210216327
0.11130457921741
0.112319041078557
0.103781106006055
0.12736360973421
0.153362540304113
0.137807066416949
0.11752660008731
0.120729766436521
0.129341474039491
0.127524757461039
0.119420900357882
0.124827404617833
0.121720200104018
0.123766301181047
0.12571428689737
0.132219368391217
0.128021071200188
0.129278735634641
0.129610940831112
0.130262643815786
0.13978166728715
0.175995640863126
0.15702819306994
0.155127762851466
0.150208800750423
0.160847530908496
0.14569894867263
0.149208511640779
0.145902660257297
0.151177088280997
0.15240427218863
0.15065283473106
0.15184714432971
0.165591784886416
0.163915193700303
0.17439906631682
0.175613976047642
0.176805964517135
0.16175875844022
0.188688128666627
0.232945265575146
0.220321042513294
0.18734169886187
0.193475962772568
0.193939193721917
0.237398779303476
0.218152904335998
0.209139985837882
0.212387439390745
0.214321752985864
0.225499891878604
0.234936235094147
0.235812960032125
0.245691785628537
0.244734955995178
0.249478066852345
0.253248380378893
0.311162574690945
0.314291133070093
0.29081734628665
0.28330297179705
0.295489006378276
0.306587045710135
0.300886555335201
0.309672830414159
0.30791558703723
0.319328828404125
0.354939709418267
0.348254202437718
0.329993813774585
0.361828880470113
0.355247089624615
0.367828379003945
0.377979792453105
0.40424601539424
0.380804349213572
0.384277171270702
0.394099005300435
0.395743385549547
0.400761878831588
0.430279531473376
0.439640174503694
0.423495280964999
0.429448654513088
0.439028500454621
0.439771429188494
0.445136372065798
0.451098113516358
0.456678253928579
0.463889981846146
0.501723057125262
0.58145505601644
0.517207755456549
0.477590207517886
0.471477571591395
0.468328785189426
0.488716187144972
0.499813493961049
0.508881883107492
0.509344466356004
0.47987962971963
0.476652990275365
0.493293450080108
0.48824187180339
0.483560118092865
0.477901762854833
0.491692508568375
0.498475668509494
0.489220784199561
0.489859177293727
0.543886219419406
0.49868097246945
0.47396849530418
0.48309923593415
0.465717058045769
0.476092337010201
0.464592140736083
0.471967218621368
0.480351437125584
0.471095826457607
0.456485389412065
0.461378535837467
0.45943860819691
0.479848859877658
0.448979717338217
0.432626551410098
0.436795483345402
0.434032045255771
0.422910678435608
0.424950339066378
0.454217828970885
0.441077739199895
0.405175085837206
0.415176383080257
0.400264508259716
0.407417208986716
0.40067235506125
0.406493396305015
0.397619828153448
0.397082487017527
0.391262748929126
0.392072570495033
0.385199087430547
0.386603152318896
0.380290099943726
0.383133401521595
0.377598374394754
0.379784106580648
0.372657385647699
0.370516687080879
0.364813692606879
0.371587152115498
0.371088297523616
0.377167410788975
0.372381200273467
0.369559374236364
0.368690021968699
0.364733793063306
0.363806348701335
0.361924606129889
0.359518622307482
0.363656156962587
0.358995234957212
0.362180607477005
0.360570578700979
0.359050357246788
0.359205243336686
0.359672889335079
0.356826367188062
0.351588610721871
0.359217861895219
0.35092584645766
0.352204522651311
0.369525167091466
0.37847103747351
0.356589895156307
0.34570911716737
0.349473147307217
0.337377409109948
0.345015379694671
0.352284451539766
0.364013404087465
0.333685577388332
0.336622942937069
0.329984395173709
0.342694272016809
0.336202642517559
0.332099282160481
0.321029442617418
0.325931091554436
0.331827801051854
0.387725818030615
0.356204879441578
0.379342738005311
0.345579861645372
0.311145203494366
0.327480614865304
0.335421780321836
0.329705750176926
0.302509419735834
0.313990755764655
0.316813160057538
0.322023865154366
0.309629445080418
0.30398489584729
0.300217386226513
0.311616033960362
0.323348051742387
0.306700213486505
0.310948977031274
0.330660444556744
0.313699308124677
0.300340443889344
0.354169778250295
0.318812158542941
0.292475668767558
0.290650052218281
0.284741223939275
0.295605697716415
0.304096431732941
0.295417720936728
0.287227620928344
0.275481494004971
0.270400601848646
0.27526453681743
0.292771089433698
0.272457992544269
0.282173467315831
0.277057658584778
0.281091923464606
0.252311360133234
0.287814775662372
0.291999952583104
0.305821747139259
0.268936304761316
0.256833130183613
0.279405135802358
0.283951285900755
0.273051279636063
0.264293551995901
0.255795559005054
0.260763543917414
0.262035003717159
0.25829408130175
0.255678495970595
0.25596400815524
0.265436752788056
0.263618290616591
0.288596746125216
0.29005328825354
0.261699300510411
0.248763345283834
0.244434950424016
0.256967619075814
0.244643016314434
0.249120057656227
0.250505507568906
0.257558832424405
0.259202983904065
0.263477593725137
0.268465872651486
0.25365750210847
0.255745610467702
0.256792448191943
0.266251075492915
0.28693198730968
0.294522269606955
0.280102811353568
0.276069268517336
0.283759548805143
0.288982479786335
0.276833980373523
0.291114797120354
0.286610933688784
0.296696724928209
0.300136446566045
0.311625187568056
0.314076260932997
0.319672189877369
0.319137355799305
0.351465191591238
0.347264313152141
0.349706997479602
0.338794684570347
0.392795647491801
0.382701475062866
0.395948402261349
0.383739254855128
0.392446243270258
0.396996907507737
0.403982155302289
0.408543512197997
0.426139317438538
0.435987170551436
0.440552412519065
0.424193518626557
0.444638194812222
0.436843709989249
0.4574038474067
0.457162807071271
0.483184605360671
0.485395023007988
0.494831614898263
0.481958033222512
0.472192360996882
0.480071647805644
0.478712563918485
0.485451633159148
0.478009472694749
0.476442421971706
0.482044401369503
0.499729985878259
0.496183502219988
0.485021507901987
0.492140816457141
0.495007818901373
0.497395083596449
0.499596074985352
0.501962442577124
0.50071079570227
0.513705435503689
0.504798905644973
0.522370402072648
0.554717371193
0.549040915597716
0.516948118826022
0.526393656808034
0.533998202580875
0.533067373081373
0.53730111101084
0.540590983384003
0.550834046267827
0.554451443351243
0.549971650005764
0.556034751755572
0.547726643902519
0.575059993679447
0.573077316701562
0.57444961607961
0.562255201660132
0.570947882399841
0.591160603759583
0.608740884706856
0.594912178339022
0.584311562141656
0.599520673279111
0.579359454514177
0.590422060408109
0.588025208351828
0.601656452295962
0.596506614802269
0.601248358037518
0.593161278570496
0.593201649936607
0.596084782064114
0.590936436958371
0.592347135411344
0.602288907470325
0.597449898009257
0.587413766235794
0.591804574141789
0.584298533029561
0.578550859865704
0.593669147608572
0.598113849563554
0.589761040825543
0.578404158198075
0.581783869926394
0.592719334899635
0.593437278488422
0.578819858245397
0.577124118436299
0.578940633236687
0.580397402014521
0.577761315492608
0.588396298302126
0.594205639344176
0.604312756295116
0.587672157766588
0.596732158037705
0.592972395113364
0.602203185919527
0.603250401085595
0.613115034683365
0.608192948014825
0.614353982214425
0.617856722854651
0.62356756708031
0.620404210617524
0.627424609646609
0.637474958348957
0.645466748542115
0.635518400434126
0.630622690871675
0.629180284606654
0.635657522394598
0.638159469093034
0.635141859465967
0.620984413876467
0.630103456922668
0.615082472884407
0.625526053831755
0.630361121472549
0.63245985441472
0.613275979573342
0.618452426316604
0.606978298816397
0.608733698388094
0.60315196885548
0.600960144579251
0.60087288394358
0.596622032242633
0.593772236204713
0.590277422005658
0.58689315670316
0.588392022905822
0.58610924484657
0.586646221708375
0.5809912506354
0.583412874921194
0.579815873687557
0.581303722062624
0.575943470178226
0.579578819466199
0.574298575000741
0.575610090629124
0.578936246141392
0.593464711668703
0.584578742179739
0.579793523221712
0.580148054247227
0.584533082961616
0.573455165811115
0.569563506878964
0.572078287272375
0.568414904563648
0.568688071579159
0.565024393275799
0.571065956304801
0.568315685979686
0.564787645890646
0.56225606692408
0.563493207415192
0.563014591810962
0.556793586232378
0.553091963989151
0.553810001909864
0.550204369305972
0.554532384529525
0.561186424697754
0.548222718747754
0.548133853470747
0.544794256993529
0.542388135982623
0.541670862921923
0.539206657780444
0.541864566952189
0.539690089420047
0.533986262760822
0.535647922462478
0.535291390620395
0.533995826229903
0.535470103443252
0.53584065741882
0.532457357852389
0.533928304860693
0.532794806733369
0.526362979735907
0.522633084629703
0.522673329255052
0.520655479397878
0.51876376593984
0.513676406266602
0.511378226823785
0.504275144007074
0.499048161114147
0.49708011545228
0.492849508474559
0.487661476244273
0.487521833689776
0.481729278509203
0.479109149338613
0.477897693260352
0.476497601850852
0.476492951445318
0.472331443775302
0.472889390060633
0.47311933093579
0.468569898157118
0.467780060935347
0.468529378594231
0.467799495211777
0.465698122484136
0.465391712176997
0.467230544847497
0.469631664047358
0.465167317424226
0.46655904851074
0.463517345374593
0.471780686725193
0.470577763452511
0.472927573905878
0.476032107676482
0.475030205705733
0.477022126703041
0.482178467915328
0.47883191303919
0.483693728163129
0.483409502305728
0.482673016259727
0.48404384709687
0.485227546628554
0.485000128960286
0.486377689610912
0.485369024239696
0.485765735447649
0.488368545654577
0.49231760113876
0.490254752414278
0.488030118944604
0.485047691503588
0.486514428423695
0.484607353002908
0.482334885018036
0.48093426301664
0.482017070983994
0.481510150843638
0.478316532430822
0.477521645751612
0.478917190289486
0.476824415600859
0.47339292960664
0.474069277731291
0.476551374638382
0.472331974386654
0.472434857991337
0.467973926485953
0.464684644429142
0.465770154575711
0.465652105874927
0.46328018049216
0.460997493994569
0.454773253389591
0.455212924300741
0.45184418217957
0.451601921023608
0.450197139296314
0.446511552215026
0.444609111929454
0.442645232671835
0.441299918163099
0.434693879435159
0.432341554876389
0.432633307696749
0.428784768338703
0.424946488135364
0.423427245973195
0.42056719753904
0.417697129841424
0.413282798632951
0.411679544124104
0.410938482817788
0.407260335677142
0.40535794632066
0.405050776141426
0.402333482348847
0.398616873464551
0.400200325761465
0.399166052854207
0.397250980551907
0.397911131638617
0.397553780744951
0.395160702326054
0.395863130077058
0.394387197676613
0.396598346470011
0.391953396633189
0.390704241281986
0.388138290275708
0.384587728840361
0.380711753149194
0.377774130393044
0.372708392060956
0.368011882550545
0.362732240313286
0.356808027657127
0.350803412138957
0.348206871329425
0.342402393581607
0.337107098925719
0.334624120543608
0.33297788528398
0.328478936604784
0.328072206208815
0.326771150316541
0.329699948617182
0.332928344380204
0.338675853561254
0.341950173287396
0.348460145662601
0.357047729129968
0.366982269631107
0.377277656906804
0.387989838723752
0.402199090342814
0.418509810181275
0.431599982213881
0.445794545135525
0.465179466966687
0.480825497915843
0.497932388728609
0.519216389923675
0.536691360811524
0.558150802967469
0.579405510789137
0.603856435851644
0.626157760619086
0.651047494681453
0.670258074181511
0.697946766501564
0.723012288364889
0.745658974393793
0.765275575600198
0.791153747504759
0.809951351043863
0.824262935904119
0.83934175538122
0.867549044932496
0.87404857524695
0.884628076715505
0.888487075331135
0.903633336924138
0.903378364125685
0.906080532146137
0.904332659387177
0.899935142990592
0.901255547877444
0.889449234252684
0.888768893776132
0.889931022823066
0.874491598634039
0.86468652008377
0.860522547999212
0.856280921038434
0.850142839053977
0.848334630486696
0.839735100503095
0.845467238326597
0.846900548149271
0.844168469146857
0.846839787286242
0.849015931415884
0.847436193274672
0.856146059954184
0.854836517697062
0.869053170379692
0.868610653472822
0.887877819991644
0.898005641537426
0.909613198228532
0.918694309474943
0.92009286597118
0.929834383016266
0.938307322730483
0.942442891786319
0.963474540254723
0.965383310935847
0.966453170012687
0.97101588910702
0.981257832422938
0.983426281178218
0.98291232369463
0.986707191485897
0.98643188276579
0.982486159188727
0.986792876995507
0.985345465394158
0.990046908233231
0.99609669713752
1.00029759730772
0.995831636239572
1.00890082902798
1.01576410174054
1.02291166947094
1.02889313712599
1.03781820484043
1.03615347815295
1.04335606828371
1.05813379200477
1.06419812306183
1.0673891404753
1.07272803365386
1.08368402858535
1.10704256161219
1.11304455527382
1.11356647329917
1.13442404132243
1.15180872491654
1.16543318287724
1.18577599907379
1.22009076378447
1.24804045984292
1.25553511593088
1.30722919774099
1.31113834435392
1.35904794068075
1.3660847213726
1.40321037229829
1.42104350016679
1.46033097557404
1.46061636139449
1.45430775043948
1.46348988945699
1.50709840148222
1.51171215600777
1.50506355715413
1.49446540356773
1.520864393644
1.47138954481673
1.47101644288095
1.47796563870087
1.49040329178892
1.43316166537603
1.45881758706079
1.48762611750146
1.47081835590879
1.46788853284221
1.48192937037049
1.48215452040777
1.49577880476053
1.47790287840762
1.53677350843637
1.50111739797902
1.586001600831
1.54335698169426
1.53968757237218
1.58194465581851
1.61870879884417
1.58992479165279
1.64569742695595
1.64442753914549
1.63387014967659
1.62093265796324
1.74340721063943
1.70318230884987
1.71856329477464
1.71664573611887
1.84583288589338
1.83994800036497
1.83008001897374
1.80429573201182
1.94473519371918
1.93808773969429
1.91325488824039
1.86401054074455
1.99259695156877
1.86707234708197
2.09688389663029
2.01495583373495
2.00781087076501
2.04225434298749
2.06041817454911
2.0138337968546
2.09952603529889
1.95252881538231
2.24612416774934
2.00045531214275
2.34572019667715
2.19924236163733
2.17649841805557
2.37879489065378
2.14246062764843
2.22149237926162
2.23039766736402
2.13431333444227
2.14965240252809
1.99823789143239
2.16995293995456
2.07168995605356
2.36739131249372
2.12013616499564
2.03214555219272
1.89354700305347
1.96548659642972
1.95552882862967
2.12524450531152
2.00966621775646
2.07522797353144
1.85015986437883
1.83414420258884
1.91381006040153
2.06176511544636
1.75185734204097
1.87903500206788
1.86857316734831
1.91409471078143
1.89685915425247
1.82841119121143
1.77248829535495
1.71567467358758
1.75380743894685
1.69968968256113
1.67663459261409
1.69962087617661
1.66120966203983
1.73105950513565
1.65141154929522
1.6777844745935
1.56146742853805
1.51549191192521
1.50707635677642
1.49207275426371
1.45161316778762
1.38426283902772
1.34615988920307
1.30379301530795
1.26521515568698
1.18263325276368
1.1129973754926
1.08954177534013
1.05508730084745
1.0089378162739
0.958456429864304
0.91155458566426
0.87110457110298
0.843784261596317
0.804004841312605
0.779773083249123
0.743184177429772
0.724753967966823
0.703970838925816
0.689694364449051
0.667857289076071
0.650155795287739
0.641056498202401
0.632287049698406
0.620910255723033
0.617014968384211
0.606737989060446
0.602747349356202
0.597763208003345
0.58907543886497
0.587560811138126
0.585495081009765
0.582386973104827
0.588182889227158
0.589535448096346
0.585692776069635
0.592602855558224
0.597379711026636
0.603294055911294
0.609336434071575
0.610841464642386
0.612099560853348
0.609901022353119
0.621783282865787
0.623455097474561
0.623458252789242
0.628495896791122
0.628604331249108
0.631222472861091
0.636125927214347
0.627055313856692
0.638672438195674
0.634043014662287
0.636661066603972
0.627841150868306
0.634603258226425
0.631033718208154
0.636569890073237
0.637060477292711
0.649815583342202
0.643172191706938
0.639645011477195
0.63249917023785
0.636109996551612
0.631233335193471
0.637233083341468
0.629109660791254
0.634953943116737
0.633356357891124
0.639513728134453
0.62217627144414
0.622083123394249
0.612240249002106
0.60369375376894
0.608624212254054
0.604048873620871
0.612842642271188
0.607317159396902
0.597915232864626
0.604626623610691
0.594184747146707
0.612732543957153
0.610243158455401
0.620951812426449
0.620796379259881
0.631302396151066
0.624070471199981
0.636946795622924
0.646699036528999
0.657747336835511
0.667938161651298
0.68087590605612
0.673181177045028
0.689342153753651
0.689196377311525
0.702440564461771
0.687013076459359
0.679528366355914
0.675198303355121
0.675101730735082
0.653060735404509
0.652731512442252
0.638512435680939
0.627428499310218
0.622716044554461
0.621035614765933
0.626985548050853
0.629725147126928
0.612588637261335
0.621394905995783
0.62843747241058
0.634243346027297
0.623022016684442
0.631218311349839
0.618595621043476
0.646285079734335
0.627197754115197
0.623781863610386
0.616296653732948
0.635355605454066
0.633148588069841
0.629440396574273
0.614721893856525
0.611939950355086
0.633700541661848
0.647269604015312
0.629709264114829
0.634991793505402
0.625286411204438
0.637369176878278
0.62516211644658
0.640738892582241
0.635210293895126
0.633855275580526
0.640050163196474
0.65488103271353
0.622761703805972
0.636423377530258
0.626955378335835
0.624355082151272
0.608917675185833
0.628750600888293
0.626231678741955
0.629850120186926
0.62805377395916
0.634714757686733
0.614386693282051
0.629558327844401
0.608150902961272
0.602195014773392
0.606923967108517
0.611666122329035
0.601750981840762
0.626168022730733
0.600786048215633
0.60380097044144
0.57961993183146
0.592337244060589
0.573207324441682
0.595020737579014
0.570856363543392
0.578240260845706
0.581744390554994
0.577153464795304
0.564552986638969
0.575115438657685
0.554565928598381
0.567696777636534
0.558486197683063
0.568089550115618
0.571797923038021
0.564655306842529
0.577936609028802
0.564849383646118
0.576087760949048
0.570492904544501
0.576930566306727
0.587743682106525
0.583611051055866
0.58795966291828
0.575487972525417
0.591404418752552
0.589248807627202
0.597776104597589
0.58978164986159
0.607609618936575
0.596738481310969
0.603348256497827
0.61515768629018
0.625058172313332
0.618722003981312
0.640527741217162
0.662303372675674
0.65481315367096
0.647533167512757
0.657170859267484
0.64656940978276
0.691384138374539
0.691731174079581
0.725350264873623
0.699792334685577
0.708098056326865
0.703453148182154
0.757752393545468
0.770134491479535
0.773823021263649
0.799615046684084
0.829411961977521
0.813588449655681
0.879651267123162
0.853119608041128
0.902681470429347
0.816079680255058
0.859286665257096
0.795690444060613
0.847731153270322
0.883394693817147
0.848162631481906
0.856086518506803
0.886518089889077
0.855468394128932
0.89505253433133
0.845846663036989
0.868107527187411
0.882629652435471
0.860532674758827
0.8198819321492
0.910231857123416
0.88763904554319
0.93940626520749
0.949726373195938
0.931065737697426
0.882491379267945
0.910365946490759
0.868721311000575
0.904900921197546
0.889317243959534
0.892979448462209
0.835717758479627
0.946379616144501
0.871988403097451
0.938460351887455
0.834125557392323
0.832328398488677
0.820435667173725
0.87719541603846
0.862270573605589
0.900808775584823
0.832326737760386
0.876671643534377
0.842201844346046
0.872602753323205
0.8355272348595
0.882820150463809
0.828839909983359
0.937278491510531
0.847010941842353
0.909725278921601
0.808192525781375
0.878809925615764
0.851837367557918
0.835704308858824
0.795342019110765
0.791243065169693
0.786658147834726
0.928416759587731
0.862168317259724
0.849845531017877
0.859085410895567
0.912941286914375
0.778026148246912
0.921976883625964
0.808586709476117
0.95777567039205
0.814512232846669
0.904398373045266
0.893031253072465
1.03517725292872
0.890173376656033
1.00340495125401
0.872704943288387
0.998567801800618
0.883059148635008
0.884823850948329
0.883624715995115
0.947597935544593
0.859976272206133
1.01803106719521
0.894937195410768
1.46799371167292
1.09713519063597
1.12745756691463
0.999320490001834
1.35924283400344
0.861721353640391
1.18631477364673
1.03622574533343
1.14778932338172
1.07246890430986
1.41418070449057
0.910888081183217
1.33996991528471
1.0335936346777
1.09114114295368
1.05246477179409
0.996737161772487
1.33977642079242
1.29877765946979
0.837947490108125
1.62617106410987
0.840829098111182
1.12031248775281
1.16433969297684
1.25326618932527
0.970350500488972
1.15353963102442
0.972721193045564
1.20330031206162
1.02591429266294
1.30348809897621
1.15499542204926
2.09046853234762
1.10235257384168
1.17069698593187
0.913811417549218
0.969077358220132
0.831246224795818
0.8058758520891
1.15373665297074
1.78123023686466
0.932890810454798
1.93451430553612
1.17130928757757
1.4987097337846
1.31011080448443
1.94525002574943
0.724174113171478
1.03975082202666
0.785332187541478
1.24566132177183
1.20093114639598
1.69313769510831
1.12814802374598
1.13574794555842
0.979946754414487
1.6692329115991
0.860610842422511
5
0.77563840820524
0.961466334927948
1.59451947972478
5
5
5
0.752598275642121
5
