3596
4000.36533379555
650.420452594757
1
2
2
0.0718613697475995
0.0628702577091697
0.0734295018354877
0.0689772433021792
0.0705525123364133
0.0731957973681508
0.0724287186649665
0.0670646594116807
0.0767171291386262
0.0712453098776706
0.0699109097364966
0.0680469729401526
0.0675892508307464
0.0660679832379493
0.0628408609143342
0.062389170600192
0.0659423717963363
0.0650895258905813
0.0631533094402262
0.0666496993194731
0.0702600249991623
0.0691133057957753
0.0719130350539183
0.0693322290808813
0.0698338041868068
0.0647047836206823
0.0667077960362432
0.0620930663419061
0.0573307086545928
0.0667453141412018
0.0673613949210123
0.0634795858995824
0.0697880870843307
0.0621835694572572
0.0721666838126288
0.0647729233629059
0.064842745591736
0.0618830569046093
0.0642520405089994
0.0673713093560696
0.0684274424010174
0.0651807746796841
0.0687828835454652
0.0576201563504718
0.0686375283492746
0.0632067940302256
0.0795425282822537
0.0652217390517751
0.0688911920712472
0.0603535540446983
0.0660169345510177
0.0711324961083159
0.0679721951006671
0.0728915222063374
0.062856647444694
0.0786782456679822
0.0728115699994205
0.066326029763514
0.0707927953146441
0.0628922209516767
0.0776188056510706
0.080033833707966
0.0627333272608157
0.0675985819382306
0.07072636563383
0.0654851026048308
0.0688022154443099
0.0654782146171645
0.066888758034009
0.0628048341874087
0.0588016397395141
0.0739249778049539
0.0817336370212989
0.0688694467729158
0.0646896575858747
0.0678505439422371
0.0577697239207955
0.0574021184168206
0.0617396740231788
0.0653207192348951
0.0744497472438446
0.0640778369063471
0.0631199046040162
0.060431896526031
0.0571390670450676
0.0833941749211194
0.0581437058018223
0.0505874101251865
0.0838289382914349
0.0709239372562044
0.0621056859017219
0.0600934390001672
0.0626197873757028
0.0611937200938372
0.0530478277936731
0.0651739119331089
0.0651013602828851
0.0684214280216568
0.0571999983261232
0.0589460248981681
0.059505550575265
0.0578332041742256
0.0888665471642328
0.0632240025072056
0.0928049149241224
0.0723274958845165
0.0499820030763914
0.0918500872103742
0.0763121358612918
0.0677117368355468
0.063790096562311
0.0633701636652581
0.061874166691735
0.0616521228281735
0.0552441180441897
0.0709585700101748
0.0829297644758684
0.067805381841048
0.0643459264999723
0.0636798704322095
0.0442438019014101
0.0641529454395281
0.0894438072653991
0.0695498883378128
0.0717442449468876
0.0593160808384556
0.0532244789822385
0.0857716155693973
0.0889156129795456
0.062448403483297
0.0610152852487592
0.0637946507922273
0.0524843924118151
0.0454438045758009
0.0795886244232281
0.0698651289724467
0.0669947544838761
0.0450544104885653
0.0615560567567738
0.0972140715916089
0.0702687206707026
0.0634393970676844
0.0466107809767101
0.0572491247027345
0.0893547330741647
0.0728827201826881
0.0551876399338114
0.0705632664302423
0.0733556000607828
0.0617241747529454
0.0624909808688604
0.0543237954737138
0.0702588075844326
0.0651189637007633
0.0215179995166254
0.0617813576922596
0.107653652854458
0.0736203265706289
0.105046417002743
0.0665136770700953
0.0687293294150438
0.0613391196105199
0.060439341950628
0.0596503472638014
0.0602419348822985
0.0532542280215596
0.0595852657747925
0.0762028168124996
0.0651771197439406
0.0605949253283532
0.0817809982164059
0.0677368841202015
0.0411482049157627
0.109060467997174
0.0800489033777713
0.0553342088457204
0.0835659773291992
0.0763431232024307
0.0488176201205667
0.0539206941750313
0.0828659749261933
0.0603080188294265
0.0696988749239716
0.0539227693705209
0.0568443568405944
0.074282232985583
0.0615775460489789
0.0612355874263395
0.0666234474322657
0.0403733181888201
0.0593563964548151
0.100019082287953
0.08279223363255
0.0673781588913776
0.0608450040529852
0.0352035813734833
0.0817533935606937
0.0851130595614826
0.0678183012203817
0.0565519566660156
0.0465548514805995
0.0574762387122688
0.0558340781620942
0.0583039929763865
0.0527779342971819
0.0374069236043317
0.0844056639912356
0.0788910624096305
0.0658488298725117
0.0568915507196129
0.0588619198319081
0.0441910285212364
0.0883446034673903
0.0900364742324031
0.0618151650772295
0.0616026892644654
0.0484220426937194
0.0693339561650815
0.0770513067389578
0.0588849383284505
0.0598089813657241
0.0603605770014651
0.0613222352754126
0.0639102787122024
0.0548301816802189
0.0595675886098442
0.0618730118557118
0.0598409289319539
0.057600098933029
0.0588812351378188
0.0661847302270515
0.062225055036674
0.0571416169344365
0.0604691063243775
0.0552411612517536
0.0686281061299993
0.0818558628621532
0.0672177601656647
0.0628979784486884
0.0576970263888646
0.0576336430441657
0.0605200038189213
0.0585411885452317
0.0655463869878356
0.0568746485877292
0.0535717550727262
0.0922517278231848
0.0693526823526545
0.0641948203538127
0.0473964606394533
0.0708216052698712
0.0771566175156002
0.0666421344796758
0.0614917853020699
0.0646555431125406
0.0543325914565985
0.0642229027362837
0.0898688539119847
0.0707922891838696
0.0587368256653022
0.0721748290098507
0.0647275037821221
0.0652830903786269
0.0536416403812062
0.0404481722821529
0.118112567001703
0.0751291530710227
0.0503422075293252
0.110604218448356
0.0810489574591051
0.0773355015916292
0.0593842065523614
0.0315280291633759
0.122869464740973
0.111723737716579
0.0708285599434126
0.0573311944755894
0.0728060201557512
0.0634090696591172
0.0679069311583734
0.0640025877749526
0.0685308796194706
0.080546492555721
0.102466756861308
0.110944541918529
0.0531673563507281
0.0841827691356073
0.0934182502074226
0.0733400995387929
0.0692532272472212
0.0629847364376651
0.0509896398014342
0.0792824287654292
0.0759054506452339
0.0809724606670255
0.073907079332999
0.066662171261555
0.0904817126619961
0.0794459005768564
0.0690428991296469
0.0738039409853326
0.0771390897571097
0.0700302058043949
0.0697001295828148
0.0661645384643109
0.0804858186245257
0.0633138871784471
0.0637218039077
0.116160139798771
0.08228095227192
0.0772336169427138
0.093664852181441
0.077293474530299
0.075221225843429
0.073595739398053
0.0760721522619312
0.0716520800275843
0.0690307149431935
0.065241864506629
0.0984664413082968
0.0828264341861592
0.0732978753571201
0.0749269447889086
0.0810703635985833
0.0739558808187877
0.0784907389353365
0.0740618564335463
0.0788733481750386
0.0778387240732445
0.0684883956290182
0.0923792665510791
0.107740469231053
0.0713965514915896
0.105090566774481
0.114726443466278
0.090585065465341
0.0890347125660326
0.0854576332765201
0.0880054360429153
0.0861879387964583
0.0856768452312754
0.0820799122440369
0.088933408816002
0.105378393370204
0.101126594437344
0.0847472969591043
0.0824535312500873
0.135865050108185
0.1457598161067
0.116875373288156
0.107583470097105
0.0806753492891311
0.134310841743127
0.131097437903065
0.125436700727015
0.127300826852406
0.115685457310191
0.111810727853982
0.103929773412163
0.118737259923831
0.115993707651085
0.119350369123647
0.117982503595479
0.124966135587508
0.127892823269015
0.133299505182837
0.112183638020856
0.127928597589818
0.162403935899679
0.147530907285764
0.135096763673363
0.139822064389877
0.125014081913923
0.161149641860935
0.157805586477861
0.186135406485189
0.164123197937578
0.172504135017436
0.180862468038591
0.170482639894343
0.153901871717718
0.153829858902637
0.1604021525675
0.173451380997223
0.168176999467675
0.168325287933199
0.169139468568758
0.171098503856655
0.176160778646173
0.180817622692981
0.185011370496172
0.185149862419455
0.202727147493429
0.193452442640512
0.201196085356782
0.181028087104107
0.19717168961691
0.234355958065644
0.251764820323688
0.207852244627867
0.201500492483597
0.211988213467114
0.218903023500889
0.220146938074655
0.221166455840562
0.229292849680122
0.21460397873387
0.253713730727889
0.243551886494622
0.256839022030518
0.252836440581257
0.247192452010358
0.262799533732187
0.25341047631993
0.260115173627712
0.297994782951159
0.268432440578955
0.249400103836631
0.278968494067065
0.288657113655562
0.272645504136598
0.298650449447727
0.277743453865977
0.270490747639633
0.291422625956833
0.295318287941108
0.291545296200002
0.312185339960919
0.299106862328836
0.297886826260373
0.306497220005255
0.313799941239826
0.30790292272545
0.339668167076168
0.332545288620291
0.33840246208332
0.342285558953023
0.342699428085076
0.338735295164206
0.327012616605918
0.361224295010001
0.380732854797752
0.363148919451514
0.389929746605321
0.357663987290664
0.382300341193533
0.361832395224914
0.370862445382018
0.363476362981526
0.398473256457845
0.395343123810017
0.38706976021171
0.381743654646659
0.408921185867113
0.394903586355129
0.415958968324647
0.42326688451188
0.42101857042986
0.426161275587595
0.449194439186367
0.436863113213584
0.434597173304915
0.445714825585773
0.470558196134449
0.481663247696694
0.475101549252232
0.467695136309043
0.462008033886198
0.464355664820839
0.484374437650342
0.477408649793423
0.499279260064722
0.483093717178792
0.48358057769871
0.495757120205021
0.519587783586955
0.500949222501306
0.520973158541976
0.517538784032798
0.549773967578369
0.536024999241011
0.542650399437324
0.538210758091328
0.560063553659468
0.548478511656061
0.582063798880928
0.528202960060792
0.554590566048736
0.545754719128439
0.591330970074919
0.562533265391512
0.602263763446165
0.577826141063019
0.60491069345501
0.577103522941466
0.616656673279622
0.600584331854161
0.631334370193826
0.612879276128303
0.636681172071194
0.616585357830355
0.639566563127703
0.628993230954896
0.654369623675685
0.635271349617956
0.671194977355324
0.651990135032605
0.679055854163245
0.644343202101788
0.668319729273443
0.686803537384356
0.720361959068568
0.654969097821486
0.69387226347143
0.685016902474774
0.722074717837237
0.694265351844635
0.720405523163174
0.720240008253687
0.73670993516381
0.713442711645898
0.763347743095209
0.759802734191426
0.766408187261303
0.721553211722005
0.799358378422415
0.767779998889836
0.785019606786707
0.744657892735161
0.801008927141256
0.754670592002077
0.806260696436006
0.756130239445789
0.817296279838659
0.755032319193176
0.849261481607467
0.789448968749866
0.794061867105341
0.768684583035692
0.852824472043207
0.780750878315542
0.858564906818295
0.820133650674637
0.887278598356293
0.831223934874667
0.925919106261136
0.836802567462702
0.897417787846433
0.847011684144916
0.884239658346297
0.868142787909456
0.961455796422615
0.891119731545444
0.911380281128124
0.892900971122936
0.978521607796049
0.878166518116229
0.906131324568134
0.847154884364341
0.916455373879418
0.886756735254111
0.952298036601633
0.892768552100803
1.04751750718303
0.906043791065702
0.998146578862795
0.899298227675369
0.929256454079167
0.925487358410222
1.05635037099639
0.938977115872899
0.999593418187204
0.917031074229635
1.01188358241131
1.02815710887073
1.04514014904406
1.03378051311515
1.12533500826613
0.952830662727488
1.0438721034928
1.01923309918047
1.07106670114993
1.02936231734869
1.07950407548879
1.02994551127162
1.0930549643162
1.03979545953361
1.17249257211464
1.03168118835389
1.0943383344247
1.04692540079144
1.18026792602823
1.0647513851231
1.1163541977652
1.09657794976621
1.16395659098703
1.06815332914644
1.09391795816219
1.09856448743776
1.11064131032398
1.11084956753465
1.25406699681964
1.10938917526215
1.1862841955584
1.0940123073825
1.17500676576779
1.07692254666948
1.26355334509487
1.19587771418927
1.25160086457685
1.10893639276814
1.24255090338746
1.16518116981563
1.23434346317561
1.21392123147746
1.28662748139677
1.1627873419877
1.25050421847087
1.24633319180268
1.24761758969593
1.17861928409051
1.36857945864492
1.18033966386614
1.23270229782167
1.18137967428479
1.34349713417185
1.18419405256443
1.33736157752331
1.2609264745095
1.4528149157404
1.26373031695169
1.34947415383863
1.25179014627622
1.29058835419642
1.19751794458665
1.33571272222639
1.20155606464663
1.26921437538753
1.26380773434016
1.359401473376
1.32959226783619
1.27573648617924
1.25759743489955
1.41595551876566
1.25580745436021
1.34176734494411
1.29360659031633
1.46398466271805
1.24798726555876
1.4013123924766
1.31908337485959
1.43239438237856
1.24649744800693
1.45673237363986
1.34812098522645
1.62173553949606
1.32864295202685
1.54100411223975
1.37094837540717
1.4190293922862
1.3157848180927
1.47383985669043
1.42551588828636
1.52958288768084
1.34243751345336
1.46634252986797
1.39811780640191
1.37884147556046
1.30446921478602
1.56760075038958
1.41844657507503
1.57224539699414
1.27664366583449
1.44277615253987
1.36354491245063
1.53466127306933
1.39387962194666
1.3968213364664
1.44810049586905
1.5654088989899
1.34523333557421
1.7492867535247
1.48770173926167
1.52379968935857
1.47307206017982
1.69708169335225
1.41540317782721
1.56947067757268
1.45495696378157
1.64689083088431
1.45517350550528
1.5639467870059
1.46560135513037
1.45561473755265
1.42675996266664
1.55356086840415
1.32060478649519
1.46369003498421
1.43933206020897
1.80698023186842
1.50695551249172
1.56949305104799
1.42222050723563
1.55292936364293
1.38836739634981
1.57504573171263
1.51418175229418
1.54891889778254
1.42906902553417
1.57052746134604
1.47254881021045
1.62823422957115
1.3840692533419
1.49883125071624
1.45755588014075
1.57397022906233
1.44190011064925
1.61791270942046
1.43594759457839
1.47197799028089
1.46819274262911
1.52564056229457
1.48292482620661
1.72621631310282
1.57493428548902
1.58011772442714
1.43208995339699
1.6490571297872
1.49302461690094
1.58251970811073
1.36232594896385
1.61718831541433
1.53697337442789
1.67280624226157
1.49417114667525
1.56832545974598
1.4615733506528
1.49211261382666
1.45212886821104
1.52782219329418
1.42230285918312
1.46347748019827
1.47360816930477
1.55145428598409
1.49383180989264
1.64505536570388
1.32924911446466
1.68129891223039
1.43472406117473
1.51323898666791
1.45940734314447
1.48714421058524
1.5302268318865
1.60245268096779
1.44864571855041
1.67437095965061
1.44967906655778
1.57232631075355
1.44844260967196
1.57729812174144
1.48360141027856
1.69665819204828
1.51337071939753
1.52090503305595
1.44485053160392
1.62077375439658
1.50456102225361
1.64503508172856
1.47378637385678
1.54647678214883
1.38985366563755
1.5470873701811
1.529837140243
1.50226992304618
1.42557760288288
1.57935514245877
1.50895906609471
1.61303407668411
1.46611625609316
1.52985370899875
1.40180115214119
1.42804004847403
1.5039563809913
1.53758144310665
1.52763056867235
1.63234828980637
1.50773003088587
1.5125904941878
1.53231615535128
1.53714212665451
1.51916820026144
1.64789084240444
1.51220849075546
1.50807858851166
1.44738290737905
1.50565189101908
1.54244940015022
1.52226462177525
1.41060525179224
1.49643619347175
1.41104473509353
1.52784076434935
1.50052714789324
1.54212484628388
1.41328084104473
1.47569824697362
1.40110545671029
1.71834970676709
1.36668416232208
1.51344659559079
1.45392911150342
1.44678393558509
1.48144818310318
1.55198761287243
1.3577794454621
1.52302049051022
1.38465743465113
1.49016098316156
1.41584441913844
1.54662527743582
1.35636031248383
1.45280024877085
1.40861559742606
1.51873982795355
1.49037147259781
1.6020818178024
1.38745999595841
1.48314144488586
1.33645165781445
1.455664688215
1.4503625943217
1.48289852088218
1.35275961327756
1.45258387900425
1.46003138297893
1.461255403946
1.37897707158638
1.41023686678896
1.40555128868337
1.49545940014455
1.36158822616061
1.37990980546278
1.39989811499065
1.46142643837447
1.3414695475588
1.46980495885773
1.32627267159557
1.40751410909364
1.31015983691971
1.38559319008808
1.26694092196578
1.39516320115388
1.30146935375948
1.46774702075453
1.30346671021659
1.34576230531278
1.27120546830066
1.30773242706497
1.29426726787625
1.3756496114776
1.28933489537879
1.32925837733802
1.27278019675362
1.27810282002794
1.25692862057657
1.33885484339035
1.25904903919127
1.28269057717562
1.22570478347988
1.26651522859505
1.23215015896444
1.24170924922375
1.22843350335615
1.27633712237319
1.24355035351839
1.30080121015442
1.22609413244929
1.26047930633563
1.24147058155206
1.22689496748037
1.1564204378854
1.29370864349715
1.13207775117318
1.24431757129191
1.19290512176382
1.20471386100655
1.21700464066105
1.23149565554543
1.16743232686971
1.19231382053177
1.15077209128521
1.1937347066346
1.12462746665129
1.14396976708864
1.10683083003283
1.18390761174238
1.06556464394332
1.12496678816453
1.1277008760856
1.15408589039849
1.09548502828709
1.15238417617515
1.10249159268405
1.11615711918263
1.04524427682165
1.10508520555452
1.06088900024437
1.08735981854718
1.06288701810503
1.09819150476326
1.06252843840901
1.11092346443264
1.04281576505518
1.0494347720509
1.02345570988934
1.05703797670882
1.01908482967453
1.03549977936992
0.990584900132112
1.04177190614114
0.987868573201671
1.03082869552718
0.986675473454878
1.00797240730151
0.964400538369829
1.00905137276469
0.959928684816171
1.02564852959972
0.944152615621976
0.977332890691367
0.936950856255594
0.975752111988993
0.923168290662134
0.945554672544766
0.925004124239861
0.943307212579731
0.930837203324147
0.947273294839833
0.913930620921955
0.932125435476683
0.89348565097473
0.910000078055383
0.886145583398749
0.878362835310061
0.860349491770184
0.901809782117676
0.868655954283897
0.879498849627722
0.86740444153678
0.888454857191161
0.853791760288988
0.870335161678063
0.844971422888047
0.88398759824752
0.828992871692722
0.851513566648198
0.83315828679017
0.830014390214311
0.801816424941927
0.831689119144176
0.796385914815581
0.830594303985388
0.791094431908008
0.814436561802332
0.802097554269422
0.801247231088286
0.791262865087237
0.803657953292325
0.766880577831524
0.782389164113068
0.779587884539112
0.795149711785425
0.755073617674729
0.761902960036463
0.746085336708158
0.757155831674673
0.736682700465951
0.763962336265322
0.729371463160454
0.74778497298724
0.707764401142074
0.727533547453861
0.711021731727815
0.736937704233258
0.709092268623465
0.717913532204894
0.700046144478267
0.715919496109619
0.689156236531289
0.698502221408066
0.687725071336732
0.707012489641413
0.673043179107638
0.708343561834733
0.671316773694855
0.677265195882536
0.665968134563496
0.674200307364309
0.65739467529011
0.665303975235574
0.661776307832339
0.6667895368168
0.644453528290202
0.653311734676054
0.634104859639853
0.637019768273497
0.63603523319412
0.635895264107258
0.632715471249356
0.633012460875232
0.608050177262277
0.619764820029315
0.604372414450595
0.622673756463357
0.602307076121322
0.618871312226348
0.59654696996274
0.598570272628288
0.58826917113882
0.59717277771667
0.585177269727613
0.603041921816318
0.579431809760738
0.587770579123137
0.558353101112249
0.56709995889774
0.564414433340328
0.57842815522798
0.551374357739413
0.578367814328624
0.559884857017409
0.559873162883385
0.550573302929119
0.546365721811306
0.534149788739908
0.535559946134392
0.543837363616763
0.553782095472991
0.522218449616732
0.541283696931394
0.527050842890678
0.537736738806094
0.510533595074465
0.523980542180487
0.523614526812237
0.508685032638728
0.508740297873742
0.52046694863947
0.505149476597232
0.50934525257148
0.499402444938417
0.50710592240411
0.499110144702232
0.506635895327182
0.484812980333164
0.506977121597129
0.493241631997794
0.499840557881673
0.480128101630672
0.499671048923906
0.484301786643519
0.493278245472481
0.482264325495489
0.491031698633689
0.47828258821524
0.481164026673504
0.460410683541439
0.477519898444731
0.478453639519757
0.480734982995698
0.45921045689589
0.481018489230695
0.475480730168301
0.473322617120198
0.459680070328444
0.467875300340187
0.453454613190912
0.463728300762798
0.450877436136468
0.478184362644053
0.460963463123534
0.478635818482424
0.460220262579019
0.476790830084958
0.461798445090558
0.471931772706708
0.45373726481983
0.47930717802428
0.464708784502778
0.473483413115005
0.45578332583626
0.477260509848584
0.462971181308737
0.478442094094187
0.474566580105652
0.474433646422616
0.471552139378867
0.482399995396238
0.479286645486716
0.480924794721022
0.486665415606986
0.496282198763946
0.480522494032481
0.500938950801781
0.49099249446164
0.494468510067584
0.488138870070977
0.500086888190087
0.500543682861393
0.515891489043521
0.492499614054882
0.518328360439891
0.5003264943209
0.514062749415822
0.510449443341666
0.52419316713955
0.513621184457711
0.531643457700526
0.517144842504974
0.528760745923364
0.527451575492358
0.532586854498373
0.531557482276737
0.551584604952587
0.541243872390835
0.550320092300469
0.551705612337033
0.565480794582902
0.556651744308852
0.5710705557867
0.566949410208044
0.579706226756039
0.579010259484661
0.592663450286896
0.581886352927713
0.597632538268163
0.584319494362484
0.614584692262536
0.591808049668207
0.621926005859378
0.605497806279988
0.642549162389399
0.627889398156682
0.631448433131426
0.63231921834548
0.641675542756161
0.635256151689685
0.64163450213958
0.630184052032461
0.652971272093891
0.630796342695874
0.647336981238115
0.631609770123216
0.661825206018929
0.628326649870143
0.642454664192062
0.637365267227095
0.640696915915409
0.634715507649086
0.63302075328769
0.620951859723975
0.630747984979146
0.603803278658866
0.635594466632257
0.612463111482804
0.624174141975933
0.608646085349874
0.629124149442261
0.607499159784685
0.62540318657669
0.618592587863211
0.617271682760859
0.611421345205495
0.616242748892266
0.60033062160996
0.617122338991797
0.60041564209741
0.614943053899454
0.588514671948141
0.605258754212145
0.592926827763173
0.608230974593212
0.602682212213689
0.605071398174111
0.598505294313568
0.616571006123763
0.600638112762424
0.616154254935389
0.58550108739505
0.612421107801202
0.597005819845353
0.615303413109456
0.583874977866482
0.600667534222546
0.597867584879106
0.597468343824204
0.597863066173341
0.595023006598843
0.5824102505675
0.608127820726262
0.576484632078291
0.595114666033397
0.570537244193639
0.587976688169445
0.56711359899517
0.583831081093255
0.565923495153879
0.575496636093687
0.563469981539897
0.559831632081292
0.550096191932325
0.558616861768249
0.541223932085676
0.554397106839271
0.541475971351987
0.550837284672535
0.531392963501065
0.542100352607197
0.52102416356254
0.540788630343971
0.5251646271049
0.523113866616142
0.497189487725431
0.526510858425941
0.518515346713279
0.515654184428276
0.503864324435882
0.505781449130298
0.485546793753246
0.496756692270073
0.479882883163318
0.492414914754025
0.480644902700423
0.48385939892845
0.472508824560228
0.478763906784951
0.461592516451263
0.480106829275513
0.459018331555326
0.472262056629306
0.458451070366163
0.462964152484531
0.442441161623872
0.458881074618503
0.443021828369658
0.451016413620882
0.439555117954325
0.453677011825861
0.443281944994809
0.439940406706708
0.430788975061187
0.436306915470194
0.426003435788862
0.433898138251642
0.427664728319134
0.423368856477866
0.422263519652534
0.427605128465559
0.410642434393323
0.423090882991395
0.419751491361726
0.422020813175481
0.407850542466559
0.419345819530429
0.40086647489908
0.412635100599124
0.401913197036156
0.414018173170997
0.392412629129108
0.400067106456827
0.392404542735306
0.400374126699419
0.394845768466389
0.396919463562036
0.387491033877332
0.397474701100941
0.391537025319749
0.395066118858205
0.379654631639209
0.386496685184448
0.38339156143544
0.389814817094659
0.378081422254027
0.388189167735333
0.37346351640918
0.378406394723732
0.370711598294275
0.377868365707855
0.366963490326061
0.375177611725234
0.370061703203103
0.374127892633212
0.365702986128681
0.368894612365822
0.365566613185353
0.369957478029969
0.360658594436872
0.367095540934836
0.356800883849937
0.363170383537564
0.3585743861863
0.361955181664899
0.357250458215326
0.365220056371648
0.352308098969205
0.355764800166825
0.351177109247267
0.359468194213948
0.348482033021578
0.351748191863048
0.351291944375613
0.358484344248282
0.344253119674761
0.350901991313473
0.346655460626775
0.349440040845472
0.339508842217468
0.353618166564669
0.344009590643924
0.345896316989187
0.341428976624353
0.35194777815879
0.341630904620885
0.346501521277495
0.335697973297956
0.345562937099425
0.338696918761921
0.34590921931627
0.338159717431747
0.342704294675125
0.339717250677068
0.338355515739135
0.328944704222542
0.336088903314172
0.333176276629909
0.338457168406099
0.332064615670112
0.336580836762788
0.325504650708007
0.334622502130043
0.327528868324141
0.335534035888526
0.329409162630925
0.327911130894538
0.325278104596012
0.335141476198039
0.323533670814888
0.335888285004647
0.323492444914662
0.324005978313576
0.320272485464499
0.327372268621158
0.324124263088188
0.323862322199774
0.31504041381084
0.326047184759562
0.318658523342187
0.326057227776667
0.318319332898262
0.321041268546961
0.317138507213464
0.320768747743249
0.311791283850606
0.325382539941555
0.31906491749125
0.319131433437137
0.317604888877875
0.316955188737842
0.310726436827976
0.319007974963691
0.313471167011243
0.31623795097546
0.311920391878669
0.315335824345556
0.307414431747006
0.316402543422658
0.314548196759651
0.311372540484738
0.307378464211247
0.310817858473508
0.308318671485315
0.315121818295743
0.302887519536175
0.308326586469693
0.300476466472475
0.308739389076932
0.304225649370554
0.307052050288861
0.297694879615985
0.307449881583695
0.302891207727766
0.305856046528468
0.304073896701147
0.303101284712819
0.299905244684516
0.30867077587854
0.297693242099892
0.303525789657061
0.300832774650667
0.300052538474175
0.292187213778125
0.300137470939737
0.294230709988057
0.294364832851367
0.295191548360106
0.294299762927239
0.28783973715565
0.293564149566744
0.286294827046337
0.293482494498724
0.286255969910923
0.288790705394527
0.283673276968285
0.288733295868327
0.285928787416859
0.283582516495382
0.282764664144583
0.288772637997257
0.278543989465738
0.289365307511857
0.279853693441098
0.291299602349667
0.277647052066286
0.284385266932097
0.276895078919337
0.282669769441876
0.279287453011862
0.278940095110937
0.274102107705729
0.280380946018499
0.276216488683502
0.281981319557095
0.277675296100011
0.28070894815028
0.26821723879001
0.273720128700166
0.270405846023606
0.27745339605853
0.266800067670526
0.276215981565596
0.264529057785129
0.271067592201787
0.266809349947016
0.271159285734472
0.260553118125043
0.271856598441605
0.261086872964936
0.264911246220065
0.257819862481024
0.267072376160895
0.258667532851464
0.262505122566252
0.253839372638741
0.261644086807044
0.256709850948011
0.255805985555933
0.250364625422842
0.254605715051775
0.253390316122879
0.256134678617959
0.249933498358832
0.252724870048566
0.245956960505796
0.257450063459319
0.246108926636668
0.251484700071158
0.24272960364839
0.24779244972746
0.240825216271031
0.244840078978829
0.240827935809665
0.245993506771751
0.235825763705913
0.240324762525907
0.237699626324827
0.242332497495803
0.233837675937905
0.240564236981943
0.234516789207713
0.240559652668977
0.231350079377846
0.234578972330819
0.22907556726871
0.234369950438164
0.228765939908429
0.237206095033902
0.228386603020345
0.232917591089397
0.226759642656567
0.235773317948526
0.226771012368094
0.234640927125004
0.227647092661834
0.228757420294435
0.22623766558541
0.230853869654678
0.224323966531189
0.224108848557767
0.221951488330487
0.224319527142239
0.218968394490708
0.224228137633629
0.223634561886425
0.224154004929987
0.218454066933832
0.22153115837992
0.221853406929493
0.223320260743532
0.218166949439193
0.222441714477196
0.219178444313115
0.221777353248236
0.219535032108991
0.221016614867126
0.211899216779565
0.21798237848885
0.212808212897967
0.215092498975941
0.211502791496091
0.212837190738321
0.215773175284742
0.214935140014455
0.209350596815268
0.21439365593845
0.207356400465184
0.213750519573888
0.206049993568591
0.211476839500353
0.207078136214599
0.212081070386482
0.203632370277492
0.213248097422307
0.208238952814895
0.209718231786134
0.206234589913541
0.207043523082538
0.201624551145961
0.211867212772119
0.207148509126081
0.207681137719018
0.202683523116218
0.212945042661147
0.202554503538981
0.209485985867844
0.201625814123623
0.205359693975535
0.20092688346219
0.205444087898899
0.197815331981115
0.205153084298783
0.201004462508466
0.204940222770184
0.200157113714402
0.203463834142129
0.200451865560087
0.203938685958278
0.198774360815412
0.20231856774113
0.198997917389978
0.20585377631704
0.199542582466606
0.202119490029936
0.197509710884394
0.203510464616201
0.196910542913249
0.204718478170143
0.197931563249981
0.203463615458695
0.195979598606402
0.199052760156794
0.194857777057914
0.198326997776527
0.194067505522638
0.196169704737646
0.191692278474019
0.194727122428926
0.188462700239226
0.194624926082732
0.187613071070468
0.191723953678743
0.189210256232977
0.195357426331102
0.187939948107242
0.189578801990309
0.186392168032499
0.188937797145898
0.187076183414807
0.190978707892818
0.185010974170874
0.191256045317372
0.184010246154992
0.190395158571109
0.184679041997434
0.18808269674313
0.182277556961903
0.18976628411021
0.182635752615761
0.18929284399278
0.184056929839019
0.187717678025338
0.180220963902909
0.182119986279173
0.181237119321399
0.186269980715527
0.183998223170156
0.187628400422124
0.179189605515679
0.182843232836577
0.179203902075355
0.18355281374647
0.176981603873539
0.186316607604671
0.179306553405282
0.18039322864934
0.180795646261578
0.183804156084389
0.180888026860787
0.181838223724226
0.178500603258876
0.183127224634774
0.176528779101805
0.181084044723751
0.176868828892899
0.181651971526228
0.172749571365974
0.180924875261969
0.174148373650715
0.178631708563203
0.174573727652077
0.178010196161103
0.171039711492561
0.176054206436386
0.171410004825795
0.173929250239054
0.168698853030819
0.1737194438222
0.17117808445667
0.171494191426778
0.168894694922206
0.173551033662953
0.166822399810548
0.170077119033301
0.164773003955684
0.16964260500622
0.167845969547135
0.16905329150154
0.161734601201215
0.165916869900582
0.163746056985113
0.167448533581655
0.163863009752258
0.16497595033982
0.159673007373163
0.164284062789953
0.161111429728246
0.16213378949649
0.155377993030578
0.162986730581807
0.156211881085176
0.160670685103347
0.157795823294329
0.163459455798661
0.15652967959408
0.16194467919262
0.154913415097392
0.159276903413421
0.153701329476384
0.159588737196152
0.152174478062669
0.156215898844737
0.150751906032907
0.159609590623735
0.151483297637494
0.153572196411434
0.151974418764558
0.154761647946237
0.150644112487599
0.151456185243639
0.148957856808242
0.152525131225204
0.147251086471853
0.15238117501434
0.149107489024454
0.151352923621447
0.146060795814113
0.150222087345266
0.144649211913677
0.149842303065679
0.14526238451138
0.148121361255826
0.141784746094743
0.146937380969608
0.139975901195057
0.148087188979698
0.142458021151096
0.145003174371256
0.13897511333242
0.143703546543326
0.139354920169926
0.139408872910852
0.138637040490688
0.142059056217669
0.13738955332129
0.142886708733657
0.137077383399161
0.142700137075419
0.133317780710913
0.135733053393311
0.133841911122331
0.137581655348492
0.132269843743707
0.139016235167048
0.132304497362596
0.136772178033992
0.13318949412101
0.13661012998276
0.129151109047186
0.133473921916913
0.127477870646629
0.13333780725791
0.130439063554189
0.133711171528716
0.129405709637971
0.134863954465989
0.130084983533153
0.132804678139904
0.128020377458194
0.134324724607781
0.127720430428486
0.132400313364802
0.127199865246994
0.131272846688142
0.127769957212946
0.131917467655369
0.126873697188179
0.132011680017379
0.123630716856204
0.131291943627983
0.125408687966379
0.130355361283182
0.124124504663671
0.13120968900015
0.125868508809268
0.1308874614002
0.124504763966168
0.135090598137154
0.126573662956722
0.132485152252724
0.115234493029393
0.123150162405839
0.11614237337367
0.12644262696933
0.119572759532354
0.134445034906323
0.113946371559141
0.116873415030619
0.120256006496053
0.131126780117648
0.106728163330415
0.126293350918166
0.110949527829783
0.124822924063551
0.115776216489663
0.121868662088967
0.108595282066564
0.122915628108267
0.110860372053747
0.129798362357672
0.109085067990318
0.125903546936778
0.118771591674754
0.12410919426235
0.107377872259346
0.12648456686177
0.111406982176606
0.126166762933998
0.105045189152469
0.127156018379336
0.105817534364886
0.125957668330783
0.102340292780003
0.129848411915173
0.0998788196632966
0.128857539075222
0.101574505787486
0.131206742384124
0.0964513549620234
0.12830077741809
0.0941005897519104
0.126901409005793
0.0988255979870218
0.141142505252316
0.0969598030851813
0.132312693428387
0.0927215516928591
0.12982736705312
0.104534460518419
0.136243533562065
0.095977192560938
0.12339780549948
0.111144708801135
0.130407487222275
0.108190641571547
0.11285388980979
0.125956322308905
0.10805216256771
0.124581193104041
0.107385079689537
0.132791373004497
0.0957164152648355
0.134719621785411
0.102445014229717
0.129094334602225
0.105428102275579
0.122490311167013
0.110536138960577
0.119379512433464
0.120191383012609
0.112599081989605
0.116435482547674
0.114713812841714
0.115406527700382
0.114032656573146
0.112241534366162
0.116270564048918
0.111432379596353
0.1185832874546
0.112260549888045
0.114896240092462
0.111233807405309
0.110993641956366
0.115311396418534
0.113777468363585
0.114132573400801
0.112144887005619
0.11145952153838
0.11252350835779
0.113009479970469
0.113000794805159
0.112116806135964
0.114821466920019
0.110929495544821
0.110562287264841
0.110450521851214
0.114180104491203
0.112102905343345
0.112705488607799
0.113685232639331
0.114080882805286
0.114422245756902
0.112752118656
0.113509098263129
0.112438972232861
0.113173502389122
0.112230902205383
0.114922750361406
0.110973317169476
0.115028325514803
0.116598820920417
0.114579368026245
0.112637206397246
0.114445646009149
0.114790942707352
0.115721902234675
0.112978783764288
0.113089911885739
0.115733056113649
0.117163505756892
0.115062244481871
0.115476903608139
0.117552159790222
0.114502954289318
0.114778487610636
0.115884504824065
0.114430253429094
0.113213402244563
0.112155888486795
0.115973057993632
0.115290431909322
0.114553223967068
0.115903914207967
0.114112141727907
0.113409015063607
0.117515646836806
0.114492209755914
0.116552004402714
0.114953778227577
0.11637810182448
0.11398492528122
0.1152665845988
0.114642470398569
0.115872001442219
0.115851710185094
0.115501324253519
0.115850385184296
0.117578615939277
0.114363616920878
0.115560155506561
0.116144280507203
0.116038012819543
0.113605623876757
0.119129605136321
0.117058392123952
0.11797927405018
0.115493618395893
0.116341214793624
0.116691813626713
0.115593791114306
0.115963770834452
0.118362752481499
0.119007807595473
0.116765385479835
0.117108137021633
0.119334408271498
0.118991505025224
0.119795998388398
0.117821798215531
0.117443893051196
0.117863872699707
0.118692820728377
0.118470748287124
0.121258185093688
0.121867509398485
0.119813628773227
0.118465722715129
0.119632471648379
0.119849244983741
0.124236985561512
0.121652525761091
0.121092171396214
0.11846721861026
0.123296605185441
0.124010605917681
0.124692730153566
0.122018955699437
0.121976362734433
0.122585389598827
0.124563092868929
0.12283323014704
0.122931246990899
0.121165452166806
0.123982985477811
0.120930725359658
0.126630702465891
0.122356260670008
0.12185626919645
0.121940407832675
0.124401469163692
0.121821068478104
0.123254546423343
0.125125527840005
0.124218830354898
0.125445718202743
0.125547630084791
0.123215971699635
0.123579007268841
0.124021864041173
0.125979566595088
0.127782145189547
0.127270044130654
0.12407676869756
0.127154050207522
0.124297662551564
0.125180719037565
0.124328434503231
0.127228866889338
0.127352738907213
0.129506688009028
0.128132704901846
0.128974200525731
0.127356818133239
0.130052682469418
0.130040978239909
0.129944488272686
0.13038608633636
0.129907377066407
0.129926532370156
0.131209243545235
0.128018647966335
0.128282492448666
0.130853120200004
0.129367178430768
0.129633255798532
0.130284143022242
0.127245742653099
0.131224131754272
0.130470755283969
0.129500751907059
0.129590598645282
0.132229760289704
0.130232350943448
0.130572713138433
0.12757979751301
0.130789860563335
0.129697080997557
0.130876547438434
0.128526147464809
0.129478442026116
0.128804437976574
0.12881682011501
0.127574867175931
0.1289307566297
0.126952003797364
0.126814791013306
0.125943780294953
0.126730581306877
0.126938011957274
0.127506123916117
0.125890461748172
0.127998055103525
0.124855665555745
0.126217413801032
0.125171148280608
0.127382125661237
0.125810243048462
0.126996222933602
0.125683896045879
0.127223400279993
0.124947551253011
0.126836706016275
0.12472434418175
0.12414881006344
0.12315469284162
0.125133765572369
0.124302542950684
0.126258479149648
0.125231630732844
0.124054253411064
0.121912277630997
0.122987923920331
0.124869431846675
0.123785337144724
0.122136861789763
0.123131504810853
0.124928103904976
0.124701814000728
0.120451195104213
0.125126365566409
0.124095234527967
0.125422203480514
0.121489304068847
0.125011334177548
0.123572272985817
0.126845521046766
0.123127897340904
0.12390608085189
0.123836512696812
0.122248958561977
0.118972631924476
0.122334926889156
0.121551618444898
0.122870000924041
0.121494399359029
0.12218454638071
0.121291185871062
0.122722268605425
0.120480120703257
0.122819751305243
0.119264043528796
0.121638465626514
0.118817854541028
0.122435209332468
0.119540693787279
0.120561841670218
0.120177436281818
0.120480724727607
0.12096214013054
0.119023508461142
0.120835008254973
0.121549297877295
0.116810253032176
0.119707725896963
0.12012254246584
0.119702239825553
0.120216864996114
0.120245557544732
0.11859346384774
0.122788356349275
0.11711538981684
0.118128001279516
0.116994549000667
0.117446770302214
0.118068058142922
0.119582806487342
0.116034850305236
0.118222695474942
0.115130208439582
0.117830738805864
0.115588449801275
0.117253065361441
0.115412779778204
0.117079134590972
0.114267772102704
0.116805068486712
0.116138849685966
0.117129430786408
0.114456420931528
0.117402851336524
0.116087933497263
0.116779119234878
0.113757239244289
0.116811435748149
0.116688372201041
0.116741757142993
0.113939289408524
0.110238402263852
0.112156855617549
0.115646748046749
0.110981310889631
0.110668175562582
0.110975650635951
0.11343532845827
0.111064811348168
0.11249106317217
0.109251340340608
0.108166256250799
0.108687330679332
0.11012465141086
0.106126750745273
0.109080194704825
0.105823996773887
0.107451860454598
0.10640105677443
0.105438775651412
0.101101275713151
0.104201834756927
0.105688131918733
0.102522010894644
0.105033447677164
0.105325443565084
0.101745571441635
0.10243936970947
0.100176610327254
0.102307302934159
0.101281095562902
0.100943455947663
0.0985840358066475
0.100521034102046
0.0976893171995334
0.098679906417869
0.099282964389388
0.0992918187723718
0.0967413991891883
0.0992227821316522
0.0961465948147445
0.0971266592472755
0.0960906707380701
0.0951340699466841
0.0938978605697813
0.0960691383988247
0.0946393149215938
0.094261432626961
0.0923579691995911
0.0946726644353946
0.0961908387686908
0.101353508553018
0.0937824535351562
0.0934481064641578
0.0957856265393302
0.0955729846361368
0.0922680119334321
0.0945114641992838
0.0920179906393344
0.0950526474772997
0.0937307772701762
0.0919485596563357
0.0926187501158697
0.0951610056773357
0.0912524562629855
0.0938713242928882
0.0915715097843439
0.0903723835182163
0.0916744506050219
0.0945275857577145
0.0905342274979224
0.0904210894379769
0.0897444782140473
0.0913179232674916
0.0905375683401421
0.0904970503717799
0.0905886420309453
0.0962507071633284
0.0949120894866018
0.0934209379497343
0.0903521910583262
0.0907337518554516
0.0881983788707333
0.089981624685407
0.0892254970628193
0.0899612295344441
0.0890877346018987
0.0878191473516041
0.0883885720959466
0.0873378159869431
0.0865392996818206
0.0877327949465511
0.0866818533497153
0.0883040794496161
0.0861322406944045
0.0880888123205786
0.08664590118252
0.0870228154612888
0.0858450494777404
0.0886107487942117
0.0881081229049654
0.0891308038575303
0.0841551996858835
0.0891197911434075
0.0982504488233438
0.0897404444921274
0.0878156343007438
0.0891558916880043
0.0855854566691191
0.0848358137941647
0.0856379058089717
0.0881943976681078
0.0836779524889526
0.0851599938256507
0.0843468768823768
0.0865968649225008
0.0837891356313584
0.0836473200220627
0.0862216930397494
0.0844970607459345
0.0830097558889942
0.0854539087502545
0.0864751217275416
0.0864416892993499
0.0849961952176383
0.0931284678694283
0.0876712313458994
0.0876533978843529
0.0869921421052149
0.0791773401053089
0.0952217072789891
0.0958176803847677
0.0828043946882865
0.0851161267595847
0.0835698803595584
0.084469710036297
0.0822313329287008
0.0858719865706714
0.0838996701738017
0.0898630572616471
0.082101779779485
0.0865553231543748
0.08579995663127
0.084933440331637
0.0822497700265912
0.0820790219342767
0.081030680885652
0.0820621408768275
0.0806551007968579
0.0833173554899641
0.0806742770264873
0.0812278002384222
0.0808107434925361
0.0823207556142151
0.0838429782022451
0.0877735285917448
0.080671334501589
0.0839204191987171
0.0831329069543889
0.0800955852087803
0.0835542348308276
0.0948566597682824
0.0805704543016823
0.0840834066089196
0.0809318319800458
0.0808423741218658
0.0789987084715707
0.0828788039746914
0.0784397469500947
0.0806752514633341
0.0820641777280628
0.0828399940785492
0.0813273157602342
0.084095708507018
0.0801870134718997
0.0837408812126099
0.0801790694113845
0.0819860199052123
0.0821810258191781
0.0816471435043011
0.0831615452007415
0.0804402253925568
0.0917182659674341
0.102301761174327
0.0874128959460515
0.091633853347283
0.0834269849254029
0.0826004695309286
0.0800870903652062
0.0815503857278685
0.0803428657526616
0.083171750014815
0.0804812040775413
0.0834778209339264
0.0824501387750357
0.0831457743895099
0.0794123477578043
0.0831137856372953
0.0792747153330017
0.0822070979948126
0.0813291209764295
0.0820345373093037
0.0824981292384771
0.0839527115753998
0.07987121725317
0.0825843063949581
0.0840305790823981
0.0825027035527815
0.0765071945476712
0.0935659912883215
0.10213411465912
0.0849855105094173
0.0839240484261005
0.0812632595030829
0.0795878830456984
0.0819715492520536
0.08247826956187
0.0891147253122138
0.0842594918762461
0.0835825882885618
0.0820712785812472
0.0829142355704268
0.0820609905631584
0.0787433629492944
0.0882409570374138
0.104455442118798
0.0907216471835195
0.088649253076226
0.0822282722835536
0.0850474275925503
0.100894324033261
0.0901480203519143
0.0841617815329506
0.0848833746811903
0.0816691977198434
0.087882056555033
0.0822238152338046
0.0858763849049006
0.0883593959231757
0.0889439371406541
0.0840921082787617
0.0858498271015235
0.0848747533519126
0.0874152361298569
0.0854216927274063
0.0895086782978231
0.0910396406993363
0.0866519237523549
0.0865324373634387
0.0906038161850771
0.0863088290187072
0.087880919966022
0.0864223257373974
0.0890851391335236
0.0933411093014136
0.0964895621381933
0.0891890836431911
0.0964176165717436
0.0982588035895831
0.0877447954959124
0.0866305226394119
0.0942266110474234
0.0940170039804967
0.0874815650401538
0.0900593323658422
0.110044742625997
0.10208593717167
0.102916222440295
0.0942400993989942
0.0913423133832952
0.0931466900222879
0.0920601877248971
0.0910593865272789
0.0952006671627313
0.0985286020911584
0.0916064126349743
0.0922534626075728
0.0948611220219646
0.10390060723037
0.0980255417713377
0.0954070985268276
0.095445528665254
0.09284739645877
0.0998648198274602
0.0997767485080345
0.0903424155089758
0.11590249850407
0.114494001464021
0.106249302148205
0.109836143726793
0.0993383622929373
0.115698940352873
0.106400676032843
0.0999136509993374
0.100271970820852
0.101042146882613
0.0985697773418725
0.0984727084419675
0.122576213102803
0.114766495306673
0.10241160845619
0.104922320731765
0.101738335339752
0.121665486009723
0.119214775484169
0.104432801774034
0.105654041270864
0.10699144739459
0.102798128305504
0.122204847136699
0.132693901233153
0.116278410864444
0.130157165238437
0.124987176627241
0.121008366068178
0.124129921724221
0.117842828517682
0.123985721490718
0.131396599470109
0.126604774160368
0.113169935666513
0.12515430774996
0.140325592140583
0.128934647611083
0.128705854712735
0.127597054681705
0.11535087871222
0.140242167627471
0.169623959403732
0.151407373466899
0.1317044910219
0.134531951328003
0.145356430544526
0.138511629171405
0.130366365600987
0.137859479937281
0.136602743041814
0.137837263810664
0.139567522340169
0.145525954604913
0.140936412544469
0.141102451381414
0.143646549295204
0.146157406370421
0.158089587167532
0.188275997131055
0.17415156593462
0.166747018345911
0.168969546785398
0.175124751322663
0.16098805379081
0.163393542059904
0.162636432054869
0.169813416275191
0.168144833541476
0.168925789001301
0.169518214245776
0.18547858235879
0.185772990137323
0.192070490825092
0.198513456101568
0.194885951629672
0.186145737917247
0.20167113431199
0.269450229628638
0.240971595834847
0.205198189169249
0.217718102154551
0.213721662915133
0.269569405879198
0.240264435929081
0.229466925062147
0.237856780258418
0.241465441428453
0.245538206894525
0.259024282983348
0.263461430502471
0.27570600705209
0.273165471070555
0.271071083747524
0.272080765941414
0.339951093384694
0.345788079972145
0.320465997098667
0.309819537834705
0.326658401448361
0.334245122137137
0.33272648812562
0.338712906269497
0.337712091364798
0.347503237132144
0.39727283381506
0.378649797389583
0.364198185941405
0.388255807978334
0.391344676256295
0.393312745391961
0.409289965308931
0.442613018092179
0.413707571823075
0.419976297694573
0.423865917546886
0.428628232722078
0.433359683091585
0.46645134149131
0.468522820924494
0.457141666498919
0.471909874556337
0.469940191837683
0.475225852969762
0.485342170441067
0.481887059512775
0.491159723741489
0.501341721705707
0.508859426172442
0.634457475530079
0.56229025360601
0.514997716785971
0.517898002177086
0.509432455939407
0.52867985970329
0.534297065916677
0.542175020485535
0.562291142100091
0.51760786530597
0.520411252489232
0.534725678521399
0.525252815197068
0.532551762533211
0.524620237164798
0.527586479215304
0.540880345112213
0.533973619403912
0.528326423120763
0.595690960560683
0.529105338402799
0.506174791649349
0.514400684258159
0.498895241454154
0.505310525606305
0.496908000587304
0.50435390768107
0.507180891426015
0.503996440388827
0.484237199816843
0.484425965006276
0.489906517606285
0.507472801394634
0.473826133341213
0.460950796474371
0.461019233850284
0.459343313371712
0.443761651569466
0.451002117983869
0.494371174522207
0.457151028363506
0.430517435467982
0.437235978378288
0.420611895283422
0.42098439953406
0.413683488109937
0.42056015498864
0.407631179200733
0.406169902051383
0.401485843236095
0.401437110792593
0.389627628636156
0.390623430512278
0.393079050372882
0.393221743372612
0.383777094085389
0.384573392599145
0.37648736343042
0.377326999790759
0.377476538096917
0.380056504155857
0.374577561366139
0.379844254974167
0.371667869324873
0.369050831043173
0.3687693464895
0.363617558737171
0.365420984556585
0.370550837778319
0.36149426905561
0.36085267282453
0.35810870795243
0.357769242335638
0.357457140623739
0.361705422629937
0.360210633911882
0.358189515027957
0.352363889664672
0.354362442529703
0.356803423184912
0.349784036660248
0.347197585133162
0.368053229072777
0.379263907962912
0.347886815658274
0.346891167082231
0.353597575365461
0.339169129490377
0.340577159546919
0.354733110030992
0.370810991696138
0.340031592184554
0.335552533194888
0.326956754620346
0.34212910536674
0.33876245037218
0.337256849419343
0.32658056431757
0.329749641068848
0.344278944990393
0.399486463454535
0.360185676476002
0.39309914840024
0.348450732373946
0.321079510806996
0.336946059261126
0.348728602699006
0.332206917389251
0.312099450700702
0.322306548842788
0.327255224385796
0.329607209280444
0.317210512472477
0.313861765789531
0.307754947288793
0.322891718517594
0.332072564121476
0.313375370305746
0.320206130998018
0.34020511242333
0.31830217324665
0.321591239046764
0.368421749824112
0.327549559390266
0.304551387023484
0.29783278104472
0.293734827739028
0.303346143887236
0.319179177506602
0.30869533183879
0.295305055860011
0.286458388720391
0.282065896426423
0.288493363870348
0.304564551515327
0.290894872072594
0.293736246098218
0.289009033133506
0.291943691100336
0.270461652525235
0.299993682467666
0.297890827012404
0.321183697336732
0.283937370711345
0.274141230174389
0.289743642806539
0.294646307794287
0.282300854915863
0.279469670275938
0.269194890947457
0.274734623773244
0.282392646753591
0.272236452899003
0.267988552053694
0.274615032644719
0.281876093775934
0.28224152679275
0.307312540192057
0.306296656510508
0.275816413199066
0.263919392910721
0.259614934117695
0.27172482739965
0.257097967052592
0.264899757748347
0.269542695854195
0.272174869315041
0.268968036840112
0.288636794065371
0.283412800493072
0.268052247421104
0.271810205615554
0.270264265560251
0.281573866234302
0.307861865898843
0.310778443119679
0.296812967149212
0.29102295047136
0.301445966275952
0.304335283637928
0.298636606378246
0.305892635713238
0.304019688448978
0.314512285123746
0.321074382477122
0.329405563966679
0.32731781040755
0.33666005969254
0.336096973037344
0.360348309329759
0.369802540595873
0.371631552261649
0.363661318390544
0.412755555730995
0.409073916130868
0.417334232655181
0.401171402080156
0.414084544275254
0.422872119066563
0.430140016869207
0.434802198907724
0.448806017707532
0.46938432929754
0.466290632940362
0.454901483967441
0.47691191880007
0.467094452416636
0.487202005427234
0.488125535590834
0.516755248443063
0.524775564616866
0.548826619711063
0.52088739491681
0.50555610139572
0.505947186848097
0.509742646699497
0.51722749725799
0.512076492946353
0.513256399317519
0.517695266111873
0.533399943933416
0.526441009584306
0.516532068996637
0.522855787461598
0.522756936052166
0.523302541069695
0.529656740701592
0.529853726411922
0.529214132857124
0.543009148841104
0.533820696019592
0.542453469362392
0.581911970949161
0.579791377941835
0.550996104945114
0.56550279311852
0.563876318761437
0.560648185345321
0.560172363089663
0.570798357340869
0.582566389181903
0.578956798351308
0.578638203414227
0.588574583843743
0.583054016420849
0.603416985810016
0.601784127391797
0.601268691986571
0.591111367395588
0.600812400758706
0.607016174746653
0.647335038021651
0.627058276228576
0.614153232474654
0.623465370062933
0.607111763081027
0.615282906530609
0.612393905872782
0.627464466496111
0.626314374677894
0.62244134872482
0.613462648135541
0.621168243945048
0.621330994839186
0.619492414392778
0.617176707269255
0.625437639923748
0.617687090728303
0.608223900712117
0.614435627253723
0.600817769019113
0.604534687495175
0.617510581938748
0.619557076340957
0.610757376052321
0.602837387114929
0.595983235863253
0.609819413952305
0.614054302469586
0.596106375698055
0.595198405490618
0.596148399561992
0.600140962338766
0.595316184891285
0.602364777219213
0.622518025291359
0.625151034192302
0.612169266056636
0.617420286374279
0.613060760718807
0.630553033464091
0.629862217683778
0.633996626966232
0.625486510301235
0.639291397367415
0.646930520651783
0.643905681199392
0.646398391450177
0.660753835365051
0.658815948199
0.668804952517913
0.661126497914222
0.659915195819091
0.658466036702997
0.664030730253821
0.670569938948081
0.664811857553284
0.656215782005416
0.664506661367912
0.649926195383626
0.658258080423185
0.671846873171927
0.667337035226551
0.659054449893888
0.661696875949704
0.646721899323574
0.653147927562474
0.639248851144389
0.637241121975132
0.639277783421647
0.638056626082713
0.62813937316919
0.632781497628343
0.631660672987183
0.628565692867719
0.626275464875201
0.625576140116058
0.625230026098606
0.623871842056368
0.612531404095732
0.617233645018679
0.620093476921924
0.624593916571672
0.614414278274888
0.614759611047731
0.621844135443462
0.626978390229478
0.623100416937451
0.625301843088723
0.621182859763828
0.623123165845324
0.617039619642563
0.611521766843121
0.61649300260725
0.610348608450473
0.604272416778112
0.606501575116751
0.609418758017136
0.599545212011553
0.598431974532887
0.597499395541948
0.59869733197869
0.596584387926415
0.59084036960424
0.586048637848894
0.584172855074613
0.58207334921077
0.580147802320313
0.576760908269437
0.570830835724624
0.569201806820368
0.569429665503558
0.567468822489391
0.561099602266544
0.561485345302662
0.560581914067113
0.559727325365652
0.560455912969025
0.558219314236432
0.559530281842627
0.56106408543448
0.556479106599363
0.556662268376037
0.554506801021118
0.553749373825208
0.552384509233505
0.549701106751966
0.547206705489658
0.540860279276819
0.539732497969294
0.537300356109281
0.53696852040059
0.530849874178536
0.52749820621287
0.525622309691394
0.518690196384303
0.51808440199726
0.50898708666213
0.507383854590332
0.504945397321206
0.500378341802267
0.498102235910015
0.498969740656081
0.494935127941917
0.49210436019208
0.490045836538988
0.48650176364319
0.487220569409704
0.488063270121619
0.48437014316733
0.485002636977296
0.48224531313769
0.482522549985529
0.486692732609217
0.4854804699627
0.484721038555729
0.487764336683997
0.488682192060866
0.490288836150272
0.486845598270604
0.49075486723275
0.489774189063015
0.494235581707736
0.494335559529357
0.495846993114117
0.498606668009287
0.501896880615141
0.496597839349128
0.501279977133718
0.50373943278791
0.502929869635623
0.503309013753455
0.505166860813839
0.506846439182906
0.505421040149878
0.506153366486118
0.508559132272912
0.504966168138805
0.503168288005222
0.501395413108488
0.503391620794108
0.502492330834994
0.500243143458775
0.499629969389698
0.499770230824067
0.498322387630095
0.498675690701655
0.497589146888773
0.498555458157507
0.496283573012138
0.49300813970931
0.492453785993917
0.49447131716326
0.491522706633645
0.489098414329095
0.485617530310564
0.486577200002671
0.484715123506657
0.481101529501055
0.480399729588533
0.47827867641598
0.475457928819098
0.474160847589478
0.470519784224531
0.469872331521844
0.466474931432039
0.464491720961611
0.46073810926292
0.455808682504494
0.450275805102996
0.44542001929514
0.446098038229488
0.44270013550816
0.439644378616638
0.436814848736856
0.434149841733548
0.431277215785772
0.426402906975588
0.422568625494012
0.419339322752902
0.415981196041754
0.415633467030043
0.417260267208248
0.414592662997819
0.411904632168564
0.411520086463775
0.411836848518706
0.409323931996138
0.412220378792912
0.40981680343085
0.413019640461801
0.412959474239217
0.416131969112889
0.414691003984751
0.412733841363357
0.409618634375101
0.4067812121556
0.405823231669371
0.399459235152213
0.392700345934112
0.39132634342859
0.385266266391412
0.379847681649113
0.373908305381751
0.367299200281209
0.361826980806417
0.359081086533623
0.353412534262547
0.347476434777917
0.346375277291496
0.340599312363776
0.336676146803265
0.336659940898554
0.335685629242748
0.33699159021742
0.340116983227332
0.343654899887485
0.348052989234569
0.353516550503365
0.359265276099799
0.37110205499172
0.381538467150268
0.393314247306432
0.40475145201479
0.416731613992248
0.432968003906133
0.452578596146002
0.469238953363761
0.486770742651346
0.506144522018008
0.529055621566251
0.550920583352481
0.576125996272427
0.601792860277535
0.635207208937079
0.663439356874386
0.690111829584251
0.717431516686342
0.745381693611543
0.780076248480287
0.810112108813327
0.836420504156319
0.872730445001456
0.891849762312082
0.916540330470737
0.935759151856181
0.959518292255082
0.979581776761051
0.998145436676132
1.00445472278967
1.00115238782375
1.0114724192638
1.02121550999329
1.00404950516357
1.01183084905764
0.991610747579504
0.984936288741443
0.98362019256023
0.977262463921023
0.961012442929622
0.953274735296379
0.94178950613422
0.934922167102477
0.920521639962794
0.917711379556873
0.906025282569621
0.898894306580171
0.902919410575103
0.900558860987014
0.89167039290887
0.900807492168541
0.906052404073252
0.907180276468819
0.904436731458196
0.921093158870499
0.926500458807812
0.928483132501637
0.940452373594837
0.950220153547274
0.968584320146345
0.988221336758811
0.973837686593959
0.981661543044677
0.99077890102728
0.9992299223801
1.01856482609592
1.01954321225312
1.00717218188746
1.02553405603439
1.03074492513901
1.03898750706828
1.02989100499499
1.02554856626957
1.03434215809471
1.05040903621667
1.04687575712214
1.05353902746187
1.06173803331084
1.06679680661907
1.07177260654175
1.0757642608647
1.0642763528443
1.08320661106011
1.09855770601592
1.10210204839937
1.08635676645821
1.10039775218439
1.09712877053745
1.10891149028296
1.11219443616026
1.13182881187054
1.12549094517677
1.13105246404613
1.13562766327093
1.15237520095098
1.17922487611847
1.20294720750575
1.2350249655827
1.24920913473313
1.26415737634365
1.30011488279309
1.32680736261877
1.36957987334808
1.40818097423378
1.43484429963893
1.4416100491639
1.49860371851982
1.50625880098894
1.55049917330022
1.55911806573075
1.56356089921018
1.53842228566264
1.58987597911714
1.57101649608113
1.54749200352201
1.53894664716241
1.53044942276542
1.52280855773391
1.49211340690092
1.48021382215132
1.51558726920185
1.49686601333931
1.49600141396284
1.46335692708852
1.47545438103293
1.50256827215052
1.54032317661352
1.49944252637731
1.49195943510638
1.55565569939188
1.56892997703407
1.56038774832374
1.60825398765964
1.6298067064126
1.62607128048821
1.59847327599924
1.68589597735502
1.65043154212244
1.69767434616725
1.71519995775396
1.69123919695845
1.73005088248198
1.82306575051791
1.78008015531552
1.8874965604728
1.88231266804489
1.91444905874079
1.93334592708497
1.97514362320935
1.99876080239178
1.99703377847276
1.97176845237952
1.92459771111247
1.99522493777454
2.20140721149892
2.04272497089707
2.13301277087324
2.08699330165404
2.25044478293499
2.18025121287816
2.0887517809665
2.36760210340292
2.47600530927772
2.17532686995605
2.24255723098693
2.24925555261609
2.47433599917292
2.28952347034177
2.16653995825179
2.38639836897839
2.60620376941808
2.32862241219642
2.21456253311337
2.27141685158518
2.37725252946428
2.09104949082731
2.44559978950716
2.05365991917428
2.38112090492824
2.10299793599092
2.18709433733111
2.11336168525916
2.29925714198649
2.04774827923515
1.95945807390709
1.96948410666168
2.21033633638405
2.10185500837576
2.11364367793626
2.01186336576614
2.20926461395987
2.00772666243626
2.01355904258541
2.00589696972776
2.13817320183797
1.90449756594021
2.0818415398783
1.92696304831813
2.02387458695301
1.86396287594536
1.85359195538805
1.78620837374085
1.93195995951664
1.71764228042745
1.79969838851856
1.75090947079182
1.78222077616588
1.63970335467194
1.62459648122202
1.59688249950794
1.55559227295109
1.49903039980778
1.50107321802467
1.41899057910682
1.39014425717093
1.31505043402495
1.28800194860439
1.20551359357129
1.18392338079645
1.13053840785595
1.07346106761577
1.03093934649775
1.00862219599238
0.953541994068973
0.912055920223365
0.884570174740799
0.853741005156148
0.826345139652058
0.797777790158621
0.763704975704819
0.751712775477738
0.723666359742508
0.719937935831412
0.700972896290157
0.686101070458641
0.66899911182621
0.668381663045109
0.659933510817546
0.651095332367005
0.633573545953747
0.638848128406153
0.632102016250165
0.632017570220336
0.633449680475415
0.627749776807128
0.627468208661515
0.633043652165179
0.636376120231002
0.646924405145407
0.648596084115879
0.654113534303934
0.657212264255166
0.666135780892549
0.669312209831851
0.67765218675087
0.686247408506024
0.698954786810687
0.697709711880076
0.712011145962389
0.714292032758456
0.724826368838537
0.711829212908838
0.717200488851026
0.707657863077474
0.71516877309209
0.718969606242433
0.720161481780099
0.721228459122962
0.727177130167538
0.723835199509256
0.722378521683866
0.720005743154428
0.727983568316308
0.720434489687843
0.727710355443994
0.711230110264328
0.713720533174535
0.696248047862196
0.712202791371551
0.709311737185308
0.710813301771058
0.680574971318603
0.694433225997768
0.679044117873777
0.671271900614712
0.664387269355698
0.666069119148022
0.655884926506498
0.670073405887139
0.65477068078683
0.665773071504996
0.657761709746657
0.661090582340042
0.66124108418361
0.668545149764096
0.667133717922061
0.680574782009554
0.670534840278153
0.678889088804264
0.690384797244489
0.700043112415314
0.703902573583964
0.725867350203241
0.719002128672653
0.716025149483481
0.705618156779708
0.723519860036022
0.693963003252265
0.692024456900088
0.690046602581557
0.67735769198114
0.674869710448302
0.676638898132546
0.648171144967444
0.650257211615487
0.650078554796557
0.640623226808914
0.632859523807715
0.646949591818025
0.646689184467465
0.637267318418125
0.645265200988722
0.645057352877258
0.646395559834447
0.655935211520696
0.649599852034396
0.663017102732645
0.660296966711264
0.654869982551724
0.661358162049944
0.673313722843538
0.673994047051743
0.669864145332983
0.669944268969239
0.684916002148382
0.674482189461075
0.6935633807305
0.688061112978212
0.691232210635904
0.682413178320447
0.700131227907385
0.708993394845923
0.698413560041258
0.689100221416095
0.694534790528826
0.71709256790174
0.715223075485727
0.696589910851416
0.712354031531906
0.687029897163387
0.714739893394035
0.700200253736752
0.702583871923505
0.717682967878123
0.712331829987048
0.708484497396196
0.72431606829288
0.702895600061539
0.709455137167916
0.710709969150799
0.712339832472913
0.691686817835117
0.689500782281277
0.672500317103149
0.703342983175449
0.685614799785133
0.701605804985037
0.656204037094358
0.668959135226305
0.669223377006016
0.671682649157192
0.653324564125272
0.654484329703925
0.655162636170228
0.645969991143053
0.651116661874819
0.653295595847294
0.637594692017862
0.652199510962147
0.648788791032821
0.659310412837835
0.656028440044174
0.660605483783588
0.640194181226545
0.679221987718728
0.661186894606864
0.664617984940548
0.638395027584498
0.672773037889226
0.665315737900354
0.656477769997348
0.647313914800804
0.657960462800276
0.680468757176275
0.693202018110204
0.668723002213899
0.678298927609044
0.689695991031257
0.695635511432088
0.683776827811892
0.682468966255377
0.710582338901321
0.712622479572428
0.710617306582497
0.761924331859604
0.706917920861664
0.738585577959468
0.715188104494259
0.775933918461119
0.752685981993333
0.757648888523501
0.772425240709433
0.814219073510069
0.799428943955411
0.816268292174952
0.817311364162537
0.8500907926454
0.842573378728686
0.912071331711799
0.876226806461204
0.943720980902739
0.910722250343026
0.908258767412067
0.909734651401551
0.940408460317428
0.904820299024859
0.904642187895343
0.899757855766089
0.938837110310544
0.905468791792687
0.918819712739071
0.899226911531782
0.958348341503732
0.891896497125022
1.05172252138629
0.952511964927431
1.03034231846364
0.977620639901391
0.978769460520424
0.910711115786653
1.03957171459498
0.914402470426264
0.982686325647469
1.01108822427292
1.01772828465295
0.975277046220093
1.07436663048692
0.945208609388503
0.969627131669306
0.98311065484326
1.03583736546686
1.02761415444734
1.05748397561396
0.873902594353487
0.982114316001962
0.961110021809336
1.00524968126056
0.933595011126007
0.980464564382586
0.950490969947355
1.07058830956594
1.01385802752277
0.986166504034618
0.85074371255034
0.959655652356041
0.985139576192067
0.930939822856271
0.919042544630792
1.00302342272879
0.910657006314551
0.941708262600006
0.973764048421863
0.932155384455665
0.868366599373655
1.01240432481296
1.0286435850036
0.952417970338604
0.908552165371813
0.933438443764681
0.922183185612519
1.02083322768219
0.953487489201484
1.16549719618304
0.930177047640732
1.06078286196008
0.988713636247311
1.07938954994519
0.95981896915494
0.985397496754504
0.982362962813562
1.08867874218264
0.992460696896257
1.12085418314923
1.00599735686834
1.37163048394132
1.00883691304154
1.14945372760037
1.01787066878513
1.14810586076942
1.09000567979847
1.23081173122323
1.00938981241003
1.16515439872716
1.1661601310546
1.39057845057217
0.993492011299557
1.31778296978343
1.00579663624724
5
1.11979192832249
1.26309746803447
1.16312618306375
1.49419387713888
0.9943745604749
1.31153238403485
1.18761536754064
1.13525695034867
1.23271196719242
1.13808448255125
1.00580120849809
1.15745930215189
0.969421514732388
1.2256155298866
1.05370986691746
5
1.01980893798968
1.10892554475824
1.19841475215205
1.39154075202855
1.05240773987056
1.3886504738756
0.94986309696155
5
1.17804705894466
1.13994885528818
0.969705595588178
5
0.941835519586071
1.30064478101793
0.93403628116591
1.57901302940371
1.05578283256941
1.22596398595329
1.06917692457672
1.57174594313489
1.02047530066283
1.37356341741035
0.754914814869681
5
0.932751952839473
5
1.37007336051348
5
2.57778665314397
1.11178112694788
0.868716266940967
5
1.01374766123153
0.972841058955004
0.879886733028656
5
1.09268273878405
0.749565143277346
1.17845918918817
5
5
5
