3596
4000.36533379555
650.420452594757
1
2
2
0.0814424062482256
0.0688573144961386
0.0803113402778165
0.0683787697471342
0.0804712681355191
0.0829185747622735
0.0898975373212317
0.0754314373642136
0.0848116458956972
0.0742036563144721
0.0852648057349585
0.0756589183447679
0.0795402598565952
0.0705461129625844
0.0715551381767834
0.0683078278050126
0.078121624681405
0.0681080035214334
0.0823675796273688
0.0729183104269245
0.0773468166813358
0.0785706149633962
0.0820969216177048
0.0733108847757054
0.080402283108526
0.0687182254676185
0.079015319367806
0.0670816240873172
0.0760887716610638
0.0766878811688333
0.0755497495676639
0.0687756136640347
0.0828211424217744
0.0706766668348509
0.0753209588093929
0.0738687682210078
0.0759167495324229
0.0649677020009499
0.0772676693430707
0.0719668132456942
0.0862806794747986
0.0717715974627785
0.0777270320592454
0.06857211029768
0.0810443439270587
0.0703091966432267
0.0861106957431947
0.068647601941876
0.0802395456425031
0.0708366598701509
0.0772509517396311
0.0759581824660854
0.0905084702222253
0.0865499811674038
0.072858743656323
0.0836062336255168
0.083164054119467
0.0692838207233327
0.0801360597284072
0.0658522787746521
0.0854127024213915
0.0925870031326513
0.0737711855372517
0.0729277278323811
0.0785488102597966
0.0757952787505503
0.0817386132119091
0.072860546995989
0.074576638994123
0.0695330180697445
0.075431468016566
0.0797762757989385
0.0900716327428424
0.0655568930051851
0.0826007095116838
0.0721526553485675
0.0702457134646054
0.0670531963849754
0.0665008471005035
0.0676246587912694
0.076783038791788
0.0712888188265762
0.0739616996708024
0.0671213746683803
0.0735722707976471
0.0800488337422463
0.0695182895539797
0.0599006945209008
0.0901534380196639
0.0746650399419958
0.0750224923457342
0.0656863450238604
0.0670474449682868
0.0650274156409498
0.070341679576523
0.066776689299513
0.0720495974330787
0.0688301586996083
0.0717376799889165
0.0633491468798699
0.0754794483240979
0.0483181507182301
0.107428192047138
0.0713435747649225
0.105779852284437
0.0864880440474385
0.0621759777119253
0.0987261988781251
0.0787776485486166
0.0760482680066122
0.0696813115236187
0.0704921588917893
0.076977945454468
0.0662706623535103
0.0683683654343149
0.0827758067835604
0.0998657586748012
0.0746494557186369
0.0725613505343954
0.0675031462849603
0.0638029415459194
0.0640413309108169
0.110440748402629
0.071978729603926
0.0798634103327551
0.062896697700992
0.0657671506521345
0.0933346075051159
0.0998660388151818
0.0619997494178113
0.0687141857931923
0.0631979778967209
0.0741357173414573
0.0545163615791451
0.0999402500367018
0.0747118051801764
0.0692656421677392
0.0544527428452317
0.0699016525540963
0.10752376800464
0.0785677091401977
0.0592211229437315
0.0585860036099237
0.0578432815931078
0.106324812318365
0.0802144142216585
0.0653126400819032
0.0744940687485839
0.0805356643662911
0.0541118635592033
0.0633371898785192
0.0536367052382691
0.0784206234223701
0.0717417121691755
0.0371056910138879
0.0632326930725735
0.145553014959282
0.0628864653144511
0.111596589168466
0.0586336071021873
0.0776052451895115
0.066595583907497
0.0654480022715416
0.0636729894199507
0.0689207469363768
0.0561966128601644
0.0668003924995633
0.0856112469920284
0.0763236431376747
0.0648912134649645
0.0863180999550133
0.0823123508491627
0.065936433406593
0.118329483811176
0.0906926709474975
0.0474334373828972
0.0968579536595536
0.0782220379486429
0.0607394109156626
0.0604754154368296
0.0963148334494081
0.0606347404904337
0.0725130994683844
0.0605071481982689
0.0660425663620025
0.0776326889145439
0.0716987628609395
0.0590701095089475
0.0797339116316087
0.0485238537753598
0.0729390276977642
0.0994875388309561
0.0932656470771501
0.0658118664002957
0.0710520717245359
0.0375512883178798
0.0923364526926883
0.101008424321111
0.0669585107299728
0.069871807276862
0.0650074740241572
0.0643548101118056
0.0691692525278609
0.056507366292185
0.0620723177216057
0.0446036969927776
0.0934807787330099
0.0843095431920369
0.0706386118511944
0.0602094764064207
0.0708907549600305
0.054606977787311
0.0903881965561808
0.0966833523736724
0.0677346960182979
0.0696798690867728
0.0522504432902268
0.0670595371733694
0.0854710016963054
0.0649929036989271
0.0664412822318089
0.0703602790098661
0.0732298360578428
0.0641069499058401
0.065114334829266
0.0660116609676902
0.0675297527331447
0.0694867368451535
0.0700350616197584
0.0652828355117004
0.0742271112551492
0.0710374595077882
0.0666526094059295
0.0646670915640486
0.0684782939996886
0.0696319312681007
0.0893229341618628
0.0724675732469066
0.0737032485119953
0.0676082524917814
0.0713518144663298
0.0685545190646888
0.0762056920741828
0.0703908064137794
0.0691504092253781
0.0569047608506282
0.0989138885218221
0.0750822103328024
0.0709572130762433
0.0597184820893307
0.0771250739354814
0.0828542321546694
0.0739269788627436
0.0725053114683415
0.0669812113098817
0.0661826234966008
0.0724791810338711
0.0960099063562671
0.077749486034323
0.0742203813949025
0.0922153388502257
0.0808138799483469
0.0675853107417558
0.0649614130390854
0.0571707702489332
0.125053775686256
0.0855880701738318
0.0567088405003903
0.128651832897078
0.0921213379806759
0.0838507274838772
0.0712225130511905
0.0408401471610632
0.144399448798276
0.123685879834888
0.0769016450671716
0.0787643477723205
0.0880900769632668
0.0757003627265153
0.0744081860467237
0.0778438386645239
0.0675375983161705
0.0962656214416957
0.106179992344901
0.128148283542569
0.0678228633790466
0.0872734910783943
0.108494779707221
0.081118437390776
0.0773628069191972
0.073970583160048
0.071677415558278
0.0919222160949842
0.0924300584654778
0.0918179815092445
0.0900759549265496
0.0764838235090653
0.103628450920034
0.0899554234919008
0.0757593042289533
0.0800108833210308
0.0886776009526271
0.0800415756863186
0.0797947692199284
0.076608888396465
0.0827232357754105
0.0782062601860311
0.0731492510039864
0.126560456704261
0.0950741313677058
0.0879528664014653
0.112731052653962
0.0907043345701126
0.0836639996961078
0.0863153376518022
0.0870834858394238
0.0852830353779013
0.0774604489729273
0.0775527683786638
0.109591851678055
0.0937462116655289
0.0762139959111467
0.0830280569518819
0.0837214051033179
0.087114124743544
0.0867881457728165
0.0911027797790006
0.0889980058110438
0.0852314141944698
0.0794955300107732
0.104581880797213
0.115038841347974
0.082776531917532
0.110112582877226
0.123483525103394
0.0934593679552255
0.0964127393029774
0.0902854581231698
0.0964016031338222
0.0944952579600148
0.100040580491532
0.0902248327624446
0.0967677795735456
0.107710012848119
0.11452025812021
0.0977281460597623
0.101838799566936
0.146769188243775
0.166972377712067
0.125964132296082
0.116378729242113
0.101072275855597
0.133590768617081
0.139166248389786
0.135223076364562
0.146923210351737
0.12144755782781
0.119986534551161
0.120575545940421
0.123031963460555
0.129333730218649
0.12888033623875
0.128683133261445
0.132193669621901
0.13706793244041
0.135783126431327
0.131553070242027
0.138217752826962
0.171941630367356
0.16160276518819
0.149391137624289
0.146728386845384
0.143628419198794
0.17073757900422
0.176365591330613
0.189446763553513
0.190134983336728
0.182535222544691
0.194910590510563
0.178431554763863
0.177357745726122
0.160357764047528
0.17174002349299
0.180992423003184
0.183247848370446
0.184675949736685
0.185166490400299
0.182818023317983
0.203070979963664
0.188563213577342
0.190901274273958
0.193220416765103
0.216897538765611
0.216137209429031
0.209585281124972
0.205041255048439
0.216612040263024
0.255558381304944
0.260739165861607
0.230644694030795
0.222566411383249
0.230374752086561
0.233369567961277
0.233995932412925
0.242983793177634
0.254291561191104
0.241393953459387
0.273603935511356
0.263462704394824
0.25514520651142
0.273240896600301
0.258240979260999
0.278048554823656
0.275405401510692
0.275707531408375
0.30603776524073
0.282376049375545
0.274425118864258
0.299575978877389
0.306348642114858
0.309423452720412
0.318250733108767
0.304842974254868
0.300738484526008
0.310044769321191
0.316168426421313
0.312935613969479
0.326828243329467
0.329874503875565
0.339299141535105
0.336333556500838
0.338007820809153
0.341200640260656
0.368742062918529
0.359111456936522
0.359612856723089
0.366769111748571
0.366749608259094
0.375429183322409
0.372381771647721
0.395926227742736
0.420757860862762
0.393604852743731
0.397611162964714
0.391455687235289
0.404759698507371
0.4075592008614
0.39147837870104
0.396507915896162
0.431591815835675
0.428334448214808
0.424188639969527
0.429633237219997
0.438230850472095
0.430813283081808
0.428756706357435
0.443138124501066
0.46036390108339
0.442483337081801
0.455621723797128
0.45986120748094
0.476699344522519
0.480867741247726
0.509303845978507
0.497412906201049
0.502505333080448
0.495302314343538
0.495952730273279
0.47507449030018
0.516860738428998
0.51578224448492
0.524548807033811
0.514479951802026
0.526173597977539
0.547549499047391
0.560571096790691
0.550256305319681
0.552285866415761
0.554726461623816
0.577534461257874
0.571030655347823
0.576068706785417
0.568979157746609
0.591347755556388
0.582384175041115
0.630232622088464
0.599584525280747
0.611364904126175
0.613765538545333
0.622870105608337
0.603893961994876
0.640369485082518
0.653560708993313
0.629346254218224
0.635630272451722
0.648699926762828
0.615415400830451
0.657631266250978
0.65151752181459
0.696347785288026
0.668073696689944
0.696212133579067
0.664222163850086
0.678867596742639
0.695518109776892
0.72543532854589
0.719391878394578
0.728798842802929
0.702202568571308
0.737456951394838
0.726865382537472
0.757143236526843
0.751593193686689
0.79332885534575
0.73860520877123
0.759362792300029
0.741591401263655
0.758190756431389
0.773390406914419
0.778807389658435
0.777616880964431
0.783786278416105
0.792509187923934
0.814475264469971
0.791041575009048
0.823541445755396
0.79027424542026
0.807974146512202
0.817954764519827
0.840290194035207
0.82254283006726
0.897758479524685
0.840732665099493
0.890459482003243
0.875431484497236
0.889313726819177
0.893858121469991
0.881009589396609
0.86258118172991
0.907108457981507
0.882734569723883
0.932615087094662
0.885961964748028
0.954183453058153
0.896069245830935
0.965878074704992
0.920411897886329
0.930119811584286
0.922025745173422
0.962634959684794
0.973245684908066
1.02789837424519
0.929869388549373
0.988322543133333
0.988381707920977
0.988839445176713
0.965727356016901
0.963347357008148
0.944810414720217
1.02663993451446
0.962722214417206
1.06357769373712
1.04542729693437
1.08451156184622
1.09442393620049
0.998851664285838
0.996865495245416
1.11268602374554
1.00076416062467
1.02262995932996
1.05549534635966
1.1135337654618
1.08912987432021
1.15106135051964
1.06561510382055
1.12595634247309
1.09518628174347
1.08304363482499
1.08594806718483
1.18205341824594
1.09507370134168
1.18877101647831
1.09082229486479
1.12854930559156
1.10182104044956
1.23476090899394
1.08660934296318
1.13640124527654
1.12185938570375
1.21318788277668
1.13606195571843
1.19597561868269
1.1955384744969
1.28007015626041
1.16714174119487
1.26826428229265
1.22792201794013
1.26919835627466
1.13865583733062
1.23478850736874
1.14961051263687
1.22219842965029
1.16286659182183
1.22734564937848
1.22150358840263
1.30708404623214
1.17059564939664
1.28785672318164
1.32783335533796
1.40199297846717
1.29100459374485
1.28540209293895
1.31188455857947
1.40952513435574
1.24599199415215
1.37669152203102
1.33271460359843
1.41530200734412
1.24337861545811
1.38508540477651
1.23057703343495
1.38456091603244
1.41849479767239
1.29281930288981
1.33245186849394
1.42737123328751
1.35314831058905
1.39554200790236
1.20428784221949
1.44792285233179
1.40009241015084
1.43513352223002
1.27575210078409
1.43961113329052
1.39916055422822
1.43311993375459
1.35788002499895
1.3991209600072
1.38015982213374
1.45195398229861
1.27351239007256
1.52305259803388
1.33360507802986
1.57514441361436
1.50384752653517
1.76984211669797
1.37435495307996
1.37428689390943
1.44601199958326
1.4646179036901
1.43327063883912
1.6018377497519
1.36157074683324
1.68445214732333
1.50764160373579
1.44369984383448
1.47438937024346
1.59032534559164
1.55830861677706
1.65456976645395
1.45677480040239
1.63421082886785
1.43296705153112
1.65134392120134
1.49269632188301
1.52553505097352
1.49245377426984
1.64919052970528
1.47078853792458
1.52514830992905
1.63716223415155
1.74608069641933
1.50990096322681
1.57256867775835
1.37569207584035
1.55023086610696
1.45486667369602
1.6253815098697
1.46228946224213
1.56314736595437
1.49664470230131
1.68502214868697
1.58241104130489
1.68999659393544
1.61068460572709
1.62680181731652
1.52283603669444
1.69202066031498
1.5538924602183
1.75190391037777
1.6670616131494
1.6828382451803
1.46678242977571
1.81944813620559
1.60768726599679
1.48321073880955
1.44233784909989
1.79478629536606
1.5950015881227
1.6256305308231
1.61157656750445
1.72707363404284
1.65996608037327
1.91841284989919
1.48990346044691
1.69428139085243
1.61450598403078
1.66221858664718
1.61832733289301
1.84290010474411
1.6293945558751
1.60635596052519
1.63527751767031
2.15848720671698
1.71919836381479
1.67785788738391
1.57876232524641
1.58907380902881
1.63152403752353
1.61945616884688
1.59383853169612
1.78221765936388
1.50841449537875
1.64318393795853
1.57538360900122
1.86538862789537
1.51248807191458
1.80360057155029
1.66882230359202
1.7067538589285
1.63113942187359
1.7295320359459
1.60579532284541
1.83432354278808
1.8702105826325
1.68375453081447
1.75673108315665
1.81685234709295
1.66869062165397
1.7407698417477
1.59543909977398
1.76558713256246
1.56283173343356
1.50501920993445
1.5836782007093
1.973667331356
1.48864041322512
1.67293729278004
1.65348764856685
1.68413932159551
1.62987152628049
1.81991267174184
1.76998336591838
1.92428775961064
1.59858456966809
1.70257191015363
1.69514917499358
1.70862794118751
1.60171910878458
1.61398063634325
1.59037250410877
1.64013874197859
1.55772603834603
1.72262074800929
2.0180626726523
1.66220295773937
1.59979248411973
1.77315756868941
1.65589246814357
1.71749244781626
1.60682576256215
1.99233643767612
1.54822215230018
1.62518765892399
1.61761744258926
1.85898824691534
1.67690436905903
1.62907974542707
1.63949137004107
1.90747594289619
1.65428395605813
1.59335527212911
1.63529873686277
1.89817310249632
1.68562788467006
1.65077810966448
1.64605325609662
1.6833268894926
1.48427653605857
1.6220153829993
1.76936982745819
1.59480203225952
1.65898374317479
1.71237859590171
1.51733938794306
1.66347564911838
1.82164251570359
1.72031785097831
1.54076164337102
1.73573426398167
1.50348284490208
1.60203433023458
1.54514962065689
1.75042141386085
1.48912723760456
1.68820779828791
1.68497805718926
1.69259604714155
1.46475322692656
1.66993728731288
1.57565867837412
1.6588801865898
1.59532800638877
1.69888118361128
1.52104085931351
1.6429131510907
1.67148954594827
1.79863559273005
1.71691779633698
1.64430980393337
1.55845069237209
1.62459264164627
1.55116498030264
1.58224487517374
1.66673754910767
1.699923599216
1.49109987511292
1.48924432112013
1.47689271459633
1.57071508257017
1.44213977358124
1.6197249788144
1.48397398721058
1.48504217279374
1.61898868660775
1.60036028683999
1.54759550783672
1.56793558455064
1.47785511421896
1.54505998329574
1.49974671925555
1.74075812774489
1.44484783147601
1.56284268569959
1.50704460393718
1.53313151331821
1.37651952886693
1.55595809081956
1.4993776484429
1.46443100859798
1.37958463819292
1.57872000808027
1.50683138255569
1.5279604785424
1.56629564263733
1.61842114621278
1.42533347994629
1.51234154021534
1.42389533679446
1.4444673265318
1.36658674177707
1.47717977902123
1.48078929145876
1.45748552057351
1.40839047227228
1.52371594180537
1.41402843751954
1.44649577434568
1.39891022465014
1.50842577608652
1.33909030934123
1.42023251774426
1.36914679981251
1.37271421669066
1.40320922508802
1.35347264356267
1.32747950754953
1.37783590436934
1.34129786687814
1.37963516422947
1.2589157827946
1.28561678232403
1.25457713640811
1.30494686974572
1.27838855299669
1.30249114146088
1.26813019544298
1.25921311471295
1.26711158195831
1.31182961752091
1.27541808934288
1.25159447574339
1.23539676661105
1.29818320465921
1.30028395292759
1.22419142789201
1.21522228511225
1.24064950953854
1.20885429754955
1.25975044918639
1.20799801459368
1.25104981367311
1.14158738656822
1.21684918946006
1.19386204128204
1.18704491678386
1.18099824863982
1.16412281544123
1.10970613246815
1.16130690684701
1.13973698938882
1.21671642462794
1.19507519277018
1.16909049397338
1.13665120983335
1.14299274775054
1.09658502311954
1.17761986696019
1.10575157497529
1.10708089579201
1.08264928833145
1.10603827362315
1.06092936508375
1.10251060697298
1.0589587760766
1.10151249135765
1.05044220042941
1.05749263821995
1.0721756231881
1.09810175094359
1.04028328559552
1.0184552244264
1.05108826305871
1.03516754055279
0.990116695100022
1.01440561151129
0.98505505483342
1.05741810939855
0.988017812772721
1.01600822354244
0.985959580387164
1.01780562827763
0.95996039084002
1.00432421793038
0.965331574970388
0.965768403846222
0.908006974652789
0.951789615417209
0.925649753745409
0.949104270438823
0.906895733753779
0.922454497005137
0.920085746076689
0.939506375434546
0.889795586071594
0.915885070592981
0.885237579456029
0.89883784455915
0.904843431082575
0.899870296538453
0.869245872710477
0.898694383638837
0.870999246245025
0.861443904245297
0.852429593827484
0.884153235883906
0.850185423275339
0.868358149161653
0.848566660377567
0.851177681931692
0.807308181510335
0.843802156111969
0.805797848582491
0.826237331954239
0.810538747675053
0.809066530091423
0.787996796429728
0.817970408629212
0.783972310283144
0.793357931139251
0.782239202120267
0.785070097235822
0.770334216978071
0.783337223331569
0.757572560151036
0.76988954797472
0.750315126182251
0.762590388403633
0.736282662687938
0.756017126157428
0.726515454111272
0.745426010188674
0.719865545929038
0.721095483436941
0.715165220449386
0.72415344060543
0.710114461649023
0.708208645776415
0.698956493742739
0.712606180982245
0.693022935172062
0.695943959059706
0.683953370216176
0.702210278643626
0.694788286862956
0.69867231156944
0.679787296002054
0.677320149106919
0.65903223747155
0.683657447231294
0.655557249598017
0.667943386842846
0.667843394257261
0.664984992270777
0.648776104050763
0.643977068438716
0.632499778414812
0.636819932421415
0.626908071210663
0.647790676601984
0.616931916418578
0.630327278130626
0.616106989364745
0.615959978099896
0.601290163039909
0.610284447415783
0.600537482993385
0.603074588728349
0.607517449246913
0.614246074421132
0.590968594917459
0.607125937572206
0.576310977366012
0.570819345150528
0.565253546421234
0.577006277166603
0.571775056096916
0.569236371588308
0.562802985013835
0.58114204047874
0.557690130506823
0.559800376049858
0.551092846497809
0.569260654191569
0.546295231606461
0.558040243782027
0.539149904073499
0.549497699695561
0.540836327939177
0.542116708777637
0.525291935427043
0.536530092196516
0.525111389854442
0.531895730438423
0.520969275877427
0.530026532722404
0.502736801471153
0.513782264199303
0.502439187277508
0.523499249210375
0.519611901151075
0.507833474782918
0.501016534236159
0.515884454820067
0.492529748042178
0.514112714268008
0.499901066803573
0.498230143192233
0.490541230604078
0.505124405055568
0.492200051933079
0.499602043291572
0.482401736135423
0.497798788693953
0.489862291497912
0.492221919692446
0.492090603278037
0.489235549103247
0.484453289508598
0.485847602569564
0.4899020576126
0.492792923839998
0.491751294569849
0.50508654740839
0.487090437517373
0.497734270250619
0.481526226938277
0.504770351423893
0.485107521469943
0.504486541279676
0.487953502812248
0.506202177600283
0.496267208067106
0.50457846780887
0.503124217136782
0.517212968917564
0.507468575861126
0.510430658364302
0.509298009455751
0.517648117113226
0.513980339972312
0.516250696287836
0.516916208436854
0.529039227131408
0.51378284321377
0.524590063420083
0.52206528181243
0.541151619313407
0.519549270302758
0.539307582042821
0.534059447490486
0.544947971581881
0.535447617686764
0.55120650959956
0.532360189222345
0.557002406423668
0.549040018941434
0.564631010939548
0.549124936360196
0.573849066258958
0.564687687957207
0.582436456663939
0.568942422284893
0.587603019015824
0.593217276538588
0.611120544855878
0.60015822805463
0.61710577495957
0.600054344487668
0.618434278989272
0.615734984415729
0.63652360518493
0.620423696717277
0.633274601904185
0.631582038164897
0.649937674726959
0.659986524236928
0.6690032286915
0.662976719788428
0.685461469458455
0.660343674886029
0.688625226693438
0.670151402114598
0.697282316666935
0.697820917822297
0.707965403771692
0.697104645748168
0.711344460757988
0.712804890175561
0.72315603534679
0.692186584434145
0.711144272456633
0.700705820941395
0.709331977458049
0.683542541689151
0.715761614938199
0.705908709897063
0.705396345398464
0.686004001903142
0.701542168439081
0.683732639292878
0.695208031402801
0.665995255566303
0.688287629372352
0.675243952876995
0.695574648214885
0.659022399595283
0.687365514314923
0.665906045063247
0.686312342410254
0.663681064047446
0.679422137713825
0.67068311213618
0.677838098314074
0.656750059481348
0.677888637874247
0.673490226341151
0.666333514601499
0.656737594369105
0.660823286080031
0.651080575000996
0.680169334120657
0.651884910602278
0.654149752150127
0.643321222730587
0.67066371339144
0.649595028526688
0.670128586895244
0.648925793775719
0.674233314935835
0.662400477699489
0.669213279935376
0.640126768204551
0.655671403249268
0.639449817936135
0.659515285175889
0.638342240242483
0.651218513726794
0.619278175531861
0.646718097191693
0.621041954935482
0.631935553349261
0.622800048186815
0.636833613980444
0.612493574109928
0.626441216315369
0.614959956072852
0.622519990323709
0.597776071691958
0.61549511520299
0.588927723774392
0.590259319456605
0.589100079979095
0.596537332366189
0.567972326222841
0.586488584301303
0.572429608270811
0.573607634838386
0.564218557525056
0.578068781133083
0.552044276069748
0.563733924002329
0.536689300582216
0.55908967794229
0.54216017125373
0.541390390659844
0.525312116909595
0.539370520894501
0.52738905624015
0.53518016290164
0.523047323474626
0.52724976006807
0.506219918542024
0.513339426798669
0.502805867899451
0.494200252494335
0.495226611606935
0.496487880950042
0.487903822238247
0.494000920947741
0.484139810370228
0.493842422995808
0.483433624510761
0.495406751391316
0.481040952961435
0.480394599704956
0.470163888535901
0.477874838078189
0.464231348433942
0.46230895049339
0.452545354224929
0.468425169077498
0.458304982307137
0.464840586596078
0.442677079352499
0.455092469818639
0.44743442922038
0.449990274699679
0.444379115437271
0.445693024895258
0.433084764023978
0.442058397375188
0.436423241105776
0.444010093959371
0.428199107012615
0.437558601855751
0.423656701847859
0.433314613569302
0.427771564410326
0.427556467183694
0.413894432956868
0.429263040036998
0.414942893252322
0.416473521029051
0.410584556041151
0.41227887371431
0.409034393424946
0.415158806350699
0.402021831625291
0.41666383611063
0.399072157594794
0.409348503453853
0.389373230839956
0.402691961093299
0.39120887968391
0.402513917014133
0.391873794823484
0.396446134772126
0.395068440399294
0.394580214179399
0.38696194570412
0.384555405396963
0.382732932974037
0.387283289046772
0.377105657906819
0.389114068470268
0.377694228445972
0.387481724604878
0.367739193735772
0.383956661658188
0.370917766415402
0.381967597963282
0.374454117729924
0.378283162982735
0.367242695628689
0.381783504240983
0.372083857458382
0.36702267711029
0.367575606078042
0.369394844653975
0.365644187229377
0.371351867433224
0.366294942310796
0.370038623531278
0.36806674552056
0.36718728882616
0.360647003107533
0.368390623573993
0.364985645082366
0.368721596871686
0.357075966959742
0.360492449381422
0.356181234448826
0.361792802855017
0.357233397753636
0.358485235920803
0.351220797119197
0.363181291137442
0.347436423332342
0.358506388952565
0.350828030838549
0.353330106029515
0.350694031985149
0.353954768515569
0.34680910889344
0.353209302097249
0.351321374650648
0.354790182650006
0.34323456362591
0.353250970625254
0.345685239202724
0.350226658692851
0.339809472547519
0.342559142626086
0.339890158540757
0.344775432614372
0.339307585038354
0.344134678918807
0.335209735325747
0.338968645705515
0.339735388990969
0.34001294993952
0.33564548293378
0.341693791186532
0.332784242321601
0.34036187803185
0.331870868400352
0.34962367754932
0.329587260150616
0.339451208417777
0.338909596429712
0.335264484358099
0.32621408503779
0.334860026543386
0.335061488413218
0.336279020410375
0.327546224164719
0.335376113368124
0.324585494996726
0.332723966667866
0.322211010283415
0.330741824123933
0.323643456313655
0.331273063798567
0.321307213217058
0.337628184094238
0.323327181542107
0.326123351192512
0.319997898729174
0.327564437489204
0.31889294088653
0.325979541847146
0.317001069717483
0.325052406945607
0.312828530044778
0.3211890727659
0.313120601940046
0.319282416636074
0.319674681000797
0.320245278457154
0.315835616828413
0.323050378636305
0.314068585897643
0.320721465357733
0.305676225770729
0.315577274845416
0.307079346884352
0.309400297024055
0.308427852074927
0.311623666747346
0.305905348520535
0.313693766438232
0.304585671097333
0.308419581231961
0.303838619144803
0.305053761557224
0.301948995632743
0.307296079913529
0.294059201567448
0.307123418209342
0.297892952180683
0.298977860905281
0.296483727478057
0.299884997937619
0.298881480550465
0.29906469900584
0.295254057668595
0.299846358952933
0.290811315235119
0.293731237624383
0.293556971412808
0.295306609527154
0.290172148877736
0.296496813013284
0.292212466603926
0.29178937856659
0.288848441214505
0.291945555024553
0.28510947139396
0.289421909562208
0.286080173872522
0.287218107942434
0.284473480097323
0.290585710963226
0.278112040444331
0.281288311421296
0.275217818977503
0.286021231280754
0.278465720572066
0.281421551146876
0.276033907503835
0.280882399429081
0.273232535640319
0.277673738616841
0.271713772944051
0.275176878431974
0.278751583503431
0.275318736022245
0.265192892167185
0.279557105163075
0.264165409234364
0.271277908494214
0.259770940200012
0.267948087832114
0.261194635101565
0.262598776707717
0.25870091086157
0.261313561482841
0.260966337194645
0.258224073744093
0.259488757013381
0.264896680247683
0.253888098474655
0.261936873079655
0.251861832950584
0.252908919919343
0.247975451346205
0.254440572194097
0.246227076457483
0.252381545996064
0.248689034377396
0.251376517159657
0.241870193416586
0.248883639871595
0.24416249395825
0.246011153830699
0.240001501356123
0.24551922596118
0.241231898298357
0.245747197718983
0.236790109419568
0.243048043405916
0.238159710501103
0.241211872785162
0.237701983792603
0.240256640579268
0.230413190747844
0.240624698446428
0.23319850386945
0.240889967831919
0.231077706698455
0.238959440507348
0.232367194562944
0.239661447423182
0.233247607378564
0.23581835425649
0.226874311973094
0.233179020154607
0.224383793497092
0.232242836512989
0.226754985764454
0.231538304935528
0.226080495830508
0.229992477512922
0.225340532904378
0.22789407852101
0.22453516380973
0.227876342542837
0.224221144511407
0.228194180425311
0.223220816181308
0.22940966021316
0.223619778049924
0.226978922872392
0.219446439377104
0.222546656185226
0.220061171947878
0.222046980024674
0.216245189904034
0.219758308429795
0.220475923571787
0.222647851665996
0.21436557709591
0.218437579747594
0.212959203249621
0.21977145154377
0.213737988864013
0.217262865793942
0.212543493980077
0.21858319292481
0.21293130725003
0.217855159983884
0.214329310029291
0.217189168043087
0.213334470518922
0.21619628545653
0.2057970898592
0.21441244286322
0.205437677829498
0.213312133123946
0.207572964607341
0.215818473077586
0.208914301274268
0.213503082807826
0.20826850212203
0.211853889049318
0.211294515194577
0.215053532892276
0.205383110634995
0.214650977008351
0.2070978982811
0.211499888807164
0.204726746323784
0.209381454052802
0.202933639275489
0.209563323302938
0.209278341938792
0.209414912197074
0.205456123496295
0.210063954603872
0.204426927651294
0.207309803918927
0.203624343502526
0.207853074561079
0.200960327311307
0.210882013955463
0.201022042223597
0.205884668112871
0.198400973548264
0.20427760511449
0.199600483454529
0.20293390258547
0.199270559247825
0.20104720337243
0.196671785842806
0.203222124433894
0.193120571550892
0.199823477142364
0.192452714938578
0.199049605425243
0.195979168353458
0.198037106474943
0.193905799859262
0.194867417753484
0.191159245720272
0.196846732370336
0.190799715916127
0.196113912278355
0.188370996456026
0.196655396630749
0.188891547795036
0.18992874294851
0.186946925810317
0.192704798863846
0.189453539560774
0.193460665604708
0.185878985201854
0.192813279761629
0.186854233736336
0.18976073451269
0.188597965301414
0.190802808739845
0.187023677492184
0.193065783898835
0.187958988452521
0.193731684804861
0.18513138380933
0.188166259429934
0.183542421471755
0.188792659135185
0.180142056560685
0.190588326141259
0.185021062095085
0.18654288186782
0.181988403086571
0.190723771313935
0.182987347806478
0.188118587745577
0.182070708348961
0.18552132266403
0.183653349861232
0.187720589428356
0.183737553378618
0.183197759754613
0.180504002184022
0.183788763671679
0.17985970503292
0.182384083840981
0.178562361981509
0.181791502588071
0.175055274602543
0.180988316057343
0.17341005001493
0.182031984333553
0.174931638969958
0.179010235318894
0.174256294744425
0.177615940238846
0.1730652323833
0.181970816543688
0.172545611254031
0.17661910619062
0.170328467911041
0.17543387929473
0.170060177490182
0.17264742666832
0.166613492641919
0.173731985566691
0.167343310115601
0.172955878756858
0.166423188330729
0.172332280467391
0.165851773516605
0.171250488788891
0.164872387750036
0.167234869920648
0.164259289484827
0.166677474292848
0.16119493390859
0.167997928678095
0.163452131374507
0.165717182230264
0.164310191979623
0.165657743678839
0.159143117447897
0.16470767515572
0.158721604741119
0.164708760385434
0.160098737686958
0.163201199863522
0.158901425956245
0.16108329195462
0.156298446967008
0.159972307343977
0.157597814603415
0.16039080139958
0.154910247468519
0.15768915228817
0.15381539482736
0.15703619347098
0.152382786502197
0.157452974879524
0.153050990426588
0.155607677330636
0.151741259365144
0.153846552203512
0.1470341359666
0.157217985147634
0.150456012583751
0.153308935645497
0.148140220127881
0.151313389497141
0.146578566156404
0.152885928932142
0.145299028860286
0.151462901995559
0.142794710285093
0.150902938854021
0.144058720660655
0.146390766032646
0.142091247949643
0.147772621004449
0.139933875439777
0.145371250799933
0.142362453673653
0.144518054801036
0.140790229381835
0.1417628377211
0.13933412748188
0.142503466562363
0.137495415465935
0.145107967338918
0.13620775869857
0.141069786585871
0.137423166701713
0.140139053392487
0.13660104366983
0.140525475759398
0.13011607615162
0.13773319457386
0.135133484919751
0.138540488616958
0.134324841186986
0.137898043670193
0.132362264967795
0.13762801322006
0.131644158886895
0.141549247584562
0.130833414469009
0.136031800304899
0.131619333991648
0.140599447859167
0.134592181697905
0.137514391580362
0.130961021299677
0.138078814476149
0.131971214611104
0.136211760509084
0.130397773650442
0.136744889491263
0.131381621754088
0.134450766038259
0.133520539816794
0.140473480340845
0.134064499595167
0.142094751345142
0.13320808930163
0.140415477416899
0.123047776857109
0.128107752981121
0.118827877609149
0.129568696961304
0.125347414085245
0.137503504455104
0.121324469533367
0.124124270843553
0.121717491747729
0.133781325669278
0.111963451449135
0.128294527916557
0.120996221149804
0.126527840878546
0.11657704237363
0.128092743676099
0.115449816189462
0.13041063812302
0.1187438739325
0.1328100562427
0.116718722632084
0.132382747912825
0.122132677245589
0.130119327812024
0.114027851745905
0.134857572115984
0.112690767004886
0.130623018544044
0.106222738520687
0.133809313333764
0.109745813145985
0.127293085000468
0.104700987381573
0.13313994942559
0.103751485918234
0.137571934247745
0.103572248144072
0.140165797707316
0.0996504022898854
0.136845189328399
0.0963131128517156
0.140984388463499
0.0999671886657553
0.150063994209105
0.0975088734746779
0.147352084150972
0.0933692796665302
0.145340852763265
0.0998214025776314
0.153358051947556
0.0965823647577953
0.141526551377773
0.107306540808492
0.145899427289685
0.108091984264398
0.130213796141503
0.122453423396359
0.121899695049291
0.125067456393685
0.115315878522015
0.137913909323162
0.105418436570203
0.14067404164472
0.1065388057532
0.136220184330434
0.110645352239267
0.134331128650029
0.114158609835757
0.126871884098492
0.125075535382551
0.119181792189277
0.124186938931215
0.118298358334343
0.125490566643002
0.120534470176059
0.117427357710554
0.122099604592066
0.117826210124383
0.125611493696753
0.118376797515475
0.120466181624137
0.117595292894143
0.119361137164671
0.120739132259415
0.119508857315373
0.119854071017518
0.118779930257782
0.119731827919028
0.118367178841053
0.1186358365348
0.117659280338288
0.118327396090474
0.12073845053126
0.118136635143732
0.120241452289721
0.118939169905538
0.11910867369413
0.120001220635149
0.120913088614746
0.11845040181955
0.118164663031134
0.120843343173417
0.120258570804911
0.119279925039765
0.119500533438197
0.119353620329257
0.120776628829912
0.12161927045246
0.119804313926358
0.119893977620605
0.122375942364238
0.123300594874693
0.120917358003458
0.121884089029571
0.121163854610798
0.121236746712169
0.119146158329898
0.121707554661105
0.122150839117551
0.123643747513617
0.121756905199014
0.12295510456589
0.123585378024564
0.122641124019519
0.122535702904827
0.124806943286629
0.121616739132344
0.119735826121294
0.121353048604684
0.121606261825066
0.121373963988237
0.123129459601706
0.121784245612827
0.12188293386532
0.122304511906243
0.123988252344333
0.121354410071191
0.121883349052886
0.121171711151658
0.122657995732003
0.1233748005706
0.121344916649242
0.119591351444318
0.122435070861209
0.122717848119328
0.121861678277837
0.120494305573501
0.125014524898244
0.123311842243064
0.122916494474178
0.123485299706913
0.122978707012655
0.121271220389713
0.123268796500547
0.124585198982579
0.125030103039314
0.122940492638032
0.125616552325005
0.125080922635561
0.125447571999941
0.125249438578635
0.125293389425918
0.123860337721355
0.125991060641171
0.124960974579577
0.126367521503295
0.127242768459095
0.12563012507084
0.124480470788105
0.125954290994291
0.126519581672381
0.128960135858644
0.126784852532745
0.130018203544901
0.127032686378414
0.130653006739604
0.126100116147198
0.127704138405441
0.128944363344443
0.129721302291061
0.127828940430146
0.129879731982237
0.129235856482388
0.133341420168674
0.131439847486914
0.130750722740719
0.12841926871732
0.130257426763619
0.129930633421909
0.131894415766434
0.132125082319478
0.131289486078985
0.131786841697621
0.13228093886857
0.130500644721473
0.132599639219343
0.131658080836358
0.132379672327341
0.130665270029931
0.132753972976936
0.131874872171308
0.132969141664764
0.133736105543136
0.13481649691285
0.130520087748983
0.133645257811213
0.131918974258101
0.134503669402398
0.13346625783658
0.137534080569084
0.135245765087307
0.135506496351995
0.133954311366422
0.13672546081148
0.134958617925925
0.135035663040423
0.133617523750095
0.137060812212752
0.135846263098695
0.137218196999412
0.136334062774031
0.136846348380521
0.137115824584268
0.137358148128361
0.140574578244285
0.137168480910361
0.136944021401159
0.139807703093458
0.139543959069662
0.141063536809511
0.139900096475588
0.139412635950318
0.138913217384288
0.141459761901387
0.137566582466886
0.139762890876752
0.140633085223291
0.139399279443899
0.13955762540256
0.138715894327169
0.141095681187022
0.141597453318173
0.137754127954519
0.13965531792456
0.137420519496727
0.138910320550912
0.136762473544907
0.14148023333708
0.139242359987728
0.138088085570499
0.138128947949388
0.138398510419693
0.136070147995293
0.139027164748222
0.137149053628888
0.136270910809361
0.137166094481973
0.135983466481522
0.133973292376827
0.13604825469345
0.135336283145533
0.136604581040567
0.133399439189911
0.135567497315135
0.13376628027845
0.134281661617591
0.134018671571502
0.135961214295345
0.136564085717194
0.136715214407653
0.134980746918745
0.136235201206489
0.134574088904528
0.13744212044236
0.13545990040636
0.13583117137825
0.133026772580034
0.135279821213188
0.133472497692011
0.13690595808167
0.131650133923256
0.135014632902211
0.134267114004399
0.13373945289279
0.131802403268202
0.133705897692523
0.13280428480625
0.133768606817766
0.131571257319123
0.136630905048206
0.130756559048314
0.133857812360066
0.130878578871994
0.133865620330517
0.130914112311109
0.13333593480265
0.129827397662535
0.134577331233108
0.134512258849205
0.131314856525973
0.126944354679903
0.135025441698292
0.130632369375655
0.134332099010124
0.130259213105408
0.133585405073919
0.132584422912965
0.130732166579248
0.130572801379346
0.132356280413198
0.129971284870576
0.131603660318121
0.129050245341138
0.134023366937382
0.128063466759043
0.131384893987413
0.131967147954411
0.132029810956301
0.127925672401873
0.130527431088177
0.129526531419352
0.130021769398275
0.126678368758473
0.128975353169923
0.127909266952283
0.131252388599727
0.127459991532924
0.129777621221894
0.128249055957863
0.131532773937904
0.129313857393072
0.131650115308577
0.126588788564442
0.130500877156233
0.128469483877119
0.129186835185557
0.128435278603563
0.131365986834668
0.127139293013284
0.128744184598605
0.126863542410017
0.129096862619708
0.124831978846281
0.127554132785022
0.125235837541249
0.128807963035884
0.125905256314732
0.126204295546465
0.125504001536572
0.12857100454551
0.124276731248009
0.126419876626307
0.123860360431642
0.127964118144439
0.127820859574735
0.125653006178545
0.123270979379752
0.121450774020443
0.122084397499348
0.123595254307862
0.121943740736068
0.124311325554625
0.120672220148114
0.122792190087279
0.123337147720254
0.12309084913014
0.118619617701254
0.117965622345007
0.119718369350666
0.122574230855212
0.115565239409032
0.11638838773528
0.116501371187521
0.118570895217772
0.117532985680702
0.117192442659694
0.113181166686877
0.117689526351837
0.115382113826133
0.114225342682111
0.11590034236713
0.115046733860003
0.111909336325722
0.112163439143619
0.110923914873345
0.114331350306878
0.112065834750633
0.11116509785278
0.108982485885396
0.110592663195176
0.108476101024194
0.111588720164555
0.109381127042948
0.109167523375828
0.106902504253191
0.108766212018908
0.106840704334517
0.109549337023386
0.104855436510577
0.106012322108018
0.103910865557685
0.107190034750074
0.107684593120474
0.104124652267884
0.103822288700365
0.105863364107693
0.106027889510346
0.114312834533135
0.105782638390206
0.103115905092657
0.104907982968108
0.108151712885693
0.10334624983952
0.105551244848354
0.103224474185081
0.105631098937163
0.103542481938894
0.10323621102515
0.104076436524358
0.106015540945327
0.102160709564971
0.104314096786467
0.103625222718005
0.101718967966937
0.101304665158158
0.105956061901432
0.102478883718266
0.101442050254604
0.101899845812359
0.105936705576968
0.100258185715995
0.102668128039408
0.101436364628527
0.109196456669714
0.104876665786877
0.104112822460034
0.0997969274445969
0.102550881060794
0.0993637175707923
0.103248708401448
0.101447236884178
0.102429573888871
0.101036904845774
0.1013925641906
0.0998953299985138
0.101273081013463
0.100488867243043
0.101527232529277
0.0988159421832422
0.10027054579974
0.0967779217846794
0.0996974327965113
0.097201554455251
0.0985735302536334
0.0968238005095128
0.100660966734207
0.0990574473682077
0.101505880278766
0.0952165439019962
0.0998224374552763
0.113823480653331
0.10184571879692
0.100442168755897
0.0973525357356544
0.0967841630769157
0.0987309938575959
0.0971245397082953
0.100978828826553
0.098062804354551
0.0970338059980862
0.0960836948778995
0.0991392045499457
0.0974325892112447
0.0970747412148747
0.0968423229520164
0.0973346272199034
0.0967039629565416
0.0975929077210116
0.0990100097906613
0.0978021290527399
0.0966465352119835
0.104725128724438
0.101191403067889
0.0976334975277251
0.0987797774050305
0.0926580136980989
0.109999065205692
0.106061073047791
0.0939506926067226
0.0974286943390178
0.0941909500349037
0.0992026398668915
0.0973749763937748
0.0963049480375816
0.0954732630398479
0.100610973194211
0.0953186918906113
0.100564613695172
0.0960890179055187
0.0957292598504893
0.0932006385254727
0.0949017210869821
0.0924598195711404
0.0944736486934012
0.0937579892645136
0.0958201119797047
0.092345026932243
0.0939980999721671
0.093265140637187
0.0932342799176655
0.0934770151391469
0.0995886891358336
0.0922337147152628
0.094351748702343
0.0934833284067118
0.0925870419328381
0.095915285936231
0.107814659549389
0.0900784883969215
0.0955409942617955
0.0938825056376057
0.0937453061709791
0.0914952423378119
0.0946378999559581
0.0920115359589049
0.0931065620367478
0.0892036464024451
0.0933846484430186
0.0917433621794998
0.0927997268374268
0.0926685646471245
0.0953870059575043
0.0886097027773528
0.0937886472343796
0.0955300562005084
0.0920844706883634
0.0927618276548778
0.0912545714048786
0.10484744765223
0.113338727623699
0.099766447775401
0.105434953627401
0.0939503487940254
0.094406119091305
0.0912878590492885
0.0942815304302088
0.0905360893181372
0.0950266462991212
0.092143522127507
0.094637019249909
0.0919334686623797
0.0941332695223512
0.0875939859928819
0.0916598241425559
0.0885631894985442
0.095919075225421
0.0908759751993046
0.0930542432954384
0.0882288876342559
0.0942509030918377
0.0889532162934065
0.0942411461954466
0.0936502393924375
0.0961668001941738
0.0844587524430276
0.110732538837499
0.111024364249285
0.0925861022264659
0.0965910973253383
0.090207261333345
0.0917718302014155
0.0912204082915205
0.0906474583147419
0.0973859513002014
0.0906630342822668
0.0916040030222765
0.0919598595577893
0.0939939503039046
0.0923007795862635
0.0877263746937817
0.0960225544851179
0.115957387600454
0.0973686753701133
0.0974897279554477
0.0891706389816754
0.091459659121831
0.11180316185262
0.0976418584855509
0.0931945195825048
0.0952142568226177
0.0907243352169171
0.0956195987960412
0.0902728264458665
0.0937303064188854
0.0954044030056425
0.0995283354639386
0.0926175038671422
0.0954020478383721
0.0919198414021988
0.0962361567176339
0.0942070353942919
0.0965513023440142
0.098988778445804
0.0954920098594009
0.0948456571403196
0.0982279197909684
0.0934697479231977
0.0949368461400785
0.0935119645439347
0.0959676654967794
0.0996186420589283
0.105820349485446
0.0973132917045749
0.104218273686007
0.101998451699574
0.0967056583564558
0.0966910033764394
0.103854801969864
0.102901698901936
0.0927702775517119
0.0953716199894856
0.11911323336282
0.10584531952185
0.112484376833092
0.0987540723348714
0.101141720112004
0.0961113999141963
0.0996724969893898
0.0967402108700043
0.108888996756302
0.102343860497904
0.0999570744059977
0.0991796549401427
0.100503431392735
0.108264514857018
0.104913865340747
0.10071966270464
0.102842173621448
0.0992410846159337
0.105078518720365
0.103126587788696
0.0954854531552769
0.124819243160936
0.121911467233639
0.113007413244745
0.113310708635129
0.102353282859612
0.129978216038204
0.110209770646276
0.106699090884749
0.10337647138129
0.105546014736648
0.104195722624696
0.103348878427945
0.127221415424145
0.118689132813541
0.106168904876232
0.112901539243362
0.103185192554141
0.128471419258761
0.122651837254625
0.111032150444776
0.111694377289779
0.112750986881367
0.102076630774888
0.136555665468786
0.132246531526652
0.118676038188925
0.135319060282134
0.125222500721645
0.127349964086469
0.12674401561485
0.120320619381558
0.126035531861233
0.135561158932699
0.127567994948274
0.116726743934473
0.129902505531777
0.145459300600162
0.125111262148011
0.131582538734944
0.127742628346798
0.119499005227101
0.14616116294449
0.175097085041814
0.155538727806198
0.134323291609824
0.136613299636367
0.151096698033759
0.139321931263056
0.133515881679682
0.136827444253181
0.136870016533686
0.138250298349972
0.139822086459326
0.150108394668031
0.141897261637786
0.145245198799692
0.145556843436967
0.14430833999936
0.161543586787992
0.195514538854008
0.183880801646398
0.165669847484033
0.180862523504442
0.178960286784389
0.164225236093891
0.164482430918275
0.162918459373101
0.173921673946347
0.171203285381878
0.172430185459569
0.171543459095199
0.192062008526146
0.190912178412204
0.189333266732484
0.205872747875028
0.191634220281866
0.188188333262366
0.19956648388008
0.291528552566044
0.235353912858627
0.210871726113029
0.218912243374727
0.218783652698346
0.281015456136597
0.2347161974147
0.227543408131558
0.235881260516502
0.239122739885153
0.245545023272322
0.256250066287708
0.259345258616584
0.272386501085273
0.267759360910802
0.266684087866815
0.275739543944473
0.340572137746183
0.334121478359758
0.316344195244218
0.302750706119937
0.32352591770635
0.329650599438812
0.321788344436776
0.327801554328873
0.331228949332052
0.328490381779926
0.392310334863666
0.365658986930303
0.354768591621875
0.372878639034454
0.384496026444655
0.379672859288596
0.411460022083565
0.427280503197221
0.405005951638891
0.410967692248421
0.411856075730458
0.416600208771869
0.416544960583807
0.452674577648887
0.456278518549663
0.445123610430233
0.453821203992224
0.451233594366284
0.461947180211836
0.462199382454886
0.465128339514555
0.477724473578011
0.497798556659783
0.495327964321805
0.589059816003438
0.533563047442691
0.493814633762942
0.501553929928692
0.49747059775792
0.522739557289772
0.515102468351083
0.530026473909354
0.542113506984716
0.501688885816501
0.503255130207339
0.51088576638325
0.508227988257578
0.505632891651414
0.507765573593187
0.501684987110253
0.516418639755282
0.507607771459596
0.514675330625603
0.578574050933698
0.505529893175801
0.490875939378715
0.492230838456525
0.480124621112954
0.481619909267773
0.475906719550594
0.487046660053448
0.501793864239905
0.479322966009974
0.466713611773941
0.464644482753815
0.463743113900689
0.486327730523045
0.451668487377254
0.444440275736411
0.438552436057611
0.436933261021147
0.428295165061461
0.423513452596522
0.46163521647162
0.428575720073341
0.410923743733627
0.413768383254493
0.401643228507432
0.406876839196622
0.394507477837514
0.397235193825505
0.391934291941553
0.387012325125746
0.379382920311608
0.381312079777078
0.370021004189109
0.372291018007754
0.375188041370943
0.369231025255219
0.358491271914674
0.361185039500942
0.359695359637019
0.360837423191194
0.353067419965319
0.353811946117385
0.348920367065461
0.359504066663548
0.349352630329514
0.350598028752609
0.350133295422256
0.347037839165869
0.340738502669922
0.342339265386818
0.335350603571711
0.337995600119197
0.334633176599661
0.338194825357591
0.336762551213426
0.338906216930818
0.333724108968091
0.336371891707982
0.327998420669761
0.327964449848566
0.327825549211214
0.326102335293295
0.327948937314341
0.349254144373932
0.355205858725345
0.32550297907846
0.320122312987156
0.321708982399484
0.311565796621202
0.311778760809541
0.335247425985614
0.344201269983146
0.312800083139493
0.311139416373803
0.302378462476529
0.314392727574922
0.313175390321942
0.307256364590677
0.301547670398332
0.299577660522552
0.302786306812308
0.367000620653727
0.329114824699227
0.373206401128273
0.317754406606371
0.291755260689038
0.300862593742698
0.321457958894102
0.298383722224738
0.285292657310436
0.29202273180301
0.299223899069076
0.300031920197664
0.285422482555411
0.283552191381537
0.277927108953066
0.286260242986079
0.296451769846496
0.285762712207572
0.294705982794998
0.305591266826334
0.284277445364173
0.295938198751554
0.328257435035977
0.295826973799663
0.271505872474765
0.271672768619142
0.268794580930119
0.2796716101306
0.301252745665806
0.28154406811192
0.274932937157104
0.264416582271421
0.256172516656335
0.265817291186872
0.28184397660196
0.27172302650518
0.269663942922526
0.272925939197423
0.26982119022293
0.256241271071262
0.276840309676753
0.280344978571865
0.307342641642105
0.263514944125444
0.25968171095004
0.27727657394304
0.287887654622635
0.269938468982691
0.267870491376149
0.257561675312601
0.258563226189569
0.269386664292291
0.260176851275033
0.259455684751412
0.26524142461891
0.270362857048934
0.288695287698548
0.30582862211755
0.304379117854392
0.270263846777071
0.25656855986089
0.256096512351402
0.265918583651773
0.255438067709623
0.263610617599429
0.266303859342461
0.274666295333771
0.270024142107393
0.296033414714806
0.284823718719769
0.272307866421299
0.277645647167508
0.275473265288099
0.285621370058636
0.31096181592317
0.31522663259689
0.307559323776701
0.296079971286968
0.308190433303421
0.30942725683258
0.309314228281327
0.31555514004053
0.316749749793133
0.325476207332255
0.337992804272574
0.344509063412306
0.345558902483614
0.350892465422549
0.356227781874217
0.377780167657683
0.394600133233737
0.387599665551384
0.388411527682842
0.435869059807291
0.433281509330832
0.439865430983969
0.431076004936856
0.443321777303911
0.449161759700728
0.457745789505037
0.460568784709736
0.471583202108271
0.50486520896211
0.495322899610225
0.488368776053362
0.51102154999855
0.507468775287
0.52361428107162
0.536502824983111
0.563147377768306
0.557022895542087
0.584023050812205
0.555694769943297
0.551180734555934
0.54648133916712
0.554208862212113
0.557214547434971
0.549894257986008
0.558653212337227
0.553079173250148
0.575896648889339
0.574959754446473
0.560347730621474
0.55992693480064
0.559566817174706
0.566787748778706
0.567386943473085
0.570138292008826
0.574718296475003
0.579243574471589
0.575407531809568
0.58611297518748
0.637713317482242
0.619417447371105
0.590584924757981
0.600017888736764
0.598635613967221
0.609550703265252
0.596702975838111
0.618197213946157
0.638162724944319
0.623143431516159
0.626684637510607
0.630985516434968
0.623576876651646
0.647502590781369
0.652400722428093
0.647291395178054
0.638225581575784
0.647214367250635
0.65372364836085
0.702879615086493
0.670285702027255
0.666403797788321
0.665105941604286
0.659683248902896
0.66800197590503
0.660536178544084
0.667994824532407
0.667498496243206
0.671240706797831
0.66640389618273
0.662979738194997
0.65995042610036
0.669944048854668
0.668589754361617
0.671529536765624
0.663397048574637
0.653250163161733
0.652874607304978
0.647835948030641
0.644614676897012
0.650801890390583
0.655898366624333
0.638149330159319
0.64015081748037
0.640018321161128
0.650909861384884
0.649432669765567
0.629962746898414
0.62804328483873
0.63024444055112
0.63298037897954
0.640323001938578
0.640486072914059
0.658376861331609
0.662150349287605
0.646471387827532
0.657711047383088
0.656175263386528
0.666710293153657
0.66818807774256
0.67141682581406
0.674000638082429
0.684586249754481
0.689217166114316
0.698092991145989
0.693189507132676
0.699771411203398
0.714071877835288
0.718147658290878
0.713023981302992
0.708947463690076
0.711522235384877
0.717559116644937
0.721775243049513
0.720892573695384
0.71740011758226
0.722610760681933
0.710054048006572
0.721835853220415
0.734993888698445
0.730178848721956
0.722660287948949
0.724391267746364
0.698180439634279
0.714407007201241
0.706158035658243
0.700260106728224
0.699347786629958
0.6978807167138
0.700416934888982
0.699925579147322
0.690442177650443
0.692355263959931
0.691025262182956
0.688705313338179
0.685190953827248
0.686931739248227
0.681820008432579
0.68249474620115
0.674368278443132
0.676333606684306
0.675675927735931
0.67661202025574
0.679485837242842
0.691670482716675
0.685794333748973
0.688484697725625
0.681150606251169
0.677263148155013
0.673597724669337
0.666597648093575
0.670563798472707
0.674791736768984
0.668542591836683
0.659636253630199
0.666191758211051
0.663164205296278
0.654286551731577
0.649628062191
0.64787448620206
0.646713698510041
0.643700530182893
0.627866010136559
0.624757873502962
0.626473075549438
0.628911346318208
0.623946877586217
0.614508702313286
0.611489820784146
0.609487524904292
0.607720392782611
0.603571982163733
0.602591810304944
0.602769758938288
0.600584244572877
0.594978265429737
0.59361793213363
0.594881491981223
0.59468339749887
0.590324103458835
0.593094409947823
0.59296399791844
0.590144137448427
0.586673888569705
0.586079975124384
0.581445266109093
0.579111369271814
0.576218835428388
0.572973560633674
0.569369081489179
0.564647450778888
0.560532115296101
0.554708757469834
0.549072307234788
0.549541097765289
0.542094221069046
0.536838306126852
0.534926713050825
0.528023672501083
0.527713205196407
0.525590517390448
0.521687634355494
0.521786772281605
0.519120129433397
0.517553573273563
0.518192521498557
0.516054914764281
0.508786261236895
0.510810310117449
0.510805082614091
0.509311139056986
0.51116955053306
0.513867042314322
0.509650965167835
0.509788911888627
0.513412375444554
0.515310664287967
0.516146698380887
0.517668795935735
0.517182611861797
0.520242981051413
0.519380362880347
0.522863467965021
0.522143360603886
0.522802836505748
0.521707284682606
0.528107485860156
0.526984815853469
0.527671246856164
0.532211225874039
0.532411583348981
0.528449193282991
0.531798202601649
0.527775348376617
0.528943420449801
0.530784537075683
0.527442667241858
0.526550136876152
0.527860708450192
0.528591212783708
0.528303555209741
0.526221278420487
0.524113741544858
0.525110034030511
0.525602765941592
0.524674729607454
0.522170443905017
0.519045051461698
0.521693990940625
0.522769946350113
0.520895741128238
0.516491615039536
0.517214779157555
0.513638807998326
0.512689340495559
0.509711359227726
0.508092043389154
0.508802532081392
0.50608916032202
0.501184719405692
0.496666130789222
0.495615182531447
0.494284692967908
0.485751952535728
0.485880194045527
0.480922712874526
0.474059637696481
0.473485594425926
0.466595998057893
0.463105709012625
0.459860015852481
0.457238923017719
0.45155389596682
0.447492806904162
0.442980914204948
0.438150297132806
0.434521330917935
0.434758164168143
0.434544537765134
0.429959082248497
0.431131804553444
0.431144992441474
0.431676186056672
0.431535490042594
0.43325284834499
0.432565868406809
0.434160082839469
0.437045387932505
0.437617910917062
0.43536454352904
0.434764983600147
0.433505597903623
0.431836259486943
0.430964734384815
0.42936392848707
0.422035961631113
0.417792128256979
0.416315233778101
0.410465157285292
0.401062065434334
0.397641410654191
0.39175836893208
0.384075386578554
0.378650070464078
0.373082441015137
0.363174520418076
0.360609478651805
0.356724238899934
0.351905145340758
0.350992971294451
0.347289224833185
0.345188081316677
0.34916351753963
0.351849163303186
0.35368844669099
0.356273035499395
0.362626210166383
0.370148718466468
0.380018761330263
0.390320423793975
0.401804268538704
0.413081256396975
0.429858013300801
0.447313782398576
0.468402439165406
0.487395135889135
0.505510621661934
0.532164391711131
0.559845692745413
0.585266008847798
0.617554961903475
0.650307674162448
0.689133332252289
0.726257090417014
0.761890407149118
0.796537703236085
0.840057205462073
0.878601154360245
0.916116050976387
0.955813141015491
0.979901949829486
1.01119035453135
1.05497139551771
1.0761630915724
1.09766927058754
1.12660214760673
1.15069973878831
1.15306077012994
1.16938624496765
1.18649141062033
1.18359994915264
1.16912531689319
1.17372112596468
1.1577846682593
1.1586531785594
1.14267730987797
1.1228141854543
1.10892093339121
1.08163093280298
1.06502831271021
1.05094634795037
1.0346355083898
1.03299245863193
1.0205706329403
1.00525790117612
0.992115288756723
0.996650732777517
1.0005667957387
0.996098651924308
0.997241284334692
1.00216233766854
1.00253202647479
1.01260619060999
1.0235046357181
1.03174269902628
1.04287316754671
1.05229624980818
1.06523792446715
1.08003849399307
1.07794499551245
1.07775249820801
1.08811587349783
1.09213975474244
1.09743249298682
1.11980646262234
1.1174213454562
1.12843668744815
1.14297428790078
1.14831147275579
1.15050649362613
1.15379912487339
1.15870637291648
1.17750240972565
1.16083539163399
1.17257224086701
1.19254233005093
1.18957173204284
1.19364836545931
1.20646951542095
1.21755025549655
1.22227952301124
1.20627916780187
1.20317135362445
1.20048240202563
1.22152653445274
1.21306184769912
1.21294493070689
1.22135369340185
1.21943591343265
1.20419919465463
1.22481322060646
1.2784788981967
1.29171096330568
1.29256178941225
1.30308021449702
1.32953762479064
1.40544460775653
1.41390512670391
1.44624259945559
1.50118770030449
1.54225523500196
1.58968265735132
1.64566933782297
1.65193090000382
1.63424565216722
1.69976898934438
1.83091307395292
1.76938654303179
1.74874409629602
1.73025341203799
1.73824031811331
1.67761006399697
1.76242177485079
1.73153489903456
1.69727412587368
1.67168688714336
1.62570915612589
1.60441258449242
1.62038283438369
1.64249657529559
1.63063250939705
1.59537486189696
1.67384084928696
1.65689566409186
1.61505171717682
1.64616372460227
1.68810565693445
1.73783677524438
1.86504039169258
1.77601533421361
1.81490658834376
1.81135889602783
1.89118224355598
1.93715111051496
1.93862009545641
1.93950209069481
1.89186457881997
1.92606718087125
2.04213725511959
1.82531720389829
1.99629898720164
2.09883295379246
1.97978714349507
1.99347436754508
2.21850488604857
2.10932663649743
2.40558964368969
2.23030731475375
2.36480317858201
2.35898841190737
2.21289256155313
2.39227656734102
2.51736376252634
2.36354972645433
2.81644578438414
2.6492218518436
2.7690421398576
2.52399282825308
2.62934692960479
3.03353513300999
2.71569988403817
2.30143072157969
2.54663335787392
5
3.25053963329844
2.47614706709269
2.6346314343763
3.23501914119414
3.4184361240163
3.00626642637391
3.0029187919364
2.51995325484498
5
3.14391181513963
2.33272103402111
2.29797294470442
2.47999008512022
2.44277011852244
2.74143316872197
3.14073055746268
4.07389977393044
2.52606798654598
2.89314201212091
2.5027997641158
2.25268360338177
2.31679305994637
2.59127995145152
2.42904426471688
2.44765468736054
2.59372903076798
2.96006907523175
2.31084298347879
2.26118762935204
2.26271897130066
2.32245414404567
2.50344652041848
2.35056884866585
2.22529015316873
2.21535520880706
2.30335878792244
2.21233893507976
1.99956580273581
2.05607181616317
2.06160475959255
1.97026200207263
1.82725925470147
1.75705113913519
1.62303550151026
1.72987042014948
1.63805682732656
1.58777273765762
1.46408761305951
1.41565984438003
1.35717880920523
1.3423111847761
1.26330844088997
1.22486822828874
1.17621704085074
1.14471259753735
1.07946364925805
1.03559848886302
1.01426469569365
0.981727269575947
0.940004110812394
0.920801832500366
0.887110503021189
0.860605905784537
0.826582784326047
0.800633633632289
0.793870898837046
0.768350040286029
0.741098270689733
0.729425383456407
0.714139052658338
0.71404341446734
0.696269555779989
0.684299443804617
0.659161640481066
0.664993706212571
0.657296167042359
0.643715851368411
0.646292084986856
0.648946013480235
0.646068358253011
0.651623537438345
0.662139297898503
0.677058388188048
0.678213657553502
0.692397176800292
0.696563128332906
0.713376339378506
0.722234633585602
0.739963764919933
0.751611943490522
0.763541439100548
0.766883550113633
0.790356448464919
0.783420702682137
0.788205883913142
0.784433173431183
0.790134472204666
0.785215662048258
0.79601461641124
0.805162733594241
0.807844106796105
0.792498658027571
0.80243616384079
0.799100387783928
0.803007708709057
0.794043590160465
0.807922877515895
0.808305054216671
0.78941378615415
0.776417511933591
0.787431959350388
0.770828369836107
0.768856291795371
0.767314848944258
0.763008925542649
0.742630871136373
0.733062008335379
0.729334410792048
0.72649380829439
0.716087268913495
0.70521995061393
0.693746105059799
0.703444214876425
0.682205287694276
0.689799485039574
0.688169476807649
0.683168454833134
0.687081863037556
0.697405299041017
0.692845518327849
0.70258857905686
0.703860613816459
0.704445893365438
0.712494063469
0.71757191218298
0.715815644087676
0.729597968255575
0.730659125081412
0.714599609087988
0.726578283419875
0.723391436160223
0.705716953786978
0.714941268145739
0.696006179933169
0.689583926238013
0.668693731282864
0.658103419754571
0.654597459085563
0.647024958301817
0.626276734938706
0.635016279785282
0.638936518167063
0.634271824693208
0.639416326273277
0.642197099881111
0.634473793767881
0.64286896182998
0.638012509918735
0.662873257938896
0.655326858067697
0.669116990656077
0.658441583888113
0.681327782952117
0.688424572803768
0.679121647183203
0.690174734290763
0.702240005002909
0.690700619683516
0.718058536895081
0.706249951497964
0.716165654315062
0.730259951405027
0.744965591484379
0.733840693756646
0.733665836127413
0.735042913653839
0.73904352334334
0.72588139591902
0.760578095855643
0.750267570985694
0.754540504875183
0.747243056563167
0.757242651782656
0.76334172711598
0.747343640804501
0.740320512257339
0.756911362801944
0.743728281383619
0.756052344253033
0.758214554041848
0.787363224451188
0.754066825617448
0.760260503408445
0.745976503578218
0.739019362731095
0.735443578861446
0.748621842579661
0.72588816398596
0.739342664173522
0.726516130737089
0.737997755413026
0.707531058296
0.730305783426319
0.720104758782407
0.698556335307273
0.702808057203461
0.686261495122262
0.672972800254177
0.691646239886238
0.658969119344714
0.680765536543174
0.672532179629667
0.670061177795471
0.676435135090349
0.67879837218558
0.663993198890351
0.68904385176168
0.682223512446764
0.68897766278191
0.671670124852914
0.671236964316521
0.687195056908463
0.702764332210923
0.673765587678881
0.675449429742572
0.708134645788139
0.701650336837763
0.675159601571379
0.717181072016063
0.697590909399241
0.719040666275177
0.713353771100245
0.712144469483849
0.695766159538787
0.729695709134285
0.732662113443625
0.747356007082582
0.742429255682084
0.764058431484548
0.725666922103323
0.802322011968421
0.794674650572477
0.801382479159525
0.775731525100082
0.792191367581008
0.822384650089016
0.824997987381763
0.84024974464533
0.852593833609696
0.902630015553713
0.962757229541572
0.852382171421759
0.881475223575847
0.888252852709711
0.90196848075405
0.888197782029746
0.964551527449389
0.9051776221547
0.986656794527738
0.937827136543639
0.944511124159133
0.918702431377763
0.927978654246911
0.902759100879715
0.972148847331836
0.964301181341963
0.982535617870493
0.964268120761484
1.07428214580633
1.01450706538183
1.05458280961625
1.02737346735987
1.10383059332502
1.02585529170515
1.07159104132539
1.00824745252249
1.0286427299599
1.00534120422724
1.0622233417964
1.00902691602513
1.09876390938655
1.10358098996794
1.10548219794208
1.01688327980018
1.07756647987992
1.08983372959813
1.12776813966851
1.03830977522108
1.06590839470684
1.0284734780622
1.01541054321565
1.08606344323831
1.0573253148085
0.999781670511911
1.04581400631274
0.979829380396011
1.10559534998714
1.00269643175053
0.996528147366508
0.940517931824827
0.889920812770976
0.915898828567583
1.08019438527909
0.970895641983136
0.974751351015029
1.06748008852356
1.11386818784081
0.988164439870102
1.00623983334459
0.937169440838388
1.16918141530616
0.92286909250575
1.09125308706343
0.949896159783879
1.05069365721865
1.04268349778772
1.07087602438141
1.07399178949234
1.04693701041144
0.989239159958567
1.10920305532351
1.01775518575951
1.16562842793565
1.01401746775434
1.29257079713724
1.06060516924264
1.12589214146389
1.05367323760429
1.19219676807424
1.10172955579327
1.10498076121578
0.97826576945575
1.26886861100899
1.2050369214007
1.5535616075171
1.20892999142246
1.95226101706315
1.22369897544305
1.41909097233716
1.13920310904058
1.25349361309692
1.0753355496243
1.22880127847292
1.08134824884332
1.59787326991912
1.31476916541078
1.56548534523691
1.22670814421082
1.32566293400083
1.14306100368305
2.42870224894184
1.3182809835181
1.36089010693092
1.22452537403649
1.60303416121567
0.976354183861127
1.96397100922116
1.0755641245506
1.13842663517539
1.07754206676692
1.20550866952615
0.945760598920824
1.31568009937986
1.01840697679672
1.3479509263627
0.994722062500182
1.28677041849318
0.935694365816531
2.19510082150563
1.04040838808471
5
1.52425758983083
1.76312149702828
1.09123268150717
2.77705563973899
0.99625554606076
1.73582757872893
1.08199206844163
2.00609868901318
1.13384684173269
1.43856845384467
1.35076958204318
1.66940252578632
1.07979598064301
5
1.16019175250877
5
1.40257051723426
1.14856038699448
1.25035640591221
5
0.891251877614689
1.74829164274235
0.890343520648146
5
0.868588734734691
5
1.05497253123118
5
5
1.19796563250141
