3596
4000.36533379555
650.420452594757
1
2
2
0.0425939873991953
0.020479262020167
0.0435558991964103
0.0280761999880214
0.0438119097552892
0.034080945413189
0.0574917162641502
0.0240381555656692
0.0436182636293703
0.0374044653321104
0.0504100509931039
0.0284667494331671
0.0452545728247887
0.0269194785499929
0.0433171157574443
0.0236798497841832
0.0390033203009216
0.0215536011982842
0.0410834597075441
0.029921189178124
0.0449305416156463
0.0337937383492637
0.0437737335276734
0.0304553908305787
0.0396823026094648
0.0254742759659829
0.0397926692901348
0.0331499093695328
0.0398061559250293
0.0279736410307587
0.0420794019358318
0.0284999245088665
0.0418391257599208
0.0250061879109741
0.0411614980199419
0.0295803538124094
0.0381769505538389
0.0218572306400622
0.0415058378961313
0.0255140333101259
0.0437971930445675
0.0281099513861169
0.0382782679811694
0.0263667669297984
0.0481913179928996
0.0263833123928521
0.0450606983857304
0.0246376014036978
0.0410288196514828
0.0215835912536588
0.0436414602083514
0.028459696099594
0.0455272233190174
0.0315220966669988
0.033103651145243
0.0361556951746455
0.041818107345034
0.0324674081508997
0.0432211430093686
0.0209185588556263
0.044836709471721
0.0383592665083842
0.0343246511120672
0.0282201869704258
0.0441167019994476
0.0276290913917555
0.0459846998378843
0.0284421797592484
0.0373233411935204
0.026715289907914
0.0369378867164484
0.0389612717683516
0.0497933934930996
0.0262467484082628
0.0378058540299332
0.0267467605116824
0.0405627969757748
0.0261860271374733
0.0333830938999059
0.0255290274987301
0.0322472927954251
0.0333115150477828
0.041437928938685
0.0277713363851007
0.0306384894691675
0.0355956577954168
0.0352320025607383
0.0218507160360323
0.0468057429957967
0.029188428210353
0.036439053908737
0.0307862479937436
0.0317238188552878
0.0319503856831487
0.0291131413188919
0.0266497631326889
0.0386608750850264
0.0328300413772415
0.0341063763480917
0.0272477696345364
0.0274647038207785
0.00896138749829564
0.0584037257273111
0.0166239725387535
0.0670943004742805
0.0258339879077587
0.0392753575015889
0.0371260666946593
0.0391903067189172
0.0306287054087012
0.0363555748404063
0.0307469777906465
0.0387538550332374
0.0271981597863028
0.0219146927744394
0.0353954208554872
0.045461461716001
0.0294550706518456
0.0379350900176773
0.0302984593920621
0.0210469811574424
0.0258566934757983
0.0453638851914324
0.0297048359443295
0.0412413259080127
0.0267809890267086
0.0255312222676236
0.0355606965499193
0.0503957955856365
0.0275150143409249
0.0318060503348809
0.0260531581483786
0.0373876190982456
0.0100582869857867
0.0533966758931248
0.024382179222751
0.0397024826309125
0.00944925517679709
0.0378699116729627
0.0401083398769683
0.0413377482057298
0.0308933816086213
0.0280589633829631
0.0121891297985988
0.0548555720829284
0.0401352571540668
0.0279860116861385
0.0310594172923122
0.0392172419170991
0.0240133597313937
0.0364031615187495
0.0206150057838175
0.0406978917633562
0.0353985786908692
-2.13677497938438E-05
0.033288211941041
0.0509628128082161
0.0240193283804845
0.0653991424180078
0.0221399064901962
0.0506312158720158
0.0170626848256323
0.039252270784962
0.0187152237749882
0.0444279435963484
0.010608786975459
0.0385236929200766
0.0377471076713964
0.0393075198281146
0.0202181734392956
0.0436876751334005
0.0272952729189004
0.0207674068100583
0.0538142344454721
0.0475131596230742
0.0189931081976706
0.050059173292046
0.0367955452665422
0.028896596919067
0.0216316662837961
0.0534265466937633
0.0227352221102532
0.0408875762682675
0.0194638413309271
0.035173326807221
0.0253064207585756
0.0346538912375421
0.0240389463206646
0.0392671486538119
0.0174115281978017
0.0281560876615488
0.0331379112495419
0.0499947019672298
0.0229219510780314
0.0401388052831022
0.0017934706537738
0.0632345105417233
0.0389801366831312
0.0508204967551847
0.0228657291487208
0.0280985085082786
0.0268147668290887
0.0361857285821528
0.0267206110155344
0.0303688107103618
0.000813981153144681
0.0536709724434003
0.033594492326414
0.0463777134895339
0.0191406998202586
0.0421158583771812
0.00784414855806402
0.0657062316937875
0.0346128215868426
0.0393211177842957
0.0238080535327027
0.0213761045079851
0.0280863446656572
0.0467266061669829
0.0260680207908718
0.035398449111374
0.0251450292937937
0.0420996607889531
0.0213429298986283
0.0349959930158813
0.0238739105524396
0.0375664680912264
0.0265791062929592
0.0356012756526161
0.0194494855391376
0.0381923522372033
0.0263923982460629
0.0343442201491109
0.0273756583042408
0.0371056834302547
0.0309012036257188
0.0500776371610765
0.0326577913620209
0.0405035971756878
0.0262118059466766
0.0434824281645624
0.030054114449316
0.0387676196702158
0.0314966140250406
0.038150048530811
0.0180236884670719
0.0599612654975106
0.0250864729225826
0.0506571761266989
0.016746494551434
0.0442387071032013
0.0262893413438347
0.0444323821886739
0.0236146757061234
0.0449660122715816
0.0265153403878846
0.042699372647677
0.0447827678627198
0.0448260292437765
0.0212284513634569
0.0537050220041882
0.0259172636141534
0.0399971392904009
0.0210059248451259
0.016934185090812
0.0641277921034469
0.0416978937594527
0.0161393342085663
0.0646446005283217
0.02529283661237
0.0552498829325147
0.0263172781782116
0.0268831806636021
0.0489842347263831
0.060126818080457
0.0335353267129713
0.0373257919278945
0.0395143664406892
0.0374003193849909
0.0303478752102771
0.0305163581359525
0.0266792688653889
0.0432332955706994
0.0441393889213147
0.07847022207993
0.0174895493353756
0.0621715963409281
0.0431861963469099
0.0533413557172089
0.0331984360711663
0.0434710362002697
0.0200632774651943
0.0609465225768625
0.0314611928053957
0.0559316770054227
0.0371414656326921
0.0448586404281619
0.0507379030638094
0.0505411554070619
0.0354540223719732
0.0490253623786559
0.039602669428301
0.0413588244988328
0.041339264468334
0.0401138099416575
0.0381392319696489
0.0389816489265878
0.0345677686099135
0.0764600467889912
0.0324484018926953
0.0560778575118737
0.0509833015834176
0.0547423041559561
0.0388943938610999
0.0464881791226051
0.0470326923281175
0.0479345615423126
0.0439425698500755
0.040511722453502
0.0603549376762847
0.0507939385267897
0.046260597504274
0.0502937225778117
0.0438476077183163
0.0511012463888465
0.0454680823662505
0.0513081343047832
0.0438305976331354
0.0528185159577362
0.0360356672426877
0.0611960213919803
0.0577251882084122
0.0434232991657275
0.0591214345167667
0.069128628934231
0.0559627695587143
0.0694618281899799
0.0441494067476399
0.0621499818476844
0.0481636248216724
0.0652776660719156
0.0465782462351619
0.0658062839748033
0.0589409847653517
0.0706093990517064
0.0532604484956125
0.0645932830865233
0.0699889400801543
0.104657316732411
0.0687860762504775
0.079117139484187
0.0483914663229807
0.100471243044964
0.0684259532670874
0.0973138913723196
0.0749929173597788
0.0823364462496735
0.0798067603706494
0.0771101603583973
0.0746459627340803
0.0897025674557321
0.081149084394491
0.0931090635206526
0.0870206884837288
0.093271004691026
0.0924479614886101
0.0874405261821826
0.0834026478737685
0.117412068932046
0.101642778339537
0.106812596122327
0.0942874984244905
0.0890970049069857
0.110044593730468
0.103414730335793
0.131278122004569
0.114442989504042
0.11234430421471
0.132284017595576
0.108694495170903
0.127651962180778
0.10812423244116
0.131873586708168
0.124486911246051
0.133111979735796
0.119587429987475
0.13679658713175
0.123001882475772
0.140746859194771
0.132142247765081
0.149174688166558
0.124370597856704
0.160250932748231
0.138079110058692
0.161626593466494
0.131420068040013
0.164877799748486
0.140671905858312
0.196603670426853
0.151951757807618
0.166153064588472
0.150385718346109
0.174951142737797
0.15353690978411
0.174589184225129
0.163671727368207
0.176583747650116
0.182774193369892
0.194306012823576
0.180550550692857
0.199879479683499
0.176968706964762
0.211868112887354
0.178106143110893
0.203876901534534
0.207276792197825
0.22107201982942
0.191037591387966
0.22366984931964
0.210423681349095
0.231798088686826
0.221198584734876
0.229557256944668
0.218176820021861
0.234190088616367
0.220672094596341
0.240880293201419
0.234810944701271
0.252712196363224
0.232881081016309
0.256864758709237
0.239569745735804
0.260776652632598
0.257685464097813
0.271516266864367
0.250443684505699
0.285209824400301
0.265342791025379
0.296210451603503
0.26310846242637
0.291450245614973
0.281626523251694
0.307914863889335
0.284046416491964
0.305392926602286
0.277270388772217
0.313769481647048
0.296519326400016
0.306196698437428
0.30193668377196
0.324539738317267
0.300122763640654
0.333711554703929
0.314628904912195
0.325948899519776
0.32354293072953
0.361607085177696
0.33574564958043
0.351392669902665
0.328308456448862
0.373715022948088
0.331625823602266
0.379315001828522
0.356264950528544
0.403714863898428
0.363807698784251
0.379739489495472
0.361817888327865
0.390851661825907
0.373751956468197
0.401819384298262
0.386224111621238
0.416240538710348
0.387924614309966
0.411979994467534
0.401673993110874
0.442522863992894
0.407395150512884
0.442334720314746
0.426530950266183
0.453030813087739
0.421020458551584
0.459414588383962
0.433161249719825
0.465541155310338
0.448953553383764
0.467820253693945
0.451239943617554
0.486131092149432
0.446892738630044
0.485303643489205
0.483355559067309
0.503360929698632
0.473093765919685
0.517702997672359
0.498186416711266
0.505192885505174
0.491076855536488
0.527329497062825
0.50549638152658
0.541846334602408
0.495776267309427
0.574592516575282
0.494669210677625
0.590760439345295
0.521162405542635
0.559706382031371
0.553558532560303
0.583284541042383
0.515139258194402
0.598212756423243
0.543801738536316
0.612008102053066
0.57775266506503
0.617469843051237
0.584942411317198
0.626685752471562
0.550977565193862
0.653189345111068
0.57829687171807
0.621069522657334
0.59774334735406
0.64489236621044
0.625154773044226
0.664361306173017
0.598096987374791
0.638530597294763
0.602177385618198
0.669531422729335
0.644251101995123
0.68295856045462
0.650019192766811
0.679248303602932
0.652598862700223
0.733862673028836
0.650907993448211
0.704008196784078
0.647631582183236
0.710565756967668
0.663315532134456
0.743804864292048
0.653214436448291
0.745634299667797
0.689714986009064
0.753441078843815
0.726882011907572
0.797586441168171
0.694223553529981
0.775056038874143
0.707383493398192
0.765310502070921
0.751285201965598
0.78133289783397
0.779889215608464
0.806233945870777
0.760088491192086
0.766465430576872
0.720268829229618
0.797550842003301
0.749366651553085
0.833294458269043
0.75591148864811
0.838600636927911
0.846950282765445
0.819627795441283
0.784595835432735
0.830777282314545
0.795129812598373
0.843462260517101
0.806946792671553
0.897339550538841
0.77573026000125
0.932618787176022
0.854419571222232
0.88908764513731
0.851768194404886
0.965206401887675
0.824931976715655
0.916068391683862
0.850199710584209
0.903507985653263
0.870502776978218
0.912933182659002
0.876412585457529
0.956508306096339
0.883511453700616
0.930666922040713
0.884827046304237
0.986550679088365
0.910458093547416
0.986795590223954
0.91784329822902
1.02154844068061
0.929276597864846
0.99321017844751
0.930511917234588
0.984178439082925
0.952848036307863
1.00243466071721
0.912473205578903
1.02826423987688
0.941754340663587
0.982417487879311
0.968227666446377
1.11921107109262
0.903777101372264
1.09715768039584
0.992841642701843
1.04357324171196
0.974870848742779
1.08924416836836
0.983662131681814
1.07412822369592
0.987457799754624
1.0831233001607
1.04962020566184
1.08426354447466
1.04220255595273
1.11558325521992
1.02504682594444
1.11117775158938
1.00865471965946
1.05941331715288
1.0597428029249
1.1005812116201
1.08396167050197
1.07292635093101
1.10448198483283
1.15400700475046
1.07028013748132
1.16423804657542
1.07640777720853
1.14956059309552
1.05247497470269
1.19447959670512
1.11125483871529
1.18694472140312
1.09711048868482
1.17075674052703
1.01727583142211
1.23239759173966
1.1171906753171
1.18154356921241
1.08800277035614
1.2387255606106
1.11698227238779
1.29137915950866
1.10875103696701
1.2463935470641
1.04878407928089
1.21169424416973
1.08969820287074
1.26217415349862
1.12984121136165
1.2971238384462
1.15573711246516
1.24639159283953
1.23294962138437
1.26892526879274
1.13182487911984
1.22730071883892
1.18601714046997
1.31031936967045
1.19109919893202
1.33890740417177
1.13385485603369
1.3699046294227
1.20980995910834
1.30277299457246
1.16298788651957
1.33356541130554
1.20491967918343
1.33308749038666
1.21171436796926
1.24847748088285
1.17181681181793
1.32246715885358
1.18829341233421
1.34807774541593
1.23053161048722
1.29680609231456
1.2526672138517
1.3669487488508
1.20216262816744
1.27195250148351
1.2253505817372
1.3360321997918
1.24626660584904
1.2508111922224
1.21960514518566
1.32742620004275
1.21655793372081
1.33618051828365
1.27813564601967
1.33292453823082
1.22903745096822
1.36873471989698
1.21868261372104
1.42205593793804
1.24889981719172
1.31765186508585
1.2794466459367
1.3417625052064
1.25717334981502
1.44779399709091
1.20777990679272
1.4267173058609
1.2199326216517
1.41351662133663
1.24765961278842
1.31830107416463
1.2535202643198
1.32446787577103
1.16613461502674
1.31285558872454
1.24675636440467
1.42114106098742
1.2368564636657
1.36839972976658
1.28917064481963
1.38810878420118
1.25410668043561
1.40245743759875
1.31307698888364
1.33504888988797
1.26659826652645
1.34035240549913
1.32463843467716
1.34435581147345
1.23701416684238
1.41763562295285
1.3063219069379
1.32008416898475
1.25190292032913
1.42601154675072
1.24326121691524
1.43858977740646
1.26064008877827
1.36103911863781
1.25169825089734
1.41936890328192
1.29498113734977
1.45159961967602
1.24924514074995
1.43076494672487
1.22999937060289
1.50478651766498
1.28916909088541
1.31410347526573
1.28477984071018
1.38162267743901
1.37680432693464
1.37579821467003
1.24460129406813
1.41367537277593
1.263664846554
1.2592078630068
1.3798724610789
1.37666015383957
1.36082179575351
1.35045916218981
1.35276776503114
1.45766073996008
1.33755399281138
1.36678765957186
1.33990374787122
1.26332581629387
1.37690087756271
1.33108062046624
1.26368507191996
1.40883982774549
1.29622289914005
1.39514932725834
1.38095343394536
1.37050935209766
1.2948376643788
1.35000242880173
1.2906303019254
1.36738961078044
1.28177349598242
1.40971610205131
1.30063900325463
1.34688326674218
1.2673419893547
1.40602168729573
1.29387534031639
1.25229083279345
1.28690487039047
1.34216256012954
1.31135418157134
1.28134592459608
1.2962350014038
1.40787272955471
1.21266633591147
1.33282558274713
1.32319290604478
1.36307607682509
1.36305393789787
1.39781768387925
1.24064824769732
1.34832136436988
1.28214708207321
1.31643934108173
1.25756405497097
1.29641708499066
1.25281033687979
1.30713851795657
1.27172131624587
1.35536827058619
1.19726777305667
1.36414957242016
1.29278803426834
1.40838384985297
1.26284347344747
1.30122748551236
1.18433956052797
1.36037279192343
1.30327245681453
1.32413113474671
1.30572683656808
1.28433734915602
1.21470693713567
1.26096822266009
1.32648421216218
1.27722895399145
1.27913296066732
1.31809452996853
1.25918982882461
1.29675308424157
1.21271584963894
1.27969124864264
1.22831406046015
1.25930961466051
1.22787013565818
1.22539601629843
1.20091751227098
1.31796891717477
1.2285204959701
1.22872532519601
1.27596573664123
1.23473992028994
1.18044361887237
1.26512945614279
1.15981264116633
1.27679666739383
1.14903669600615
1.27578253746845
1.14577359954319
1.23259660816086
1.18507017085033
1.1844561264669
1.14656978230051
1.23954473806978
1.1678840096153
1.21503720983271
1.15953820376647
1.15436972903328
1.11850014320493
1.18081635203366
1.17930513888446
1.23550182220319
1.12482700980464
1.1533698551815
1.18438423547946
1.17403328524053
1.09439610060872
1.15506589680635
1.11768209979298
1.19896105830693
1.08976857627269
1.17110736855424
1.12679065818845
1.13972576921528
1.08416939483466
1.14751553002531
1.05942369442627
1.18071613079659
1.05508707999213
1.10877707618944
1.02891247919979
1.10799828657829
1.02050492165124
1.11017768402386
1.01747298386494
1.11271148453555
1.05316144856319
1.07361842976595
0.990219784422101
1.06662065710601
1.03213992919771
1.07594444597871
0.998602385289341
1.06420303141316
1.02542101273055
1.11063157168525
0.993146436654545
1.01552242926778
1.01406674747442
1.02561393572703
0.94620869558472
1.03685675612905
0.957619938087432
1.02340058632412
0.963517639796115
0.98483282041467
0.969018858067862
0.982630128231256
0.947606508783546
0.975277542657975
0.934055956509381
0.997101028675907
0.923510127701679
0.985643867994927
0.941307755112302
0.936946549477422
0.89780374956644
0.934407122091009
0.861645290578889
0.916368613398718
0.906315313893063
0.915993219826081
0.882163978346262
0.926250245646779
0.885724392844627
0.881220114023541
0.869828324226027
0.902528417535315
0.862159027472231
0.908285879693848
0.846338949670498
0.875397103144795
0.848667422740303
0.856302249489612
0.846889556374654
0.863444123420069
0.824800144921799
0.825235645741154
0.837388733167258
0.843563923615122
0.812154534462531
0.837781136897828
0.813514084009231
0.813872799816127
0.797698258351489
0.830344768899596
0.77910650059717
0.786716153780698
0.772522501238696
0.800083032693041
0.762434718261564
0.784870743065781
0.769826290959204
0.775795974801574
0.771071174014037
0.773588020357163
0.742199378907965
0.774640599078114
0.754540871422134
0.76511471766142
0.748044721754045
0.755388975054301
0.715065182739068
0.750386135185037
0.725856479958519
0.73307639622873
0.711721761322232
0.72963368920707
0.717973661676727
0.717420900849751
0.680466616902765
0.710504194352603
0.683374941396449
0.718986594393549
0.683638490113367
0.687821520832324
0.669769715335019
0.680848310337773
0.675081619747119
0.667642225657353
0.658875188133987
0.674421051222537
0.656819645734091
0.679039746995985
0.65822296834862
0.674972428708232
0.633263429189571
0.664918828748264
0.634433516513186
0.631113181587189
0.628134786294574
0.636645492009975
0.625009055744503
0.641188334163591
0.624145512056503
0.622072464385619
0.611715340665986
0.619084850997991
0.599975225303008
0.611242439541077
0.590292578608295
0.601008074636745
0.585125257111662
0.606642411914389
0.583335796738026
0.595419515032735
0.584820005352443
0.587611623162935
0.561320314527146
0.591681888646845
0.564955729607947
0.570602229698303
0.551888552456939
0.56699852273875
0.550012921176173
0.572901605564854
0.548438326332022
0.553043027346652
0.536832460743977
0.540490923775703
0.542171729920172
0.54365914248886
0.529820565515518
0.541137314120671
0.517031366650178
0.533742581973721
0.520625383572237
0.529350000752686
0.515907865239101
0.509702625887712
0.50490818204455
0.510047958805042
0.502564571954347
0.506866225800964
0.493007815274267
0.505013079442626
0.488186463094551
0.499922103280653
0.481213234841394
0.499625094682191
0.473119663524913
0.492937262341754
0.473351927620529
0.486572726379341
0.464138878314007
0.48729799197909
0.460599002210466
0.473064960639479
0.467487940345369
0.466803169627594
0.449539460207549
0.462789824250115
0.453159280804645
0.454585462471059
0.449153736905498
0.450169982706276
0.438348257238357
0.440147977804181
0.428861266489373
0.44289810601709
0.430615742174187
0.44354632565145
0.424622382358239
0.429295018562495
0.433387708433757
0.43518383839038
0.426491722055322
0.427325248564329
0.420781315258729
0.427647494115688
0.416846878255292
0.421971375455479
0.416383779464311
0.427488307804193
0.407773325621663
0.417504301182079
0.405418477851402
0.419535046665592
0.4051676436088
0.417132401338062
0.403856463264023
0.41536577467385
0.404899267812053
0.414162071803973
0.403278713135131
0.41218352151773
0.403713945535455
0.41612377785294
0.407666104690216
0.411368213942521
0.408746477465623
0.41082997199698
0.407105428387235
0.4142793316078
0.413737352456012
0.419087068931759
0.416804660309927
0.423356880182031
0.41246190265826
0.428454472358034
0.412081338808255
0.434192866652113
0.429073236421297
0.4276949983586
0.428844460758809
0.43646306466584
0.419958472463788
0.437574639645147
0.428646855966859
0.436628207694502
0.435849126556796
0.44959690205
0.437943442144543
0.446661362400269
0.44380319557705
0.448274959682804
0.441102255237033
0.450135388316941
0.445913571769189
0.459076571362493
0.455098956149715
0.469976217339002
0.450839815338504
0.457028565211691
0.462527319609803
0.462197427516682
0.462344010408598
0.485245097003759
0.473598662272791
0.484352257576888
0.475619501502549
0.496865259536287
0.486021010050847
0.502081517875651
0.495039142112927
0.495602372711265
0.496477692313251
0.512876528193725
0.509521053875161
0.520714836102383
0.509797320749971
0.516814780602603
0.515509719701808
0.533338373742663
0.518344360725429
0.528046239118865
0.518533228475684
0.540341724453578
0.535106236277077
0.53908901366262
0.536353315287923
0.536862301937864
0.535913388398839
0.542680965949654
0.523825609274931
0.546892974612964
0.532272257495301
0.535950971196589
0.530975692706894
0.54154530915191
0.528940607012807
0.546062896362927
0.525502775109943
0.524190226904059
0.524997920835906
0.533270004216761
0.519894717590058
0.53440331240128
0.520180088540988
0.532275929197542
0.517121093658659
0.537654839248244
0.519116323055079
0.537652315636065
0.518301883090767
0.533645676230704
0.519017553973974
0.533052371292899
0.525424195868864
0.529086623665801
0.519085799310231
0.537748758207425
0.526543563405673
0.540628322263742
0.512640826665939
0.533388817755347
0.518777783813453
0.545869920601785
0.534248007823348
0.528796402690062
0.526010549820343
0.542087988519902
0.529665931394665
0.533521591609593
0.523895132267997
0.525686273563973
0.529728781386884
0.529593553138619
0.523605659666245
0.525075053978603
0.52269497055518
0.528015064953155
0.52252668784291
0.523812307282085
0.513639572739653
0.529775522688988
0.515946564167107
0.52358553957961
0.503844723448887
0.524180304454291
0.511235776906259
0.507459161769073
0.499536750693299
0.51215262292416
0.492889089540862
0.505245337846449
0.501578445155135
0.508549060412046
0.48032616832803
0.493617700496053
0.479085334074441
0.483120247353354
0.471159998157948
0.469142765217957
0.467058287568723
0.469545466083837
0.454592555409156
0.461282220960268
0.447977919823821
0.457631100710077
0.448924037924163
0.447961842803553
0.440077028846397
0.438908110809211
0.429398958490261
0.434852072096434
0.423717248009582
0.428706400510762
0.413205168904656
0.417691688966449
0.410071298985929
0.424907805414628
0.403604417742275
0.410050317784264
0.392837693868345
0.404832439092003
0.393339355108495
0.398060823269774
0.387970108895125
0.399197878462709
0.382130013307789
0.388080495271253
0.377653044007752
0.38210250542693
0.37197034764131
0.382242595498095
0.369775249095589
0.37625710707293
0.366341585449576
0.368039660577321
0.365031895927097
0.367369793265567
0.355513871168596
0.361346422861141
0.35278838684399
0.365887009171175
0.356124361581835
0.35508838294171
0.352425453808838
0.356704527004733
0.346747359782568
0.344587333701922
0.343700158329167
0.339869511683018
0.336686300853612
0.344851206383882
0.336012265079704
0.341075269945546
0.327414152923513
0.336529335984816
0.322395132646529
0.336774570803857
0.326849844708463
0.331084796665964
0.322314860224683
0.326216690111266
0.322868421585198
0.322304393617267
0.322081586875191
0.319972500130439
0.317361492340576
0.314462515432058
0.312379022169815
0.313597445036843
0.310314906376492
0.314981459780238
0.308731280457346
0.319144359673881
0.300906015419609
0.30810673757149
0.3004199457198
0.307147471358045
0.297380545920189
0.303595205454359
0.297985879400915
0.299345117623044
0.294418862025436
0.300333515320552
0.288503416778307
0.293650019738339
0.287712598838444
0.300523665987929
0.294037247009762
0.294339612746555
0.285517830324008
0.295520875315043
0.284512598917532
0.290411090375233
0.2822375866251
0.283778424110183
0.28468858136333
0.289592611120053
0.280450918818617
0.28741575441855
0.28067439625747
0.27661784927872
0.277449185154027
0.281378789306391
0.277034744693949
0.279792853059328
0.273909285182364
0.282297655107525
0.27102662390422
0.272671631481195
0.272423003948351
0.277858340360866
0.271177879045742
0.269522586768382
0.26764101904939
0.266730027137503
0.262944286896847
0.2731105628005
0.263511191863745
0.269955606330174
0.259992361953176
0.26973383246882
0.260561735453501
0.264889128924919
0.262503249702278
0.270178121329581
0.256832867763935
0.260874454946097
0.258432120331995
0.269325986086175
0.258479433008508
0.261858032368343
0.25900806568152
0.261197973987317
0.257950345638487
0.259209740772982
0.254780835897094
0.260738211519575
0.255190345874448
0.253823268946953
0.256342206129297
0.258536248455282
0.254617972702964
0.260095488314092
0.250319599675074
0.254808512789682
0.250137866219913
0.250924837903605
0.253920249057042
0.253743920542696
0.248934516671089
0.251832451057976
0.245578917207168
0.25402762702335
0.249063957710625
0.247973951855714
0.248262136944526
0.248462258094167
0.243147367659275
0.248892993848812
0.244118460858567
0.248767836516412
0.238340435148779
0.24457182123041
0.23919770317888
0.24681467789562
0.242927611253872
0.243228493563624
0.2393510735609
0.242565659915338
0.236000107814166
0.238983710580222
0.237380233558715
0.240670818510045
0.235733651655466
0.238438460409949
0.233611415760728
0.235279791968051
0.233666248247095
0.23705168249986
0.229202699750399
0.233052344392155
0.228344843401185
0.227138050845422
0.22551263680053
0.231778136932074
0.22560108644977
0.222255211646454
0.223420460621444
0.23125906789995
0.22463004312496
0.228903504375672
0.218804504257252
0.222502731064844
0.220209939647161
0.21972742877541
0.220495502234972
0.221455923082669
0.214710623981155
0.217395413347776
0.21723555877264
0.219270727347324
0.214085675662517
0.216584187075836
0.209249600255805
0.212905000566751
0.206138074239903
0.211812165324129
0.206511361337669
0.215636447142747
0.207795110275575
0.210522976942632
0.205308163499945
0.205034542576497
0.20152737834433
0.203557150226717
0.204158671487131
0.20483270153906
0.199556860777457
0.205199980278587
0.1996172874463
0.199717145239002
0.198533052451039
0.199800831568964
0.196037523516408
0.200061224868152
0.194058619428131
0.192804855406839
0.188434577184335
0.191727753088962
0.188938511634691
0.193112539019613
0.183718062905239
0.188081891023925
0.182439120649647
0.191007864935916
0.184967282964991
0.187224400597403
0.18197561496863
0.180593518191621
0.182404574534666
0.185168911042085
0.179733793332324
0.182697781152878
0.176212300749286
0.178569526385613
0.176907488006207
0.173649473615041
0.171989819749118
0.174019898183556
0.16938065929392
0.176967967182517
0.170369632808072
0.17425052941052
0.16461562702963
0.170534520980431
0.168713203548242
0.166695749341859
0.166033595239475
0.169639055611018
0.165213252917783
0.168252039036182
0.164358673970548
0.163255026352967
0.160962985758092
0.163044741352517
0.161109259351193
0.160038836083303
0.165274167172152
0.161413841292873
0.160824832276823
0.162344037105134
0.156822054178172
0.158602543355629
0.155967089162734
0.157657899162971
0.154319700380871
0.156854000001312
0.153143299799088
0.15591261477362
0.156396335815016
0.151647452559294
0.152024852208865
0.156568304090822
0.151347145352406
0.155739587730424
0.149329177218484
0.152736508039321
0.15010430981919
0.153211625639135
0.149024903223539
0.151303973456484
0.144768125730447
0.149419131636683
0.145890702436925
0.150816831576564
0.144657349647476
0.149818534118819
0.147294466011842
0.147534060418064
0.144042566160902
0.146663497387176
0.142789322990264
0.144342780350768
0.139109711920664
0.143157474801622
0.142027201744943
0.142401587105653
0.136723728335302
0.144614581791535
0.141663754587012
0.14375270865291
0.138926514783717
0.141699675810363
0.140439169334566
0.141682125163683
0.13761639455927
0.137959644788465
0.138385321000267
0.139497105735542
0.13724190938094
0.144053134487298
0.136796056027002
0.138899321755457
0.13608115421707
0.140367750584854
0.135067052186997
0.133991811091627
0.135143634728937
0.13933124580493
0.135745146200481
0.135657958038234
0.133482717127997
0.137177925527104
0.13351994201214
0.136407291506639
0.13499429689733
0.136021252111207
0.132555035700871
0.134290127731157
0.135963804683325
0.133836199329325
0.132412699636935
0.133732466335542
0.131931214181725
0.132166917349273
0.133687466942123
0.134050916407981
0.12773432854835
0.133246008544772
0.12990371825158
0.132821555981988
0.127849016227944
0.129541388476505
0.1278798468356
0.129695371670777
0.125024610991249
0.130852044113786
0.129810832441684
0.126146828761637
0.125867851330821
0.123363517116947
0.124294016673454
0.125102851761851
0.124775600304832
0.126610648892114
0.124365457304263
0.12489712630608
0.118347629391921
0.124940533892803
0.121361346278528
0.124681833314254
0.123632152776827
0.124836654752893
0.123496811990469
0.123379008124139
0.12146560307482
0.123504073811821
0.119284695011838
0.121906180947592
0.121111037431265
0.122350589121703
0.120407662350799
0.118088510675597
0.117181001325704
0.120741803106458
0.117343338689719
0.119631227519316
0.118647047198155
0.121604595786137
0.115171022800061
0.120799202856214
0.115593502330206
0.116532234964025
0.116524378863609
0.115514486516099
0.115512310807859
0.119471307587837
0.114686951790987
0.116985072631151
0.112736665225304
0.113918167415801
0.115334559769944
0.115931106880552
0.114740621079838
0.115771168134447
0.113124947902049
0.114524611672527
0.11080659009746
0.112267979281216
0.109962914903388
0.11183210729674
0.110695515114751
0.111673556929029
0.107274073199811
0.109164058637746
0.108693297626056
0.108632011718442
0.108712004965884
0.106618976001327
0.106508710863192
0.107808945555235
0.105890236522308
0.106451754449811
0.104041183051314
0.105898395817507
0.105432491951301
0.104987665997272
0.103567933636519
0.103541213143133
0.101380612559237
0.102483441203248
0.0993819236184021
0.101121997913101
0.100612365888529
0.100280874298034
0.0983115852359717
0.10039984953898
0.0982457598239536
0.103435451339641
0.0994333788380009
0.0988596906302355
0.0986156677348479
0.0994357483519978
0.0987996921242118
0.0998695843164859
0.0973841530148473
0.0983991088126459
0.0948835037874368
0.0934386777952627
0.0948910204800447
0.100217612007553
0.0946766524401727
0.094578810856838
0.0920349420558173
0.0952949321624266
0.0925480946327059
0.0953282288928296
0.0940868631650467
0.0935586369083403
0.0924573417905516
0.0925513711850417
0.0896415098321956
0.0938702762003495
0.0912919656947441
0.0925112694069669
0.0897353244159355
0.0900271711843502
0.0898895512515266
0.0911154484951469
0.0876237111579515
0.090717285232475
0.0884335909621221
0.0896692685589882
0.088379114464532
0.0891318142418739
0.0844937904291656
0.0889070834081754
0.0867848474170112
0.0862858395029579
0.0868195597758875
0.0883946537215276
0.0835415542029527
0.0841685398041041
0.0842734779451997
0.0840261837616444
0.0832948089061381
0.0845756493790665
0.0848506186982942
0.0839739689977964
0.0835893659508674
0.0866130921123148
0.0825979294953819
0.0793052166561912
0.0819991488868664
0.0821705239842027
0.0822111871961751
0.082570472247776
0.0795924040386105
0.0821939962912665
0.0803173553397121
0.0833243457930471
0.0810014101156435
0.0802603022009113
0.080953517047148
0.0797334047974163
0.0811065125312448
0.0805405166341024
0.0800726965134426
0.0823375885123789
0.0819051082673041
0.0805098202239302
0.0793578281033953
0.0806610049222155
0.076411434940942
0.078213353590226
0.0788079317292685
0.0809471654972573
0.0782803991180174
0.0787134844855749
0.0778803271411317
0.0774946054052138
0.0773183577754555
0.0766373183415735
0.079048397022044
0.0699969708167499
0.0728060613981138
0.078849404631681
0.0779627200520951
0.0843397173719638
0.0794636589523939
0.0731702216194292
0.0720473922391
0.0758516479970544
0.0769776421795314
0.0737076193153447
0.0754109295296539
0.0781850238489968
0.0773460534510951
0.0747823932391446
0.0734284152415933
0.0738167516192351
0.074987898308204
0.0750018764880875
0.0709298381069246
0.0796542410060138
0.0755551095631087
0.0774944986740161
0.0742858291759559
0.0749758098798051
0.0742076298337553
0.0720099696072709
0.0773755245269673
0.068577135665243
0.0764705598031215
0.0711570966095027
0.0764628209212214
0.069913117317668
0.0768042271615979
0.0671231734710268
0.0784515597812972
0.0621108039380441
0.0774491158797451
0.0581618291625746
0.0825575866821275
0.0597912147355445
0.0902500298135544
0.0590428250718405
0.0926994016499645
0.0484054644581291
0.0917519418403633
0.0497797876974535
0.102863512382489
0.0469614219684606
0.10037130406329
0.0432266956387069
0.105025454581767
0.0496896266463285
0.100530721517569
0.0442327297602687
0.0993055700676568
0.0552849262091476
0.0847027565419707
0.0663554292586859
0.0821413989703976
0.073759995823662
0.071033974118198
0.0843091410069834
0.0614305757746274
0.0832286000320749
0.0603205545065945
0.0855528690738516
0.0621117904500276
0.0811653562045637
0.0702834024161154
0.0736241790874109
0.0696077040828243
0.0741320995536126
0.0732247971762801
0.0704096984317393
0.071354792046707
0.0762372301497719
0.0735581344540147
0.0737530720081235
0.068639627023012
0.0755756463371719
0.0673874591460497
0.07263063921726
0.0706364839432121
0.0761744417084008
0.0700853795812756
0.0716915294673516
0.0707261555746563
0.0722962138765126
0.0719103102899802
0.0735218243603668
0.0724728958294261
0.0736785640696706
0.0694637657384981
0.0724107494621306
0.0692803928304542
0.0741558855151495
0.0702973970202568
0.0734794172454644
0.071267231133567
0.0739848766088666
0.0718787144244428
0.0764207507157079
0.0724263265436505
0.0741672287050275
0.0693472759569472
0.0728602237950675
0.0728681560770573
0.073442880027343
0.0712906630852548
0.076064455554409
0.0740233984185408
0.076056976388567
0.0722882889265904
0.0742620908213356
0.0723430930132597
0.0703628862553914
0.070790502774482
0.0759397192641576
0.0742052337488124
0.0768627478336715
0.073699152757402
0.0764240375343027
0.0738609032727916
0.073382356004784
0.0733385924186737
0.0758644671933725
0.0698599148306184
0.0751638909762631
0.0719778168576446
0.0761609244629605
0.0729769201607543
0.0769821891310989
0.0715343370775895
0.0760260931864852
0.0740103731331466
0.075037139536694
0.0744132737437446
0.0756197030657201
0.0719835257323529
0.0768212889957962
0.072307405912819
0.0756929417229953
0.0725120601442408
0.078374775200734
0.0741139449466689
0.0757183846971809
0.0744170376756441
0.0761906104437232
0.0737729027227546
0.0770180622623496
0.0753075841702394
0.0757542312869268
0.0767807190061688
0.0782841779420122
0.075588727207446
0.0760011229016497
0.0767754882513054
0.076462727127273
0.075150623932747
0.077418137192327
0.0756671570409462
0.0762370679785804
0.0736736137998976
0.0771850244381325
0.0746537775580149
0.0797954739508894
0.0744651187771609
0.0796496193288262
0.0749774618699142
0.0786980019598523
0.0762839763210055
0.0794398522283001
0.0780933101143426
0.0815116905840638
0.077943993602584
0.0798091527088012
0.077184357535487
0.0790212719014206
0.0794737247901549
0.0807809567135777
0.0762797524715947
0.0772674134127211
0.0794578196774786
0.0804178439046898
0.0795691404921704
0.0826396729409497
0.0774502730385996
0.0809919017398334
0.0795901736820355
0.0835951429143724
0.0780963150279198
0.0830655900521602
0.0806948972101402
0.0815545282280112
0.079601447940706
0.0820505026839251
0.0791283561246582
0.0811602412702515
0.0792771965712647
0.082969017754288
0.0802025787350703
0.0851840709750645
0.0803370786037235
0.0845397387359094
0.0788210889052261
0.0836351504863926
0.0806117963838825
0.0811323580446513
0.08204958754329
0.0851254961065901
0.081389234249607
0.0836452296381143
0.0827989791669012
0.0822127729909266
0.0813372376465532
0.0833523126512793
0.0804057033429234
0.0845617236028011
0.0850167251007655
0.086406505532152
0.0848036360528711
0.0849251289056401
0.0827219127219578
0.0874783134553889
0.0832272852197631
0.0856933528474053
0.0840434504613034
0.0851733417916572
0.085694886270632
0.0860898373661144
0.083970596115248
0.0866565834706496
0.0840603462290162
0.0856607024728297
0.0840632961065707
0.0874383724093027
0.0841100224764256
0.0862177537492504
0.0850315575741993
0.0864065381232761
0.0855150198804564
0.0845790327345783
0.0842739172947741
0.0858160671955965
0.0866208413113723
0.0870881697104616
0.0849890107354612
0.0861193043564004
0.0833624994042439
0.0835881186780275
0.0819829729720211
0.0848368764691788
0.0814808286420896
0.0820397349992912
0.0803296229087854
0.0837428703023095
0.0814051378616855
0.0815381119477679
0.0809149743332158
0.0826335996034036
0.0839851221994653
0.081888165143764
0.0804819297638446
0.0832606144996714
0.0795539940466576
0.0834920909234874
0.0802411030510318
0.0827675230596192
0.0816534061923762
0.0849521282630232
0.0826003932795186
0.0815952506390299
0.0794302225493583
0.0822507029690763
0.0807673857842753
0.0818049575182526
0.0802543776089526
0.0814663654556175
0.0804767210191589
0.081407267962865
0.0808095577932029
0.0803089313436394
0.0800369622573261
0.0802691849227723
0.0781404875621995
0.081040753362526
0.0771371692793033
0.0795183168227843
0.0792452067007512
0.0806824525710128
0.0776189401263268
0.0791481259440995
0.079790520818331
0.0796268448839364
0.0782527004312974
0.0812627396572547
0.0784949289924466
0.0808166335819228
0.0765731994614778
0.0775940540421153
0.0795728348360164
0.078040449648981
0.0793704176695014
0.079621546992503
0.0790026870363574
0.0811133716107278
0.077451764268654
0.0765796279012733
0.0786033650118567
0.0777085914534513
0.0750932854489912
0.0788298245770931
0.0786906609596947
0.0778508166040168
0.0749104716761996
0.0804345064506648
0.0779081106071762
0.0802863128221932
0.0744450722803441
0.0805918290625661
0.0755892856385856
0.0741807165334883
0.0767866254937707
0.0786446789142151
0.0736946929737972
0.0776895293152392
0.0749401980280376
0.0754229955193153
0.0759550565275293
0.0773346346316666
0.0757753526719183
0.077672241108827
0.0749219652317771
0.077980637401223
0.0742124112033642
0.0755276024669269
0.0755189706043007
0.0764329228989533
0.0756383098150623
0.0761683032338275
0.0744979505827143
0.0766670801250941
0.073593312624882
0.0750765756927898
0.0753442989320107
0.075124883285438
0.0746200050670282
0.0744316588755003
0.0721236656894886
0.0738333075261385
0.0715391830299094
0.0753315440987258
0.0734050925710579
0.0754058458732724
0.0716410038492942
0.071839559376105
0.0704476070310133
0.0714836535591077
0.075102635206995
0.0710693945870769
0.0722877069060003
0.0724051748853394
0.0706181044916434
0.0740054621299632
0.0728340651038099
0.0710277971248677
0.0703807195180184
0.0716613175066427
0.0728418097192366
0.0686265665927715
0.0669350085670232
0.0704536706944895
0.0669892664769528
0.070387497176256
0.0690611669945316
0.0685579279136003
0.0665214836948699
0.0689748705261425
0.0657976820805052
0.0704967823442755
0.064982126629787
0.0677985390101933
0.0642359651882078
0.0658826695535623
0.0643935508200145
0.0676484194889035
0.0644109904325185
0.0630202841280026
0.0643835744135542
0.0655232538150265
0.0630276893479301
0.0670870537144673
0.0617379060924888
0.0644996693815189
0.0626368671279885
0.064413752221663
0.0616237083818736
0.0646839888845032
0.0611357785153556
0.0618353912074989
0.0596817362721556
0.0647848623957979
0.0573836783903333
0.0621283394642617
0.059227279257231
0.0638132497668173
0.064952496671169
0.0630884433545373
0.0603759393385334
0.0608855808173472
0.0584334409503606
0.0619112466226467
0.0601289532921338
0.0585111621346916
0.0619879417165826
0.0611321318674368
0.059393745014519
0.0615634869898659
0.0605741193176655
0.0612422012864888
0.0603752218788303
0.0600274612804538
0.0590638703790097
0.0603647675581794
0.0592603276994733
0.0590677644709037
0.0568211472912748
0.0610670140765464
0.0580365667694468
0.0602076249641941
0.058313155551487
0.059996349839397
0.0603122119978995
0.0596758501742223
0.0595807622337407
0.0593997427367549
0.0569658246391127
0.059780246735687
0.0561092635736712
0.0580190588390174
0.0596892978416206
0.0589996731010315
0.0560573873926229
0.0553554825705099
0.0545485642567817
0.0571469976240284
0.0552661216757206
0.0556012353824025
0.0565422576364107
0.0566424505724438
0.055417977453287
0.055569858533828
0.0567501747762412
0.0541723217040899
0.0568091965129663
0.0540959770345243
0.0572247340135637
0.0516011050145226
0.0563530192940308
0.0594871322676848
0.0553873715848645
0.0551288184570498
0.0516145379944307
0.0560139564762218
0.0532287576436924
0.0543058615201074
0.0532956994270239
0.0538002629991136
0.0520287601254156
0.0540034419337971
0.0540882507059687
0.0551235934662869
0.0515839844788728
0.0542496700076407
0.0533858483868313
0.0552835407772433
0.053853019914586
0.0573781476003714
0.0519628189385475
0.0526219473805016
0.0570345023538972
0.0560731436415681
0.0569615823852741
0.054893827429975
0.0471097318034217
0.0664958589295881
0.0513266994860336
0.0585942642760909
0.0497757490412831
0.0562070945603104
0.0520400018138017
0.0576756213648345
0.0490359541043996
0.055834278974815
0.0510963332802873
0.0533567994465163
0.0556985599003112
0.0555549578591339
0.051619161036093
0.0540803386931193
0.0527481260762127
0.056001722365229
0.0504136733762747
0.0555380388147214
0.0521197818338806
0.0534787299272792
0.0480862141156681
0.0554046134865375
0.0497342387589148
0.0582525753503534
0.0525376882623569
0.0537664727200171
0.0520884904052153
0.0563705481975917
0.0493427685291411
0.0522169121284105
0.0533892920734207
0.0522156936006728
0.0543016167802341
0.0533784165162035
0.0534807718593061
0.0508246817913113
0.0543672626379615
0.0510263816154371
0.0541318625510695
0.0524448911228308
0.0536754422277173
0.0528100767830415
0.051993327468327
0.0516812794872275
0.0557780715674156
0.0513882662944842
0.0522213602958241
0.0517330285814245
0.0511996794470335
0.0544185125657103
0.0469596445081893
0.0614497999182275
0.0556209734467888
0.0610247913661581
0.0525082322016855
0.0558936565446015
0.0487733319612123
0.0530165707994669
0.0512686132223314
0.0536914877572085
0.0519442448082526
0.055425650986403
0.0534064581667098
0.0560498691712365
0.0539746372478095
0.0539312512680096
0.0522956832108814
0.0560977568297575
0.0529572793745448
0.0547915069058314
0.054037252068623
0.052417201286508
0.0563072082175544
0.0500175362085339
0.0580634057273957
0.0529057347863587
0.0595080107049125
0.0405317378467738
0.0700170362583843
0.0515197140403995
0.0592547033631232
0.0537325657192751
0.0529425591893196
0.0552857631511018
0.0526017655488861
0.0550745397778055
0.055791088038145
0.0528591913278824
0.0553415991968088
0.0559892175903079
0.0546298788436744
0.0574496680480574
0.0486345326849115
0.058807434675398
0.0647561421379032
0.054763185104743
0.0638064483714929
0.0492921441543748
0.0632601556437277
0.0655728354648297
0.05440285074577
0.0600256797171823
0.0538762508086879
0.0593300939392783
0.0555117688090224
0.057631210128156
0.0547801169432279
0.060922990157362
0.0555141029409124
0.0600412790449856
0.0553133100500476
0.0566169700639116
0.0579814487915015
0.0578727178168646
0.0555871352327366
0.0591321981309169
0.0576858616921098
0.0610862383327509
0.0557862178802505
0.0610515123319893
0.058827914923623
0.0607784325645592
0.0543582307658237
0.0653348862996291
0.0598436213702324
0.05959993819702
0.0631016955178548
0.0626141795988225
0.0570804171419124
0.0620664800605309
0.0574817096005694
0.0735486231819788
0.0496853878553137
0.076348292003117
0.0605162774271671
0.0709128077170334
0.0674984750180675
0.063872995325763
0.0659523038143416
0.0591662083797391
0.0651331650318889
0.0594753830467461
0.075860790139193
0.0564523496980807
0.0730303188624904
0.0554326433581179
0.0738002154904871
0.0631658045761044
0.0732511830353579
0.0643728261872775
0.0721884385072198
0.0597205292978016
0.0765264303130523
0.0631896182104307
0.0656799532398209
0.0774208650662506
0.0646505986105976
0.082173923462317
0.0673369949764392
0.0687869173991089
0.0745779357411588
0.0689672982876215
0.0769904511362657
0.0621365757575206
0.0778369012654355
0.0630169335696166
0.0730819048076699
0.0826368909897301
0.0710770538936859
0.0777872860184034
0.0721613820701173
0.0699256269447329
0.0873282634734712
0.0759264927295134
0.0767326267940943
0.0758868240434142
0.0800114381522965
0.0629746730114748
0.108812921677591
0.0687149719877506
0.0946468005865549
0.0806153320731574
0.0893377573416226
0.0812473952410946
0.0912963611441935
0.0812729399040213
0.0910335114119754
0.0925483353569903
0.095178903234677
0.0773639758780481
0.100119632450272
0.0944491653968701
0.0924641153404422
0.100783280013899
0.0913904003362662
0.091984521085081
0.102534648003484
0.106616905397995
0.113980421584607
0.102086125946697
0.104415763876221
0.111171705476167
0.105398112102057
0.109544585545591
0.106647807021986
0.110237065531094
0.113366119591574
0.109465063097139
0.116998451537138
0.110767414756687
0.120920002500213
0.112958537499986
0.123724704421907
0.118720491163253
0.141785363264864
0.135401093894382
0.124669050469064
0.142185144301091
0.130673399301282
0.140318570873866
0.129899829826291
0.138617646961125
0.13605916194996
0.141792678460509
0.143798406834214
0.1385515273849
0.153628841243632
0.143581345884877
0.162878901530478
0.153387214114834
0.159851341596604
0.154047467486907
0.151331972855592
0.244674892807537
0.166167423256123
0.198462387109898
0.159565814082861
0.204480103603844
0.196364788404196
0.20704231848205
0.201918789164074
0.21100884362474
0.208322238743531
0.224504537860377
0.222488584492618
0.239946365878389
0.239129737254879
0.252218940854608
0.236861273650039
0.275289495832448
0.259665719541371
0.304142175808752
0.281141006000613
0.291882988911507
0.292910512960771
0.314502766127926
0.30708949686085
0.330066381678186
0.309467456205795
0.339467395950579
0.356073754165168
0.355508998294946
0.353786939744656
0.363353048645653
0.380895887887751
0.364434171051666
0.41026884041492
0.392554326929293
0.416330973945388
0.403416589580159
0.429241899554547
0.42338234454876
0.424676946743847
0.451882519892355
0.445551352302767
0.457604644969792
0.453860784867135
0.465399936471297
0.46594299798577
0.486621710522879
0.482791848276871
0.487169603479635
0.496799958881519
0.487065378937848
0.598656224871124
0.516399388448125
0.518198168827605
0.507591899620578
0.508549525407796
0.529531644251315
0.498282779695997
0.553195167979211
0.52043458854495
0.52072393958136
0.518718337943539
0.520301400845864
0.523657451535368
0.518791121695111
0.519639187195115
0.510598363715951
0.539959577533437
0.501577416371215
0.561452918179321
0.544410343705456
0.525823885847451
0.518122475011532
0.52291442785704
0.511558039637735
0.518143954234858
0.496989442748291
0.50690360147932
0.513126352894812
0.49634201759996
0.506674981248534
0.483077512484739
0.511919332760163
0.484504262211983
0.490581008302295
0.472659571363536
0.477883279902595
0.481198990015549
0.461834902176317
0.47720017374066
0.478983593259614
0.449432551513098
0.450242154469463
0.439316919271758
0.449719747227429
0.439561056048348
0.443105333491547
0.438364625552506
0.437525533052553
0.42857117560359
0.427242855706971
0.424625798104529
0.425913631197003
0.409857828903252
0.428376832359772
0.413625607001175
0.424699647509851
0.409283784517803
0.416342768255759
0.409334671103265
0.409522040585447
0.405456450788167
0.408666378738669
0.404498931895837
0.408266877894222
0.400853601585806
0.409312228904023
0.396202461421486
0.408984171707719
0.40177479812742
0.402481811160489
0.39689297434703
0.403334667630392
0.393125650363221
0.396406989224557
0.397056437134105
0.398147107945053
0.390774660050977
0.391913158235134
0.388869889453324
0.392655365110376
0.387585667475975
0.37666003841956
0.419552880565561
0.384715052203539
0.396823211207361
0.377395919238042
0.383805366471969
0.378789402575999
0.364459189660446
0.406759112190667
0.375365394417516
0.3782222651813
0.365012355846953
0.362844583988617
0.372745771656305
0.363327209499337
0.35275740813339
0.363357975372951
0.336539672045173
0.391321443500916
0.32649963992245
0.400527433454944
0.364107824789437
0.363523235549488
0.328731054779085
0.367661924257702
0.350280982376185
0.340275996884883
0.338911053646403
0.325418361482591
0.349659158818596
0.332116611944705
0.334314692355913
0.327152890257291
0.317594446079357
0.339452276990218
0.332176826584554
0.313646398144037
0.333053909628982
0.3228681086486
0.311300403797482
0.32666794564066
0.341813307536858
0.315598679982768
0.298784628555487
0.30592531218128
0.290623258805445
0.30211919007602
0.303593203307692
0.290614805643726
0.295833752145126
0.282209591249416
0.284614974030348
0.273274267942296
0.291512463152552
0.272034998860273
0.275135966741443
0.283746560088155
0.26361289385338
0.282002917168588
0.25524814391247
0.294911801455739
0.272504259314332
0.276963837869415
0.250089353815302
0.285512934319034
0.261479463569954
0.264707322857618
0.257760430700614
0.248108066599371
0.253726916299868
0.257988083689135
0.239773755608366
0.252275741626914
0.239562404334195
0.245409327013805
0.23724306115917
0.252525653171849
0.25710966407592
0.242124459437076
0.240132004150654
0.237260142693634
0.233263240461644
0.240735567389421
0.221347302031446
0.262385493343608
0.223313618955828
0.243289213516286
0.243401399616127
0.24694860833516
0.245692077427461
0.247020902219853
0.242728281140452
0.251539940026271
0.248787173132587
0.269803145436718
0.245947701795055
0.269732459529123
0.257880159904549
0.271973443923203
0.266107795227284
0.274868156929273
0.275792110663317
0.279147489197407
0.285701555387805
0.29385368122462
0.294917295310037
0.309841333101578
0.294585708491922
0.328460376716034
0.31769874414452
0.326404358386355
0.335448535778537
0.336730266545624
0.374129959219491
0.359694047049804
0.365765054395358
0.365092152145321
0.367634814847114
0.383584191030547
0.376312433429793
0.399556858704041
0.403239322865987
0.401589169976517
0.402358219161965
0.408170444372433
0.416174234314242
0.411427742831894
0.429365353518329
0.398940426995502
0.469769472578744
0.428526017915313
0.448761742584957
0.439508393986012
0.439097856932596
0.444699797798167
0.444185703580508
0.449084895635716
0.442718550229143
0.450177522647804
0.464168930296624
0.456309713589956
0.456143998629797
0.459451909520337
0.461607070349667
0.468083763882996
0.466678866347517
0.4689130181341
0.466900963880702
0.488022846450471
0.47081644672204
0.481576658075414
0.524075993112905
0.49429094054414
0.503517041816685
0.490165769222311
0.508048602730824
0.497852598062791
0.505183272231175
0.51603993881891
0.519887923272948
0.519345966807561
0.519015742870214
0.525021581137583
0.522196866670148
0.530802128882037
0.540494633540123
0.529555476155472
0.549204121143432
0.524914009932761
0.562604691229203
0.552419467260697
0.564872963528153
0.551772578315957
0.557604869201634
0.553583950067572
0.565473544211539
0.558791611325157
0.561372059664993
0.564649738504958
0.56368277939432
0.566668999678744
0.556673922726059
0.570113716743278
0.553363959150799
0.554710042548386
0.56822587195887
0.563743846931057
0.559298705604253
0.559899183576414
0.565528310191417
0.554106755501801
0.568302369807545
0.561757794265439
0.561540322079109
0.553259738965013
0.555781222116837
0.567587579343254
0.569436868701669
0.557479236829426
0.561296963031502
0.552814225906357
0.568241161327127
0.550754570674448
0.573151278583763
0.569468417160383
0.569760383934703
0.571425080209987
0.573514062236763
0.576413135324819
0.585942886844026
0.587542123298023
0.583142034798495
0.586427534031608
0.589801937104817
0.594013825563468
0.592608341277577
0.594003171536844
0.595777937280959
0.598340932662169
0.597214225586413
0.593504903389748
0.59106639134291
0.589522734763859
0.585705489163945
0.589860168815424
0.583104228977919
0.570437021885033
0.573570042465309
0.559864244003624
0.567241238109703
0.569436309291867
0.551016205204692
0.556726800890411
0.546622411787628
0.545590378371497
0.54294969117162
0.53327217541903
0.532797544319966
0.527257420588533
0.525657515775536
0.523901416664535
0.519525014052385
0.52146936691098
0.517418464016999
0.516425687013104
0.513854206342081
0.51667263672498
0.510963845884224
0.508431744981192
0.507885462281874
0.508086319180722
0.507943969842403
0.512268839444734
0.507101443224455
0.512799208576105
0.507383397506611
0.512886029346123
0.504605306054248
0.508148829470632
0.50317925595259
0.506246863055396
0.502447308125933
0.504399056508343
0.504889883604303
0.505420941791085
0.501120977278554
0.50898117113251
0.506049758963531
0.498864750266473
0.505008752290339
0.499649488534099
0.501289771928942
0.501507609542299
0.502504092281181
0.497380168577248
0.501565785595463
0.495317872590234
0.500327453342555
0.494528839793463
0.501113695216135
0.498803702517023
0.494053076926312
0.498113929418724
0.49390316652754
0.496805964865169
0.496269194307574
0.49640762190828
0.492535217159719
0.495500720855572
0.491952680751826
0.495631488986156
0.489886133031303
0.490074156126138
0.489946443815437
0.490295839567819
0.488260237832738
0.48077813807234
0.479873394321194
0.477124600190817
0.47703708640619
0.472707782951939
0.467881473267097
0.461737750423086
0.462807915036243
0.45298174482299
0.452010601375774
0.447070342595232
0.445752103770769
0.44254701431462
0.439699826310163
0.436805731444644
0.437091869904885
0.437724597929362
0.428216116447733
0.431670401537941
0.429129804059465
0.432118095381171
0.432387913935307
0.43310265002102
0.433708231963805
0.429294300931002
0.426943748212663
0.431166735099451
0.435214720938482
0.432978658876494
0.437186290966836
0.43805351900673
0.440261721367138
0.435987452087598
0.443838714291729
0.440564694157712
0.445860850709134
0.445900978501088
0.449486671222601
0.44858262039748
0.451806969639617
0.453186442181107
0.452895771629023
0.456244035911126
0.456227848650969
0.459530977925919
0.457338894590697
0.463145063375991
0.457175648329579
0.46092529787724
0.458734394339934
0.456289384642918
0.45515562520841
0.456897162407164
0.453994350966931
0.453912933999132
0.450667726179649
0.450623360500181
0.447452567898552
0.449038569802273
0.448029106561918
0.447166680840341
0.44470156600525
0.445459892417172
0.440673070028481
0.441218352463554
0.437154366447943
0.436788702751003
0.435362635813241
0.43009642809737
0.430521413273174
0.427476907812399
0.428555546321919
0.427425354431557
0.425386984980237
0.420930098244492
0.41870085358585
0.420566654590155
0.419432981397683
0.413895807495875
0.415228492535369
0.416246034719178
0.413041114443483
0.412279417338278
0.40541137725573
0.408701832152691
0.405946184534451
0.409515840876199
0.400793905893185
0.404141136980231
0.395200097271457
0.398124901017593
0.390175646028724
0.391607016705351
0.387238961514986
0.384802936160845
0.384321940269994
0.381181278759096
0.373245799174574
0.372120029885207
0.372025755516305
0.367019989930482
0.368131229171859
0.369369487400644
0.365126148481502
0.363446357977411
0.365969378440363
0.359184119911853
0.363180632638
0.360961742406323
0.360164096586891
0.359157306667506
0.355124090985486
0.353476896385711
0.349779049143693
0.347805946323023
0.342421072698997
0.341072245184107
0.333747905460624
0.332730780845601
0.324879585541575
0.323079679892577
0.319358760257113
0.319997462436285
0.315385189388428
0.315619477304511
0.31384714640477
0.31738706159717
0.323186583640706
0.324842653742104
0.33344159005752
0.341129581820258
0.35069960205983
0.360721964577678
0.376218785167373
0.389222059455678
0.402562266056411
0.416562512452952
0.43382315307182
0.450631752497728
0.468001814945198
0.484224038930578
0.501211037551759
0.514234625627706
0.530989255338491
0.547122045376571
0.565276809838364
0.579379495692888
0.593571824348386
0.610284626888204
0.624602204784921
0.640149199128167
0.651930183758584
0.663028067353
0.677973011054627
0.69076149837345
0.69889809703213
0.712031011790963
0.715571434687681
0.727609490013587
0.728531428670816
0.735650867373712
0.744028674354389
0.744064594089125
0.741057563962513
0.745185708634576
0.754553621859035
0.751477109140901
0.752597100714096
0.747923265678315
0.743933246591229
0.747768739713319
0.751375968788279
0.752054019485277
0.752117697156403
0.750816156899289
0.761534323216732
0.757487133324
0.76490464465399
0.767974597055837
0.771611895538985
0.782961550546909
0.788285090919633
0.800270251902803
0.801621774324251
0.80814428402969
0.810283798416833
0.820037624598337
0.827889606842848
0.848266900218252
0.853533737597779
0.864316619133144
0.890447975584529
0.901680160499403
0.905648901708345
0.928394097928231
0.93168378904279
0.942387408951388
0.945695360451602
0.946341627417108
0.965970032563195
0.961626766255475
0.970014820342229
0.950870338946563
0.962002654216795
0.953602341207059
0.942900071137928
0.938604359565212
0.940204571447309
0.931196585784252
0.923529814033411
0.94221692614211
0.93464347476284
0.944992473574432
0.953928472978574
0.970276318184948
0.973926387728019
0.997490329502096
1.01098389428276
1.03719766207471
1.03195415501895
1.05086695348486
1.05695396530684
1.09929022004225
1.08928347164885
1.10996076017985
1.12607457907889
1.13140257440744
1.1622831046599
1.17856237490511
1.18313612803257
1.21678554812238
1.22850184304802
1.23890925103024
1.26713711446355
1.28060493237141
1.32751408610496
1.30192378990429
1.39347624251532
1.36142487438724
1.42983718711837
1.42558106977934
1.51122866614436
1.44097162519719
1.50178044748649
1.5103585211862
1.49573057810137
1.50694304233852
1.55276387251975
1.53790872144875
1.59937233830981
1.54875985916926
1.54542539432292
1.59255615131414
1.5685045522305
1.56731540242577
1.58243960838044
1.63744505475249
1.54787696506761
1.58094259745973
1.57942761126262
1.53850419355067
1.59462115055772
1.54755404146729
1.55147160963526
1.50312861790356
1.55898058594796
1.53232879366373
1.57221019229829
1.60117536949255
1.64053582675815
1.6610758068016
1.66120123764448
1.69912903918955
1.7456319623391
1.68818927772256
1.68462850088743
1.75746837358381
1.81466913156935
1.73593605598614
1.79931807450565
1.82332674032731
1.84274769438445
1.84346862920585
1.71458417045162
1.89038358119774
1.78890193566991
1.95834016266133
1.84075530632762
1.82989606660506
2.0825364524187
2.00580075832882
1.84628040741942
1.80798895058497
1.93369648721133
1.87174071448678
1.93875476006536
1.94301834683675
1.94014299181772
1.82279522504111
1.93600172176576
1.87026985832841
1.99887984851996
1.81235220865426
1.85470150511986
2.01888737767381
1.93920632745171
1.75836462662454
1.95657615292187
1.81079250568855
1.7994052587935
1.73494601601049
1.75737302261063
1.62301208898101
1.62149293348704
1.56261757711016
1.60369214895586
1.43873632317039
1.41080849930777
1.37333916598337
1.34397385350586
1.27791508721783
1.24077510463939
1.26875903375837
1.20532904225973
1.21638995219995
1.23561051158885
1.21781451800468
1.19050027422476
1.17024500804604
1.16358464789045
1.17038719492195
1.1819297974628
1.12085145212354
1.11835681715265
1.08400494105671
1.10448705498183
1.04094820446837
1.04951161482018
1.02436837488783
1.00232937299144
0.950026578110861
0.934307880754432
0.902190913015853
0.886275413417486
0.836415598918835
0.808988214773323
0.771374483887766
0.745899493511295
0.715107248431384
0.671395881704196
0.647121649717481
0.613421457887221
0.597558861966023
0.559112323397303
0.53591687533746
0.515493968470921
0.50297160728595
0.47835908586273
0.463075463364964
0.446289326357736
0.42977314210164
0.419578005192015
0.416743246969543
0.402545478200963
0.397670906435129
0.395122722265301
0.38767569552326
0.383027187699461
0.373643673582158
0.38203904814403
0.375973644387498
0.372360803604914
0.373067868710717
0.375608026791699
0.375618872308365
0.37651887299045
0.377059310175767
0.385990247878715
0.385044175254331
0.388728056037243
0.387174691637577
0.389681133008957
0.393518654250896
0.392716846074833
0.383927968960706
0.382423433402232
0.384482153775408
0.375867026309927
0.37093644293631
0.369224261292784
0.368598085032011
0.369953537827709
0.362053098732328
0.362370627535818
0.365660220754837
0.366816106421617
0.360318108182011
0.363839296380724
0.363646115909726
0.36591771744228
0.364723792423575
0.376101691930424
0.379651533881669
0.380040809640164
0.376653421220108
0.393763978860664
0.390324802191671
0.393671231176933
0.388195726612429
0.400888594863464
0.395630648458083
0.402246278077632
0.404987523380991
0.408095279635432
0.404741198002942
0.408165176813853
0.409427409999427
0.407364806845127
0.408855406363857
0.410241173650825
0.416938169489134
0.416701145841854
0.414845146203601
0.415555343737493
0.429216546588637
0.425135648879926
0.44360575731806
0.44473348804365
0.459898354006485
0.470480554463894
0.476373379249993
0.496810992701895
0.505019887290682
0.528361767372809
0.531408913038515
0.542259203644692
0.540281374506101
0.559112347017688
0.557303218690955
0.575853727735985
0.557475235673885
0.555020150725382
0.544742188752503
0.546392248974594
0.53724237854124
0.526023730731708
0.516154237768314
0.512994516097683
0.512825442098879
0.500096336629387
0.509912280291715
0.508774290601117
0.510250369778668
0.515904078011727
0.515282403673305
0.517252756187439
0.50568164006068
0.505137010588492
0.506548057538374
0.516025124461951
0.499945029224253
0.502472575172588
0.487272029503338
0.495256589628564
0.485238742704787
0.481634518799707
0.471098416773427
0.482347507759531
0.466003990869113
0.46406851681857
0.451522905928001
0.458848522881593
0.451629799957936
0.468570487567204
0.443047138874248
0.459882751197128
0.447386966582907
0.462342776120174
0.435681283155613
0.459941635352011
0.429504140240004
0.442047465344862
0.450124084458225
0.445051515729832
0.446046934739524
0.431187552578983
0.446471335549281
0.442666066177217
0.430882961393686
0.43467560615327
0.443091494876959
0.432609149550364
0.429256270638028
0.42737310131052
0.42897868848178
0.43244827664209
0.445326682388513
0.438424914827066
0.430624784437606
0.425094146504228
0.422609619580978
0.430973101778985
0.413125766102577
0.423041070937244
0.410920774814845
0.425604357752567
0.421564816265708
0.438542882752732
0.41784253660882
0.427740392812047
0.417395971486846
0.427005284863982
0.412812133798322
0.437332533940182
0.433689631580545
0.438486236856057
0.437200008590078
0.434177992747191
0.438929377032276
0.441258701689587
0.446123596437503
0.436905498307776
0.445664976741351
0.43857915921068
0.450767137128001
0.458955903103138
0.461267637258343
0.468464872327002
0.4566373232049
0.480406816457396
0.475802059212777
0.480906425861411
0.460633701682659
0.502183585016426
0.469549678847942
0.512435073693675
0.488946567212026
0.541763377299495
0.508169278665657
0.54456719031284
0.53150597046023
0.560104228773359
0.550599017324248
0.609398567714238
0.597118387122034
0.643980239443891
0.606484845204012
0.656791534149786
0.667721963429067
0.657826149323447
0.683162398137842
0.706391180530704
0.728672013235257
0.701365448931587
0.742744255039635
0.737710083755632
0.750567893924067
0.778635131891892
0.756522427217961
0.751168279127353
0.70476697858175
0.704037575425216
0.695711801089196
0.711180619649392
0.699637619838413
0.736057124156685
0.716746696877168
0.741992609250984
0.663514781517901
0.764739390696753
0.660493506891568
0.751713153122907
0.682189629045066
0.701870317586092
0.685613630100228
0.716023714803568
0.667489394212982
0.737718237682183
0.699489415434782
0.720506872914159
0.71934311477078
0.675004582924216
0.693908919485571
0.62857257860122
0.66257377824309
0.629500964033298
0.669175188025711
0.643244403938042
0.655708626646876
0.62373624111202
0.672114519653338
0.64281852773864
0.657920823282861
0.661158113480072
0.688111877589777
0.668714347395986
0.652016487270268
0.697103607859909
0.642495361043375
0.652932920380349
0.623372211496837
0.677450440599288
0.657545146224173
0.74011271428027
0.642223771780312
0.771980104978305
0.663387374951659
0.73713328217191
0.643928273649451
0.73299430140064
0.697845276882282
0.723910292755056
0.672434327609135
0.768247265546143
0.726630230866237
0.720810339187199
0.735738710813173
0.682991444829066
0.735005688288544
0.685964583849231
0.766587372745853
0.669750151479846
0.743798699934579
0.679295754376908
0.832371649553841
0.725208756773875
0.824764264970334
0.813515955896175
0.742268405424898
0.748163372630555
0.867684006951266
0.888812476415655
0.804429815536359
0.896654743101077
0.761315500526369
0.891892500178523
0.781169895621272
0.954797998593837
0.711957752655545
1.16569567595337
0.823396434470054
0.825382132792691
0.803136000775555
1.06332069459304
0.809259514846207
0.906796902198527
0.85877793841322
0.926254214441461
0.888254153036878
0.934757675431063
0.774408715264553
0.904083916131641
0.915584800158869
0.872466426302352
0.845783461233844
0.799509832674076
1.09752449638905
0.867740953083956
0.834975673534775
0.872676743963665
0.795100484730819
0.79429345870955
0.754507069434378
0.868991688217403
0.827250956967731
0.853950900215952
0.688325715278007
1.20858535964538
0.860639673323444
1.08703005153616
0.63240554720222
0.961823833123556
0.737056625954329
1.22601632768243
0.767625493878762
1.10738534304667
0.769008013631205
5
0.681909198326325
2.21702663755052
0.658810646697953
5
0.800685319225237
0.728459095563495
0.90806001173741
1.23958082185111
1.10717312036813
1.00192450077309
0.992196690596304
0.675187775682433
1.01886844692636
0.82156081666673
0.924609144820822
0.32718316091101
5
1.16860031918139
0.633881633819459
5
0.493322449614844
1.44671009519711
