3596
4000.36533379555
650.420452594757
1
2
2
0.0802719195165941
0.0700825853232696
0.085854595911653
0.0658825057865321
0.0817583739158538
0.072431192371393
0.0892686118275862
0.0698061146679034
0.0917673764621762
0.083086700757398
0.088425589290845
0.0736842180036087
0.0820283512768291
0.0745253850517972
0.0816179680580144
0.0719687483088029
0.0805203844519949
0.0638380073896317
0.081064796221594
0.0723261858062643
0.0850124008168509
0.071116583655435
0.0880584175557876
0.066957359960283
0.0815466635567002
0.0710763862425515
0.0762287679268208
0.0692731974775948
0.0773575623932562
0.0799647096134526
0.0846747001933134
0.0731909979068426
0.0874823152769595
0.0659599865996778
0.0820343889418984
0.0674536279417455
0.0790423376086508
0.0597096901920695
0.0766666467356242
0.0731472351173584
0.0890912248719509
0.0689959786956678
0.0875282400014009
0.0664415817556204
0.0897621471204381
0.0751021454889867
0.0881395227432661
0.0693258032656278
0.08523824402095
0.0670040742797408
0.082895691135958
0.0741840508665819
0.0965459326479706
0.0793286999486997
0.0769284432723784
0.0788785670685589
0.0920938083387914
0.0766860388729569
0.0874740896066875
0.0645814998247886
0.0887901167706757
0.0845600672324532
0.0758927559568889
0.073110949655579
0.0835700763972768
0.0744670060782019
0.0838972783614603
0.0818364503992061
0.0791068881689348
0.0724705860424453
0.0739246920436391
0.0815272559521043
0.0998095403987703
0.0721319475511622
0.085832411930421
0.0750707915524957
0.0711305920462808
0.0670740180452331
0.0731481659785293
0.0777339668112618
0.085045449395073
0.076027420752687
0.0751751155480009
0.0652311579013704
0.0856755546836127
0.0807795723070916
0.0717658771106354
0.0670780224413473
0.0991045526251465
0.0770619824686494
0.0802591343259084
0.0676704718416121
0.0776084515416662
0.0715527257079533
0.0735814262267823
0.0716178922019145
0.0789385501366519
0.0747673770951987
0.0766782508056046
0.0732149788829715
0.0967001645144147
0.0545547561651575
0.124638525125599
0.0629317602486319
0.127868591586301
0.087523787658581
0.0750050483615159
0.113769350719892
0.0825651834030092
0.0824918930424175
0.0774590404114344
0.0766681612427272
0.0779319662717193
0.07586428859353
0.0702622029832261
0.0929159734654507
0.116107209911202
0.0763864194115958
0.0820274393803496
0.072821704334956
0.065126801433317
0.0758624635840515
0.115046066115646
0.0678697523959061
0.10106524854487
0.0700196957369666
0.0717137124574699
0.0948790765041082
0.121301910984686
0.0702922549851778
0.0819601473930749
0.0648752518240438
0.0804595324808905
0.0549122867100023
0.113720026619179
0.0723862777442833
0.0867632405478644
0.0601943397143516
0.0977405189839106
0.114836278710533
0.0875695748249802
0.0719756813293511
0.070608049906412
0.0563215008099243
0.11923633814572
0.0915231576591242
0.0816314533904146
0.0812498207751725
0.0958599984357403
0.0672792196524079
0.0852219979183118
0.061195941750998
0.098539623191594
0.0831918742862178
0.0407289491948869
0.0821391447711358
0.16158918341863
0.0596343369034386
0.155990587652639
0.0596590348629705
0.0999942828320418
0.0683294443983795
0.0854679010331919
0.0649063915101852
0.086698719772551
0.0584850138323242
0.0863381370633141
0.0965084184483603
0.0835465792175472
0.0810348495088612
0.104662168388475
0.0881172318787395
0.068459172295673
0.131767094873971
0.105630776264322
0.055291850169581
0.113378785848982
0.0846942482499269
0.0776314140278451
0.0663400101433505
0.110452889425234
0.0605910598211689
0.0869519487492152
0.0627424312686366
0.0826799892132836
0.0828209137760931
0.0855611907078273
0.0660707735492166
0.0916111818336143
0.048952075171672
0.0955180132267119
0.108227480020195
0.117815185578453
0.0657368083738178
0.0946787720276825
0.0409732470856741
0.11723239671898
0.102824517691835
0.0887143323449224
0.0771912246246942
0.0749261241363703
0.0703819587190503
0.0842809648259192
0.0705965352761717
0.0788073255362081
0.0335281351921002
0.123881089618589
0.0888223537040505
0.0899716278260906
0.0633786937436569
0.0856931364915368
0.0621056936146317
0.122439491922108
0.100574610359778
0.0785228868848544
0.0768905126470349
0.0671048122250881
0.0766283176722764
0.0969366694625452
0.0713004338113751
0.0788414068797961
0.0735442274812186
0.0871323595300748
0.0721877751523358
0.079767016579307
0.0732521527175803
0.0830185184015257
0.0709630259896091
0.0822953922099271
0.0759700511657394
0.0912061079911306
0.0776544182718561
0.0802496671370665
0.0792726320136077
0.0799112390017274
0.0790215151617976
0.118158400818047
0.0832578941486439
0.0928340305474121
0.0725808209220612
0.0876789656659468
0.0696057717097251
0.088235398963726
0.0708009347826015
0.0876403586687603
0.0633148311740924
0.129050314244641
0.0724418544003287
0.101866257898205
0.0650741765201866
0.100958744939585
0.0877413256108708
0.0877109299096391
0.0777574374042874
0.0849605865026401
0.0754144104701169
0.0862642048680627
0.116893030873339
0.0919206945533318
0.0731790623573872
0.102162408060937
0.090986701004321
0.0780310242092899
0.0776789147329928
0.0586393555434209
0.15221855263844
0.103449648455986
0.0624100201930117
0.157106341577132
0.0900380367755186
0.0968612792365174
0.0840348992112706
0.0596370126491647
0.189137419456316
0.145701859513858
0.0862397766959318
0.0878324096712066
0.104644975607685
0.0909930341556069
0.084345725669413
0.0991401166620546
0.0840673321375819
0.121076709054509
0.109000038492191
0.160277854667833
0.0715218985572141
0.10911695676647
0.115139468260998
0.104279324903184
0.086715004531543
0.0903710056352495
0.0760690374468507
0.107233277481305
0.106463908655774
0.104451831150635
0.102439856929601
0.0890960506960559
0.120334388903429
0.098896240343486
0.0886868686572072
0.0948159648998656
0.106168084770652
0.0903621492622808
0.0940379997491979
0.0895698885186843
0.0996615690725784
0.0920137569257905
0.0810313729565784
0.153120414495701
0.111586731087676
0.0988761497210233
0.121981121957621
0.101492540845946
0.091371951422318
0.0975940397404503
0.098655824077274
0.0940310343250057
0.0945845036556491
0.0886298425928897
0.124019002730045
0.11276018641077
0.0916798856559704
0.103022990593324
0.0951537330786491
0.101960420738915
0.10189023361194
0.110207513293726
0.0997280530890404
0.108127507662533
0.0942763613373663
0.121575192692075
0.140524536530047
0.093822158268848
0.135515409978399
0.154693754039611
0.111203708926581
0.127686299884368
0.109568131827118
0.124131689037587
0.107460189789566
0.132101489097992
0.114122517152164
0.125328458601611
0.131852660648914
0.143977233339973
0.115478841997975
0.135052895270549
0.167628537448841
0.21567925791796
0.149985788978959
0.146519851105916
0.121127409820868
0.177606994374762
0.174601442770584
0.166530171342913
0.177503923974568
0.154283063665105
0.158574625268761
0.15490404460513
0.167604699750745
0.166234991254277
0.174016204460552
0.17690336559725
0.175772317497977
0.183663656779264
0.178894358782311
0.179092124273033
0.179416410259289
0.22477732103108
0.202194789759053
0.193654484925292
0.195550016720645
0.189985847045827
0.216290703390297
0.233880661293062
0.242960705762749
0.262837223885137
0.212519204103214
0.264540319737036
0.219601403733459
0.235574035737079
0.215429587566742
0.243246504855099
0.234894269912574
0.250161429643332
0.234898790316063
0.248460821889244
0.241496317447112
0.267447051017261
0.251322213070781
0.266356781801146
0.251587427948261
0.290950034814126
0.274359391783868
0.301690200318399
0.27048335866426
0.309486820416031
0.321379786823482
0.352569118458337
0.305618411427672
0.307494308904204
0.299935711997549
0.306343308008847
0.310170032873885
0.311745565727921
0.311435882117422
0.318226317411406
0.354488891344462
0.357329062130771
0.348296639649794
0.367385451931558
0.311909273444133
0.357385775755486
0.348526283172318
0.365989419622824
0.388899150251776
0.376237114383256
0.354920525097241
0.38534175672929
0.384995436588308
0.384355639150733
0.410370256114847
0.380862097506258
0.37627835565963
0.404014864265504
0.396253959876597
0.400708562374383
0.412108133356818
0.421904798095805
0.41223603844759
0.434847526258766
0.422539053259742
0.435534110652214
0.433584826381271
0.455422843033216
0.439533097840854
0.460690134260372
0.439929808688351
0.471663360440232
0.437655192098061
0.471585717982703
0.491050640450656
0.498966059866945
0.494560512741603
0.480240225777523
0.491103328290268
0.492837204916619
0.48924135247791
0.507559968640508
0.504247819371018
0.512335284321491
0.500450972601213
0.523970271347264
0.518903454892627
0.537451466577072
0.520359682908276
0.543309249857688
0.527083558609838
0.54547601056532
0.544203778777663
0.554287637097076
0.546639663153533
0.621299748886757
0.60374687870862
0.60300093838254
0.592450814196816
0.580296026005614
0.57388452016141
0.612191721812951
0.603022042794396
0.599303149832949
0.604421220538958
0.623160268865572
0.590634054609583
0.624072792687039
0.636201496272064
0.654254151377072
0.623269637730449
0.659740420777658
0.632569173802392
0.667670679507214
0.654011050923519
0.6689800835976
0.658437858149366
0.672544195915634
0.687400014701372
0.687207022662862
0.67670349591791
0.713872630551084
0.681430818090254
0.691998246593217
0.712915263290277
0.724319880636738
0.705494123611728
0.754749843609297
0.699100273460228
0.714995242351013
0.742430049229918
0.73379289815702
0.735230728992619
0.757903973287633
0.757046181333966
0.78192449617602
0.729896916786877
0.767831979777327
0.779919933212278
0.815331544248088
0.756871383189861
0.826872226218412
0.799404943221026
0.794761430068795
0.781070848214698
0.803377644669504
0.777429722259689
0.78134096073716
0.820346279385196
0.832774415401801
0.840688580332998
0.838561370013757
0.798149700966311
0.823465123401019
0.807970379060085
0.882367135218846
0.877294147925488
0.895974993536195
0.843923650794579
0.892668654732291
0.823031941449484
0.879656911269859
0.879537565990381
0.920704032085572
0.863518719650105
0.859727806312755
0.853888121118101
0.900448334764089
0.917557521187669
0.90799619256629
0.871666764317533
0.888842120724607
0.909565263104473
0.969785881097274
0.910137022442333
0.969311174257293
0.97908995249598
0.967531441874848
0.963850451697998
0.960103864435908
0.952549259027976
1.03296824947288
0.990236364187606
0.972495328676948
1.0016408700144
1.04007661320173
0.932690807936091
0.991300124632595
0.962387667197432
0.972686161796854
1.0161679518797
1.02558315768399
0.997546469275308
1.03703373989744
0.973837484073082
0.996216221572922
1.02252757283174
1.05588735435303
0.984086615635226
1.05828815804437
1.04186842670494
1.03382269297846
1.03640834075713
1.02005530596367
1.02464706568202
1.04058448889204
1.05776991035235
1.16594372244242
1.09068015534078
1.12156230063872
1.13726087695989
1.09998339017748
1.14280970739949
1.20480683440175
1.13174028127446
1.1439790101423
1.14675734252235
1.14034029226314
1.16662003405249
1.20769994487363
1.13142935404398
1.16132274573408
1.14480510478619
1.18638908198241
1.1361399889678
1.17455815511061
1.16260034337704
1.18463847755757
1.15200764166921
1.20389674190272
1.25067966586913
1.25686615807871
1.27327996094682
1.18984665937704
1.14679486100811
1.19389259327946
1.25028274130814
1.23690767042411
1.15717626173034
1.1837890402255
1.18305334137913
1.23619187277715
1.21386608302403
1.25659097696693
1.2849452653543
1.35301456581059
1.19795084435932
1.19751619882831
1.31659414958889
1.28336627377364
1.22651161218133
1.28735595359572
1.34718407909935
1.40022151589726
1.28957869520035
1.2880734682353
1.29826117021491
1.33801389779561
1.24185158010966
1.32474953796334
1.36615530552261
1.30932867331018
1.30799451442471
1.34295606208397
1.28828757418596
1.30267947438903
1.33243855565008
1.36528774275185
1.26760661823809
1.36464737721972
1.3286559529884
1.25653333752671
1.36427696490707
1.38298682656588
1.28250815250429
1.39361814682998
1.39943217811762
1.34872734791376
1.3081749743753
1.37530629946757
1.37086649892153
1.37135872826962
1.32486140749863
1.34314114898788
1.32279895930788
1.38601668872873
1.42313286090898
1.42617328598699
1.3327119620824
1.41229978307174
1.48798547532924
1.41561702003498
1.4385091377551
1.36587068642777
1.31559251886769
1.55763983105468
1.47359275958047
1.3983516502877
1.59777024711067
1.56926564708415
1.53193649203256
1.51386869073141
1.41049763762183
1.47836425810246
1.51306414676546
1.42263637444704
1.31114710687738
1.40142048979292
1.40066781337745
1.42793616327778
1.47563147700828
1.46396411389225
1.47777214636313
1.43103655134623
1.40833053540887
1.45850587359783
1.49561426630817
1.40013497118186
1.45120454615895
1.53149819793754
1.47618007714287
1.5494590736951
1.38986576727977
1.45690816749099
1.53869037559803
1.58082526807604
1.54562522714147
1.53410866205729
1.44310036607317
1.4162438053569
1.58232905316078
1.43465941690237
1.43037179237554
1.51326842477381
1.52779174483608
1.57364996395939
1.44673112596835
1.48077081952877
1.55216161849224
1.46615677098903
1.46277917979176
1.5188930130949
1.57857009922306
1.52703164210311
1.42991410045866
1.47413997490109
1.51230300248264
1.44589168906248
1.48207058427342
1.62802274994988
1.57255575678262
1.49288814852678
1.41271206444593
1.50317870939764
1.48431200668316
1.44357619561928
1.50887372223849
1.51269429077765
1.52839733818122
1.45129875766185
1.59307331622957
1.58163988210014
1.48655680804217
1.51553091019461
1.56355909537648
1.63209459301464
1.72548241866073
1.67362479038383
1.5343483923363
1.53644979703803
1.55787418650024
1.47915186083412
1.47884352657704
1.49384679338584
1.37647057723902
1.53112707928799
1.59339352446562
1.48224138657614
1.69872711696846
1.53136790961395
1.51589346074208
1.57679786819297
1.53435571071745
1.55723256852728
1.52386717837514
1.577570003496
1.51777982702634
1.49644410133761
1.71998296387933
1.64970451046274
1.50277847094692
1.46656076105593
1.61936353071161
1.48132681001883
1.47933396950608
1.6212562089065
1.46205213597966
1.50225420931056
1.5379358455212
1.48008946540401
1.5584942770741
1.56199859201711
1.69693678568358
1.62121922316749
1.58978476848849
1.63783673545282
1.52674825194165
1.51532754446546
1.48083891394465
1.46751206676078
1.54571724696972
1.47951728206002
1.65094629130804
1.81876275951584
1.53280874126063
1.53006615634909
1.50220935380226
1.46210193440961
1.56390980351228
1.5103956296007
1.50999134220407
1.50382710054563
1.48376229700236
1.60653547051544
1.58053507513381
1.47493936756833
1.49806484286488
1.52016621917228
1.53669260487157
1.50752046691706
1.58935820972949
1.63732903864922
1.72366074527411
1.71729122504279
1.49196721338826
1.50328757999903
1.65359677103737
1.67215446524963
1.52687405534498
1.43199496834804
1.50164930875812
1.46466842201349
1.53762058230012
1.58211394555128
1.61066051892078
1.54387816621839
1.50463144794393
1.51795653970164
1.55575242234168
1.4884954645262
1.53667463726482
1.48195623715362
1.45917982857969
1.54197649657877
1.51782843418728
1.51606665557733
1.54132306992093
1.52288713515059
1.52263191580453
1.4570112049787
1.41259460728021
1.4582884915171
1.59947352300904
1.44669963345481
1.51560901051664
1.47376579508422
1.46901047988782
1.54274949265341
1.50049780989715
1.54115392318404
1.50760963401104
1.42071892457056
1.51086191505233
1.46068659880243
1.47789085765466
1.53565041661509
1.42491069843572
1.37885719651494
1.46025459090702
1.490580762345
1.44483419040614
1.39833881657775
1.4443421394004
1.44029310364068
1.42897916362482
1.39319999804183
1.44208024741989
1.44912104943063
1.43107478946938
1.3975726767175
1.36787832466426
1.38984692554446
1.43756423268444
1.34817067228103
1.38025149115485
1.36847030607179
1.37343501370173
1.39277864681319
1.39299377918376
1.38185321180206
1.36323875452806
1.41985625261307
1.37082396552605
1.34460723932358
1.35785853678678
1.32525779388124
1.35955352864302
1.25900082693534
1.29801202271084
1.30243801536029
1.30359456853868
1.2899310282529
1.29155000244861
1.27113747005956
1.39488809618948
1.28828407324112
1.29748647088141
1.30820489611057
1.27575631608112
1.30380923689284
1.25927960273918
1.2259835316887
1.24123143721804
1.22527905452194
1.2925526709983
1.25065560259603
1.23747289162181
1.23613808166745
1.22139920655417
1.22310992878892
1.21886372327453
1.20526571184946
1.23305386903863
1.19533934531739
1.23267177455181
1.22061240817076
1.2157155921749
1.17606326092771
1.17118980935965
1.15997704363518
1.18692271435933
1.14516020159407
1.17770150405395
1.1544747937268
1.1569362255135
1.13102534505074
1.1316810558478
1.17154243103343
1.14518046992975
1.09439934922938
1.14345260966528
1.13290590824963
1.12463708914758
1.09211495690657
1.09605463465626
1.09756631411936
1.08485002662036
1.09892522415824
1.08986920693372
1.08292376071496
1.08474316466923
1.04558625973412
1.06870072933169
1.04164362703957
1.08417740337633
1.04673410266559
1.03513176260846
1.0620713655804
1.07525910216369
0.997821119409821
1.01457414038885
0.994445237747199
0.989668422005096
1.00513054011709
1.00488459938916
0.986614569263756
0.994049844507664
0.965601122041103
0.987443434100783
0.976303400053615
0.984947785271409
0.946668598569698
0.955621285351432
0.968977688393554
0.949358260110396
0.942920375162817
0.927913472371231
0.920365019339587
0.926047222671798
0.918707961860559
0.964291602089235
0.923707932319815
0.908507157119847
0.918354066163753
0.914424518709846
0.901936288102735
0.905607047546263
0.88900433164576
0.878652788687583
0.879292570898348
0.876193487986604
0.854562955111432
0.859137728888613
0.87183312170506
0.870305082986387
0.853065242850353
0.850011243890753
0.830653584515836
0.837148085856673
0.845464396713498
0.849899706318495
0.829185241982394
0.817377205420327
0.818146476803178
0.81617802814142
0.800710589175569
0.819548330257133
0.810014482765887
0.802163456492075
0.788448692884855
0.787066463930255
0.762146134543877
0.786397615194363
0.785070753123339
0.775347218530471
0.759888476117925
0.777752270417559
0.766820016775503
0.772562921770834
0.749235639027944
0.740903409645464
0.73394083259904
0.742153480148679
0.720312786313943
0.73775085215278
0.730671241249161
0.737623915034859
0.731399765957004
0.717279905289713
0.709172547924564
0.705814340113508
0.694981633833123
0.697629841256635
0.699435989416304
0.693061445909795
0.68800559955791
0.688785595472385
0.676743932246502
0.678884051335951
0.657465291073306
0.663708942175133
0.658910405509843
0.667917052226166
0.655722362716583
0.660973777970075
0.64350124117931
0.644504329837143
0.648546918014518
0.661036647148463
0.63076444040947
0.63750526977273
0.638375663898767
0.627202659435358
0.627302756095872
0.631101817190976
0.616920996019077
0.616942029431875
0.608151793308101
0.614467515431365
0.604260623469354
0.60065659225441
0.597767666738957
0.592289241082072
0.596113057727613
0.588689215881913
0.586479531473992
0.58732518279861
0.57052191899756
0.578480298734522
0.569361762434477
0.578850186167446
0.563396789281947
0.562197407030608
0.551197426367729
0.556147786066613
0.542905685741239
0.54547211021275
0.547774289913153
0.550964843788076
0.53460202698752
0.531249729894332
0.529409261416439
0.540697893882731
0.531587916174745
0.540201709201133
0.536778016148897
0.533995329028621
0.522843820764104
0.525646660520772
0.517467350556205
0.520061706084625
0.518131843756846
0.519268244728906
0.509320809151132
0.523275575342744
0.510783233320238
0.500409866763503
0.499612333202208
0.499790486832972
0.498620402539132
0.49767573305563
0.486660581687868
0.495662212944586
0.492222568046546
0.491710452051304
0.500418481449038
0.50300891720979
0.491177263420031
0.494331921931609
0.497684018250792
0.489564180085373
0.482427221084462
0.489689793991317
0.483414883450779
0.487705919133515
0.479891333307735
0.481122980307088
0.487346553824693
0.496452486182507
0.475598259577328
0.484253990225899
0.491689143239415
0.489250405314594
0.487972512397499
0.4913513465328
0.488028941175894
0.495805582273386
0.488994862048653
0.487881228139323
0.482705216613631
0.490447194244506
0.485094709962496
0.484935325199232
0.485767733664746
0.502404501896661
0.486474998858317
0.489520133530274
0.495171387510009
0.500022189426936
0.485005174451073
0.497238537031713
0.493390021205442
0.506078276357367
0.50706573587937
0.500366819988629
0.496232306778845
0.497301643098097
0.492964478130502
0.509312191563752
0.517203222345477
0.516451995815506
0.507706718638824
0.514577472194567
0.503324535254231
0.517940595410208
0.525753054114016
0.524723165023856
0.521669079814508
0.532253329372352
0.522639210462414
0.529167271001921
0.533214587772495
0.538354598905766
0.525767792652883
0.539084872564563
0.531831144886655
0.532947949695126
0.537317635188645
0.546464756757819
0.542359255355659
0.543173438817422
0.534382359285566
0.536843963093998
0.531569396820579
0.528083668172943
0.533954451825246
0.536534405913516
0.529892155124046
0.531188693416271
0.530969335567526
0.520357008883552
0.523260268659601
0.52722306547702
0.518375614892446
0.52533119660462
0.521801053767562
0.531778469667792
0.513901958715272
0.517874645974175
0.516847403294015
0.522641296237708
0.516506421332821
0.521819895059699
0.512007674824167
0.52472202962873
0.515930271765464
0.514699761003889
0.49903217093897
0.506224503799535
0.516243741100642
0.515913355309009
0.502729539852917
0.510849550061614
0.500488464796549
0.5100389572717
0.511585405248227
0.507302219640191
0.507406087839037
0.50655181326157
0.504562674645661
0.517494680227302
0.507915832594602
0.507535997033286
0.506679812388819
0.517444057149097
0.509282594808145
0.507974252711098
0.50241178199954
0.504661902041556
0.508269638200532
0.512549341929354
0.495732843358831
0.507381678197474
0.499529673818661
0.511310052577159
0.501064829980722
0.494715984415234
0.497683781824225
0.504846508879762
0.492663757804426
0.487486376018274
0.487315921932097
0.490136756764822
0.482595416781094
0.4865131776527
0.472307089681375
0.483398978657107
0.477554472750633
0.478057655299304
0.471192689061964
0.468151844670866
0.459729842265449
0.457727768410738
0.449513169877987
0.454687110623055
0.447699179913871
0.44507282156599
0.441717576645415
0.455672247238556
0.438995705399643
0.439458850706499
0.435519350236076
0.431543351037106
0.427486116880723
0.425887219061381
0.418163507610406
0.423475771166836
0.416921128999885
0.420578809013878
0.410440622372517
0.414131456630542
0.404993967244646
0.411653096758105
0.403918834949348
0.405092807232792
0.393250038205364
0.396568946549591
0.389834135197835
0.392650833207487
0.392800279212876
0.394456234465788
0.385610027333196
0.381030865806539
0.372522166167316
0.384847193983999
0.374072070750247
0.37150954643106
0.378922981520609
0.380909208996394
0.367684388485082
0.369531033265457
0.364131368975338
0.366128342845724
0.366339422102259
0.363610135596059
0.35860757477932
0.366693634606497
0.357338377087052
0.354866932063171
0.352319428719827
0.353562285572448
0.350802705776553
0.350767817860399
0.338813012168381
0.343693736109358
0.341166079622058
0.345774334388418
0.338194837462822
0.340243572494007
0.336586190166337
0.340639536414146
0.332299271165722
0.330075488910065
0.330307976099491
0.333938012363924
0.325233544654164
0.329045476600741
0.324933325933775
0.327192452295526
0.323673968794461
0.327056552547343
0.320756819901045
0.324478509129068
0.318472269301686
0.316858557313385
0.314778416254104
0.318116314216712
0.313841300137122
0.316514061421942
0.315560016988212
0.316333496310479
0.305289880297408
0.309801956728474
0.312643405746021
0.313164362539202
0.308740821415062
0.306563235983659
0.300938463082171
0.31085275741316
0.299439019306401
0.300084220310824
0.295123602368226
0.298724787132126
0.293453436062638
0.303358612321204
0.300941718746403
0.297933365884232
0.297026752867372
0.301049056938465
0.29354387299217
0.28988849693286
0.28904385537289
0.29581399593977
0.289397310259975
0.292670897183546
0.287354080692621
0.291236770683907
0.285925125770332
0.292235188759319
0.286133777464644
0.288233860778096
0.2842713123653
0.286759032442915
0.280089763074152
0.283708845029185
0.279550456761894
0.282936735574105
0.281169219750883
0.280785239050421
0.275491403992086
0.279657579121871
0.273189281043333
0.278609610971252
0.271912155734995
0.273601513333565
0.271681421632
0.273428044103181
0.265596040560449
0.274467606787563
0.268855406306587
0.275539583678313
0.269261118244317
0.268965785344335
0.263460928928253
0.272052898460476
0.267554058055614
0.269770438346327
0.262050247947221
0.267309583583776
0.257774236619764
0.266964842510636
0.259430822764458
0.265367753104418
0.265641210742032
0.264527530508164
0.260327107673437
0.260010148634955
0.261500957257714
0.261512077248679
0.260875177166684
0.262276363658461
0.253934006737364
0.258403496988003
0.256082933457476
0.259915494463517
0.256382408187227
0.25922830883796
0.250569802154839
0.258090365524777
0.254539253827239
0.256553760631204
0.25039418399972
0.252997441692187
0.251198787239639
0.254860239081911
0.247286285683226
0.253003904924449
0.245364675039805
0.247846564470955
0.248963029252833
0.247907757035905
0.243871786443552
0.250356451294417
0.242701993613123
0.253054015679447
0.242524218313784
0.243503113713363
0.24093948168497
0.246787308850725
0.241310796578548
0.240449510353433
0.238962345527031
0.239665493720224
0.235326247137703
0.241900960866413
0.236761612581942
0.236217283835741
0.230578398955624
0.235238990869337
0.231523773837867
0.235469005194741
0.228613766261659
0.233814672431572
0.230690445673149
0.230576504002018
0.231338415996947
0.232772126718605
0.225750654402035
0.226571854633449
0.227542668602536
0.228534150283156
0.223295418421484
0.226229175695441
0.227714619166265
0.224311166042108
0.218006864160777
0.227145316833505
0.218620505473472
0.219388426273925
0.218981851756308
0.22130483160434
0.22048233979989
0.220471455169814
0.211752326368603
0.215144349858902
0.214710689636628
0.215901278930386
0.212223143387761
0.215886860423373
0.213238299348075
0.210543024950001
0.209049130619491
0.213214009517351
0.206055932284464
0.211224220907889
0.207656061986803
0.212134909019538
0.202577850734741
0.206815193133866
0.199393687935114
0.202809149598353
0.199225992667906
0.206057441426589
0.199313383816072
0.201338288077183
0.193678104131083
0.199001520601499
0.198897989118416
0.195203132275218
0.192717074259337
0.197913512412647
0.192698913632824
0.195669486002685
0.190474589878113
0.194678418196119
0.189149923876971
0.190043126472811
0.188168790728539
0.189611510896613
0.186846076285951
0.186993867622916
0.184376997556419
0.185963604924687
0.180264523291996
0.185022986464549
0.180896666188877
0.18190393501583
0.178498075554336
0.18098049496034
0.179471412689048
0.176925758190293
0.175933510350188
0.180113203172391
0.17566287906096
0.181673586512652
0.175181486628609
0.178240468704474
0.174864467344876
0.174698374839313
0.173725248209011
0.176757499054216
0.170060085699782
0.174793762999779
0.169422926427055
0.173684497369297
0.169822220497662
0.175618193093293
0.16849290769941
0.172923304054412
0.165757694299555
0.170280349808431
0.166894222680411
0.171190858049484
0.165345678318976
0.167953239236156
0.164575782591083
0.172185825374093
0.16159558301802
0.16377281431766
0.165808467747394
0.166793869644528
0.163485531955083
0.168347650409135
0.163522750492715
0.163767341237956
0.162332139485705
0.166827788379527
0.15929158065392
0.161938660621502
0.160004590605978
0.161115473764799
0.157944060256305
0.162480035877826
0.160270145318453
0.159525844583245
0.155421144346961
0.159893652357366
0.157612436292647
0.160759167955516
0.155728603881251
0.156028579794219
0.155922439389185
0.156900674908472
0.150204066872798
0.155259534201148
0.155373103770179
0.158575668090215
0.153124074274249
0.15540287219061
0.154176491504934
0.158409772397715
0.150134156804751
0.154108641421413
0.152977016781228
0.153880575750015
0.152477816857154
0.155698964459281
0.149842440190553
0.15415465237468
0.151973436630101
0.154920815778141
0.152756179494375
0.154031333301571
0.148954487769094
0.152046496214636
0.150000897685364
0.151938484565137
0.148632271966166
0.151047085708928
0.148128113033429
0.149692006290486
0.149402963184349
0.152067198572242
0.148164539466759
0.151916663208927
0.148228318994708
0.151467789792666
0.14925577155323
0.150066796011631
0.149589229102151
0.150472940233792
0.14364015161995
0.147971588104593
0.1499589934474
0.148702149377693
0.144756913405124
0.149390613846827
0.143374084469896
0.147514836409446
0.142738421291187
0.146390335318244
0.140826761627654
0.147231088170633
0.140691453708441
0.145385660348109
0.14134963103738
0.143378076440045
0.139109450071246
0.14410459317958
0.139236614883436
0.142050296339925
0.139272155818825
0.144513499788182
0.136994442097145
0.138425991920208
0.137146145045484
0.140497206504228
0.137383022668415
0.143532368977937
0.137941643971508
0.141830082139255
0.138365242880459
0.14096208513522
0.135995597133453
0.13680519495645
0.133422236899767
0.140250919826661
0.137919610046244
0.139296262690721
0.133038935139474
0.139807098054224
0.136568443265535
0.136670062575559
0.133400317102801
0.140884484453086
0.132937693938131
0.136619074195657
0.135313841735694
0.13608229835078
0.132157832631945
0.138045138031128
0.133848135021561
0.137111824247371
0.132930393612679
0.137506087583009
0.134661569725258
0.134560638080822
0.129749541033648
0.137576968830224
0.131614990496355
0.133595171180868
0.133084298879883
0.134761691814904
0.130953833685142
0.1318119693051
0.127499945949082
0.132765553591786
0.128801929490755
0.132216054743336
0.129264098849238
0.128783811792424
0.125727865292662
0.131790956013668
0.127485879850217
0.126603163942022
0.121982701027335
0.131967459703642
0.127924998729084
0.127768481343017
0.122291027549316
0.126835327059741
0.123385754839639
0.125997082621206
0.124645220342693
0.127220968312352
0.120331363641344
0.125247581812635
0.121660753616989
0.120264470933849
0.120632040171982
0.123834451576959
0.120221508545518
0.121535905849948
0.119113421645931
0.126362042719381
0.120014179845133
0.124406056256826
0.120568820586675
0.124281080967952
0.118779283062188
0.121564013315528
0.118748237910875
0.124043354002312
0.120082044341388
0.121078058099499
0.11613762117143
0.123519108043854
0.12109027416801
0.12257433745133
0.116590227593948
0.121950152846081
0.115677370845995
0.122569185208883
0.114601560416122
0.121013682804081
0.117364401800425
0.121812827537583
0.11542303775996
0.117431568795547
0.115760908368021
0.120101799969341
0.117037825419188
0.116597226849426
0.115587277491138
0.119431401563227
0.115532941159118
0.119342730686426
0.113386244108153
0.120349514211874
0.113207137943209
0.118115673045561
0.115298670246603
0.113143930732954
0.112646688936567
0.116384156081405
0.111156063443596
0.115675243337321
0.11172001376849
0.114621124632323
0.111137659501178
0.112529968955503
0.111025674279088
0.116480388213056
0.111201606626485
0.114922993455
0.110349534166011
0.113688278892223
0.11144988318204
0.116494831678929
0.106203607847103
0.110626404159773
0.108803686863219
0.113438069956248
0.107887609340917
0.112277305030074
0.107696126156794
0.111919123539856
0.110351498984701
0.114695622430825
0.108838343072684
0.114146362659892
0.111285846698355
0.113440939356998
0.107357917323254
0.114929937342545
0.111668523897708
0.114534497904931
0.112129663508677
0.113629975687251
0.110984957295274
0.113031252773677
0.109091026797419
0.114042707756467
0.112204482093661
0.113765899353247
0.113376829208521
0.115809254190385
0.110284743926192
0.118681789834294
0.110542235329171
0.116914625258013
0.104100388010667
0.108527978169619
0.101400084403737
0.10369429493585
0.103861444299877
0.118831598283145
0.101293553819457
0.0984811346374939
0.103785263042406
0.11035037884011
0.0961148542058402
0.108973288770544
0.103362636282752
0.106098008538715
0.10025244977493
0.110150892182263
0.0942271020703171
0.118805661512604
0.10250750170044
0.113392793054689
0.105175572337239
0.112346214393252
0.110378754020095
0.112082254748234
0.101199997907737
0.111882967043459
0.10044870054216
0.112928011678973
0.0966898812699963
0.117761811389547
0.0946479144617891
0.114178363356243
0.0936872416714792
0.114576645907728
0.0950212411456692
0.117675133944186
0.0926385695548201
0.12128193977033
0.0895776896595484
0.122875807196895
0.0864325745583387
0.126291914052299
0.0824936634473038
0.135777889143742
0.0850597505892114
0.138267755395786
0.0804258431202457
0.138757590929363
0.0817206586505448
0.151550854064596
0.0801517559911952
0.143635953573183
0.0838426929657489
0.148837066320245
0.082111786559568
0.136999032375711
0.0990436791802489
0.12847733687246
0.10437831978219
0.123008679775553
0.114348970445224
0.109751130743003
0.125749537531983
0.106268194184717
0.124060600637853
0.105945351681637
0.128216904277051
0.106341223296041
0.120445308050975
0.116218103531017
0.113024985496402
0.117041963476183
0.1146567508546
0.118145813211652
0.112751972600784
0.117075989076288
0.114348023752161
0.115020438169638
0.115802881086734
0.116102959423383
0.116034629825598
0.113396401900405
0.114400930232619
0.115863361100223
0.116468854838846
0.116001964720319
0.113319255237556
0.115620861851203
0.112392373773897
0.115529886804156
0.115858118475121
0.116777664193253
0.115372241045269
0.117751964831635
0.113588548511786
0.116218451776064
0.114062747083234
0.11689287007878
0.116507355890021
0.117386486417642
0.117908788550059
0.11999102833181
0.116919798611281
0.116897531842617
0.117171293413442
0.118979390745984
0.115925170280784
0.118455594679483
0.117942725312127
0.118388870680392
0.120701510700394
0.119890132299178
0.119694855633584
0.120610968537779
0.118662956994175
0.120246109332579
0.119165865174256
0.122205952032618
0.119430214169283
0.123118575068678
0.121529055233109
0.121602124261047
0.121368126153574
0.122827801860088
0.120821590259051
0.122719231927694
0.121883869658937
0.118886108444178
0.121515542003822
0.121187993035053
0.122670799316388
0.123192852165674
0.123201275849509
0.124214628038089
0.121815811037678
0.123919418479995
0.121654336708529
0.124459677613159
0.121079260037607
0.124103964911695
0.123680191954566
0.12499138429458
0.124009007291426
0.125779986474711
0.124423140601569
0.125108899685532
0.124164769498564
0.128345484925172
0.125367964075123
0.126346287947375
0.125944180741594
0.126876802653396
0.12460788144232
0.128543071380322
0.126803496310246
0.127663305754363
0.125984747481994
0.130439123782534
0.12789100874433
0.128169544449996
0.127140814810934
0.128760463508321
0.126980763627785
0.129330048125617
0.127076375545478
0.130925872242873
0.13069039894503
0.130066764895778
0.130489425883872
0.132804461691107
0.129424020643244
0.131729882120225
0.129344815745516
0.132991125409019
0.129775086102778
0.134290463257447
0.130903012423693
0.132860030999097
0.13133224791798
0.13329643092018
0.132942353282227
0.132884966331435
0.13339665891642
0.13629014717004
0.133667735964941
0.134695722890337
0.134017310572171
0.135728345752322
0.133537646863473
0.136733691021224
0.135946601947794
0.136922659493125
0.136419767279165
0.137516483117394
0.133699713011603
0.139310090095461
0.133909162474607
0.135163261107865
0.131796556116406
0.139687201660444
0.137290624985891
0.140738137927815
0.138360499265429
0.137529177542718
0.137078250749326
0.140749295821268
0.136296136041324
0.140165376221208
0.136591264428744
0.139870035226382
0.139117694598237
0.138675826922003
0.138031156969969
0.141164942564624
0.137812568615412
0.140314983592258
0.1376418057082
0.141384740691639
0.141968288239751
0.143948258179068
0.14091504616421
0.142999007582154
0.139427404648311
0.144445597654115
0.141585892811985
0.144267686392189
0.140229393084983
0.14369311496657
0.142089091973224
0.14480736654422
0.142867902400377
0.143490431667655
0.141370970160208
0.146130031000375
0.141335038667176
0.144783197709329
0.141658194892477
0.146785838670225
0.142698532074578
0.145375285657477
0.142625487485176
0.147009801293781
0.143729618053471
0.145479918648718
0.143288360098612
0.146604334612267
0.142499384377708
0.146343391631481
0.145212018726302
0.145471390009339
0.143037848379426
0.143530818069999
0.142500268018475
0.145206329132338
0.142398791688617
0.143525700045713
0.14288386594192
0.14461327395052
0.141068389074805
0.144412586438625
0.141023931233742
0.146585615870828
0.140514906543071
0.144269135883658
0.140458128895786
0.142121153915015
0.139368307708784
0.142461991533714
0.140952670229202
0.143771451508899
0.141500064335298
0.144139294886722
0.140435647991766
0.14077789466507
0.142382663033621
0.145200653002388
0.139581244725224
0.143504771223748
0.141526185312089
0.142020324647409
0.141096220168137
0.143172900657625
0.140803051860991
0.141611402967994
0.13899211276373
0.14198129516628
0.141431619886724
0.141408454392725
0.136319813331107
0.143620789621592
0.139772828528545
0.143238695405609
0.137042866699321
0.142365876685408
0.137575558211307
0.142152578254047
0.14087971889827
0.141726289663443
0.14024155744349
0.138301907155226
0.136434617197083
0.142727940890821
0.136787892813326
0.141182004342155
0.137905670789661
0.142481416294712
0.139976019855447
0.140837455188836
0.135185285088994
0.140337868083548
0.135745481074036
0.137373200698452
0.136792127016155
0.140111176424733
0.135204154183129
0.138187966053891
0.136580771900642
0.138437717000656
0.135615989875677
0.13816015082848
0.135228790481987
0.136728205401947
0.134414176334889
0.135161496454541
0.134002989839055
0.137491006539583
0.13505104292152
0.134929712908793
0.136802488294092
0.13681854634092
0.135201063901819
0.134868495449578
0.132440254880208
0.13467584262279
0.132158797051488
0.134918860336191
0.13050419408277
0.133912499701969
0.131282908093191
0.134804403934784
0.130588792736175
0.134305994454002
0.131218216021641
0.131135553724486
0.127751656323933
0.133710375462525
0.12778511410199
0.131679314581644
0.129137992180139
0.131626904329822
0.129933947015012
0.132685832987319
0.128340095637546
0.133380981400981
0.130079790234228
0.129777293994434
0.127036855211667
0.125505804611318
0.124478147327638
0.13129082502663
0.126493005487154
0.127746687175708
0.126198191450798
0.128816885830742
0.127218194628552
0.128193895764795
0.123266796746663
0.125003329253589
0.125609503453223
0.127318678182782
0.121069178359818
0.123995440477574
0.122277105771671
0.124219350828057
0.121941586744109
0.121926926515549
0.118811920207694
0.118972125560095
0.12128822869553
0.119553504519847
0.123614230432368
0.118547285608586
0.119408158427156
0.121868014407138
0.116243914686603
0.118903605477536
0.118010359659852
0.118669226695972
0.114773222587694
0.117107292989388
0.117103514357366
0.115860194525701
0.115572149178724
0.115941528740047
0.113678311182476
0.117143392064323
0.114847162959669
0.114947951706569
0.112398528126883
0.114732775537407
0.110600230771793
0.113046835398766
0.112875446954173
0.109958616257228
0.112781543684689
0.11252542342746
0.113259137252657
0.120934551192319
0.110562733541833
0.112543201248159
0.113139430326965
0.11374247216974
0.108900167262507
0.112607316622301
0.108344642198125
0.11341213047797
0.108904903076282
0.110675569096277
0.108703065876345
0.112054522821532
0.107607974609504
0.111470970250095
0.108348147590785
0.108556722868266
0.108490412719296
0.111071625238032
0.104616938467968
0.105730416483524
0.107827154056635
0.107211898119066
0.105301323213066
0.108544656914195
0.106696707654612
0.113355409255562
0.109224085186113
0.109209318617041
0.104646157459174
0.107134328626966
0.102284048108107
0.105486508316453
0.100531613076647
0.106313725796727
0.104457913812237
0.105474770267054
0.101401846653793
0.105485083489023
0.101619998334831
0.103978488165776
0.101068918321642
0.104660009640388
0.0988789115710998
0.105675999851849
0.0995722623867231
0.103251305282618
0.097758638155823
0.103377013795669
0.102033430246892
0.105676514349131
0.0974098559150416
0.105905789228242
0.117975613684635
0.102396033014282
0.0999449218041226
0.0994183387148434
0.0994191734140415
0.100343654525602
0.09771483698876
0.100471647582431
0.0977005795378045
0.0982752452047815
0.097691773358033
0.0994492938671742
0.0980449162358872
0.100537884788779
0.0986991216661486
0.0986282480527233
0.0986443953359566
0.0972642772446979
0.100334945840974
0.0976000444836325
0.0991570080521591
0.109892348969742
0.101706210899348
0.0994158794018541
0.0997371960094043
0.0900648465439291
0.117734497332657
0.104268573113585
0.100725795400103
0.0970901119888658
0.0967690411681292
0.0976780619046056
0.0963653802162748
0.096815545115051
0.0977216553039948
0.104588377661498
0.0922667853924064
0.102649183821093
0.0968232167336457
0.096685218854484
0.0942054353996368
0.0960606256210453
0.092037057843422
0.0956202111303536
0.0939297677011376
0.0953174453771919
0.09440439385324
0.0926737758764098
0.0954742125762844
0.0966103643139732
0.0964019998352576
0.100746405347842
0.095680600299887
0.0951247353609239
0.096977062031358
0.0934561067148267
0.0975500987928217
0.112384643610724
0.0901706862340592
0.0988699977404015
0.0934842652345591
0.0967125101203447
0.0909405187888959
0.0984220900194284
0.0926935474153903
0.0960345998328123
0.0920547604613499
0.095427365779265
0.0921244586881469
0.0948729840604151
0.092340182264954
0.0977083350376219
0.0920387290449775
0.0959748513364825
0.0970025273917163
0.0940972485308488
0.097814743355618
0.0910272986693481
0.108246767915248
0.115971741110762
0.104198886199937
0.10665659209871
0.0971383553467769
0.0983096759885659
0.0940326691611471
0.0965373281938906
0.094495365849704
0.0977475567068806
0.0939470592646976
0.0994151943231364
0.09415547741746
0.098196152551454
0.0926862094859002
0.0955908534000622
0.091170011538923
0.0991379594533474
0.0926116493470894
0.0984011664375842
0.090915177796245
0.102089931197828
0.0906949619533702
0.103530508931678
0.0959564093261425
0.105303113407934
0.0845211409023856
0.125948712200786
0.112053392266237
0.0990071107299391
0.102599223727879
0.0950658458618186
0.0976952582281197
0.0963685293873856
0.0978136417000858
0.103802141584249
0.0970582177581777
0.0975442138733198
0.0989439386537391
0.0990133377390318
0.10011667993829
0.0945189755898379
0.10245872271172
0.12704320609945
0.100108272885911
0.107506299542485
0.0968243134395667
0.10044051634522
0.122621336825608
0.105090775334495
0.104218315457708
0.102796346727264
0.100802735462707
0.103676942243393
0.0997618191588819
0.100840484960865
0.106702659670774
0.106675659323928
0.100169018886755
0.103082286428203
0.0998135196712538
0.106421317093302
0.101939447212086
0.111845076411919
0.110695769667891
0.103316827953117
0.104444238123718
0.105784310017232
0.101805702726527
0.105922350101702
0.105471535652069
0.10564973089509
0.113514011187954
0.11726354701494
0.105771150371972
0.120845374116984
0.114651193294783
0.105337654676865
0.108509779900865
0.113610786233435
0.11793235354977
0.103093963021936
0.112470643942111
0.13453485977029
0.117489486469271
0.129759791730842
0.106288596249807
0.116706062332103
0.10598322516669
0.117326952048512
0.103849911706688
0.126347725483559
0.110752777932053
0.119078687121233
0.107359252552054
0.12379449603286
0.121834739728099
0.122720116604339
0.115011421950819
0.118501103927826
0.114043756446347
0.130003376799631
0.122157959048364
0.112528294755036
0.147817351551556
0.142914878561523
0.13557160851652
0.130554191603551
0.119764150158019
0.156493219650814
0.123863897395958
0.128831713028779
0.122019017854363
0.126653005522663
0.122061635487331
0.123826001946778
0.154112141270213
0.13814977426836
0.126171503298013
0.136434991637477
0.123944336545689
0.158859163670258
0.14335392860727
0.135431073232913
0.131863697478962
0.139703049777824
0.123206476305847
0.171715877471162
0.156494235111297
0.149248536245609
0.162119622537214
0.152867614611923
0.156883952158175
0.15513623775556
0.150153680362651
0.15468867559171
0.166513738158811
0.156625507083107
0.143875085302182
0.162873645644353
0.180757160261339
0.156004825644628
0.16690246154649
0.16011789410927
0.155667276475119
0.188869384558374
0.21923189578024
0.195598404415579
0.173762300281406
0.175107336715388
0.195205050734812
0.179806762323389
0.173890254726229
0.179917965212483
0.178161787986609
0.183710852153402
0.181361042152863
0.199471660921309
0.185978041761881
0.191630549308832
0.194414668873437
0.194491696468099
0.211487442643309
0.24330805360752
0.23941155130353
0.21642321404915
0.245311373108357
0.23185267648054
0.223870894499125
0.22434929306911
0.221041996107424
0.233934552677877
0.232974772067724
0.236644052161758
0.230863282294866
0.264701226673521
0.259304954673691
0.262620433624954
0.277399387304098
0.260674068345488
0.270629797137284
0.260291214139764
0.421008942475403
0.31335718282964
0.303727329553901
0.298685536366326
0.303178051777721
0.38356554254012
0.327273885775743
0.321534268931185
0.332072408700933
0.334275005539042
0.352275462785342
0.361104053417883
0.364907438230686
0.382906185891553
0.382414166054202
0.376586539470804
0.397802074329814
0.463211320554156
0.462070284365156
0.447977916997392
0.423009408532355
0.45463907440637
0.468371113013071
0.455744937479637
0.468161534882218
0.468697173785949
0.482970521062468
0.54524235530605
0.512702311768604
0.514121543106569
0.519101897108279
0.558259179382993
0.523173295134312
0.581113369945533
0.596484420121697
0.573895265612562
0.579308662760616
0.590900560954884
0.596261564574227
0.584600930406248
0.636489073764101
0.638821002307839
0.634808943862271
0.642019524793039
0.645873586064122
0.660788592561252
0.656548469960622
0.676059589661854
0.674802223038037
0.701612984047699
0.713272695941875
0.854897040184223
0.757674107759867
0.709746875317159
0.731508059749313
0.716014687030924
0.747309010205307
0.749350539432593
0.779188500672705
0.77673444216941
0.712569260942403
0.73816092247719
0.736316440494413
0.755225893450485
0.743938626929028
0.755115933791628
0.741618850861863
0.788133182671241
0.748248660156695
0.756968256616573
0.864184129775135
0.751865107689346
0.748678059389507
0.752537141550436
0.731507457494125
0.741928837154093
0.732178698092554
0.742081717465
0.763250017545123
0.719992950829391
0.714454210026388
0.706115931227659
0.734538920476543
0.752951553190947
0.687907314119989
0.675964389004708
0.676974824629617
0.668157352600549
0.652429465877563
0.648982382940846
0.720881306534278
0.650236072396143
0.620924741577671
0.619923267154822
0.618830653272466
0.610216672561654
0.596468003918301
0.603276195112739
0.593416727166306
0.58005296964684
0.571456910205224
0.571989910679836
0.567119846373574
0.552108294151122
0.558922349043312
0.550630958681738
0.541783192689513
0.543789149245844
0.530809631862201
0.528692190534322
0.52978716464132
0.526565630154989
0.513167764599318
0.521545504522504
0.520326134117694
0.511133884667466
0.50676537987982
0.500633110052638
0.496608946676357
0.496284997229739
0.497145179205928
0.495103862160075
0.487208720082605
0.489730807574368
0.481638338649192
0.488082268528591
0.479366006862017
0.478414343210661
0.476361631013588
0.478068127780158
0.477053844435636
0.481781745389463
0.465338510655176
0.520113733197594
0.50584584246825
0.47394024832178
0.468942171770079
0.466254765447806
0.462037914224561
0.449158569782408
0.486330950139987
0.49145285260805
0.461025758785117
0.462076147973782
0.4537497967228
0.465810239916771
0.464764577487954
0.454274059625094
0.456037221095247
0.437114156190794
0.464372089601182
0.534605961671092
0.485624472833071
0.537405056469899
0.469464073187829
0.436894890073867
0.440898223385537
0.472184439883682
0.432748704802818
0.432630607546833
0.425582855889334
0.456460926060186
0.442787525356281
0.422299497239682
0.420884282479685
0.40868531167873
0.43211039018765
0.449455350217905
0.416397170791753
0.426508523431383
0.448562862355359
0.416213057946088
0.419918267178411
0.469133126670883
0.433143274351018
0.390592903022276
0.390698459218819
0.388575546026931
0.393843156945749
0.438152043862129
0.393644108780385
0.391013063308936
0.372549184932138
0.368220215537129
0.371825013697484
0.384358065223321
0.37670208361987
0.36631704150092
0.390643844276351
0.361543587024348
0.352684029563902
0.375740924795582
0.389468214405947
0.405486272524465
0.362467794377882
0.348333603136343
0.36681093154821
0.38613481092606
0.355401355927415
0.353994511360965
0.328418624724546
0.336049769412541
0.354354337530107
0.334055798120659
0.338170526944113
0.345052406795001
0.336163989159482
0.366042591806866
0.380948439025813
0.372026797541656
0.333807788021517
0.314390819926618
0.313732390535182
0.317274838311244
0.311091292220353
0.306696985539898
0.322021758821102
0.326195418730691
0.308379693038115
0.354076416789129
0.324573143268239
0.313799606572359
0.317455569209094
0.309716091165519
0.318186857733633
0.346581540929374
0.353563008866317
0.337899680597489
0.326005472590607
0.341697859288721
0.329969968329623
0.330768825603183
0.330933133307572
0.33658990286569
0.334449410790918
0.345529694232041
0.346983879798804
0.355733501018422
0.354337651849953
0.358060297466128
0.372340961489806
0.391983151467586
0.367324625786062
0.390656414876876
0.412079344658769
0.430616785952618
0.419379336646144
0.400034445548964
0.410632972985051
0.412484779599375
0.415998321732064
0.419957958121304
0.428009633785012
0.458797548285811
0.442145965727885
0.443768499746548
0.447337971960998
0.445765664539853
0.456544422388826
0.473290986886058
0.476744352417384
0.491822611733979
0.507862192450955
0.47951204562963
0.47920555917151
0.467469665129639
0.478783874217102
0.479504835386831
0.468735320423259
0.474166380610542
0.475378732769748
0.504175138350141
0.488965829498521
0.481286494634398
0.483793587177629
0.483104304323958
0.485235480801291
0.495512636239344
0.492936840830193
0.496890090929358
0.502054376902249
0.501368805147105
0.497977704215982
0.544177630990358
0.536618938418572
0.510201167197997
0.515906492730185
0.520701482466759
0.521722975937008
0.516684979441107
0.527931389127191
0.536664939570356
0.528416923855158
0.52893236152303
0.529439944038021
0.53532641382043
0.557556302080322
0.56091153374681
0.551467801894923
0.546587358618206
0.543855450601803
0.555795981046175
0.607148498062779
0.566638782739439
0.572166530381195
0.568677057981506
0.554844575385614
0.562117029722268
0.560811106068026
0.564622381437419
0.564110703114852
0.565209863950368
0.567302237722051
0.563363714252724
0.566570020868176
0.565598338553877
0.560820615223794
0.581027779913035
0.568380965491726
0.557942920881003
0.560697502282443
0.564909972579007
0.557441265857547
0.569871788204385
0.58106083951307
0.562773298979278
0.563696176918002
0.563408715665553
0.574679605626003
0.579611742761985
0.55790106063049
0.556808840346912
0.557115747678185
0.559607850577353
0.558422794751023
0.55679488866567
0.580059525193197
0.57216785997626
0.564215391188768
0.567609630239537
0.565616434749883
0.575681081165384
0.579741557615296
0.581443661687618
0.583124896722819
0.588680645613018
0.591786819781003
0.590004601236275
0.583848751372163
0.601211765656467
0.606005337763303
0.608984737459436
0.599358519535903
0.588733260051026
0.590158179559527
0.587926887521093
0.592120812043926
0.588219681240551
0.581017200485648
0.575661156413651
0.571218388987839
0.575714945801425
0.585461700276091
0.573994581955856
0.566730309973114
0.567552562977375
0.549164085223319
0.556189707672997
0.543877696059402
0.543337888175159
0.54450024066121
0.545495511335845
0.538770272347709
0.537497594372309
0.535313825491627
0.538199620517464
0.535484227802797
0.534645235689116
0.535304616548255
0.53316749090113
0.526809251906355
0.527522328920766
0.523918997926764
0.527916341586241
0.52752039368286
0.52751237822269
0.531194959466303
0.5385267908485
0.529639417237059
0.529382761696313
0.521619882769505
0.528995298861505
0.521702506321118
0.517905064051009
0.517714820055439
0.521911274759894
0.51985115485511
0.518719778406754
0.52405138906642
0.519628408777937
0.515091747489354
0.51834762052106
0.517360563573906
0.510879011867938
0.512771029444489
0.513495310502159
0.511154507090482
0.514395781858394
0.513196656940247
0.514993431775482
0.510755423201231
0.511971229558782
0.509805932211506
0.505171563252295
0.511468897651474
0.512591466266264
0.509414136437849
0.509040978179793
0.502725396130399
0.504698746934411
0.506292295095562
0.505340504295397
0.50540146618163
0.503121891169034
0.506369834342537
0.50326529740386
0.499308559523756
0.49896911823619
0.490861546659007
0.492656056245242
0.490813852050935
0.483182493491332
0.485304111181441
0.487610611614282
0.479656674264494
0.475488870853758
0.474774416806358
0.473615966907811
0.46912100658805
0.464022562200309
0.460958685359746
0.46472784386913
0.462515331233972
0.457313842820795
0.455207619888357
0.456837596256743
0.454975325316297
0.454802759306068
0.457573504345893
0.45555268677816
0.455389262842888
0.45767561865405
0.453672204789438
0.454881245550833
0.457493014228271
0.456199286378505
0.453639793148675
0.45796985912546
0.460875936413884
0.46191266659784
0.461873484263144
0.463329266807584
0.467685601105369
0.469300291622794
0.466993225577543
0.471522444985845
0.470375802765238
0.475942913637268
0.473525000318708
0.475067828388901
0.473165236730052
0.473958422369129
0.479537471785268
0.479619336682091
0.476072207376257
0.475183229948275
0.475849245548589
0.478229942484241
0.475787319091981
0.47619978489311
0.472360718472213
0.472588474050334
0.469225036550545
0.467739805928458
0.467621682700563
0.471263063754498
0.467965475976887
0.464150087622281
0.463642341704316
0.464440266082141
0.464334983692663
0.461770752040367
0.458857251653904
0.459651523133248
0.456985139913663
0.456789281900474
0.452080475239685
0.449977944233407
0.450945804419356
0.446710861772357
0.446872758644921
0.444754590694451
0.443416171110205
0.444808330034259
0.441152341304052
0.440420874423811
0.439240543383649
0.438029023981053
0.436779964577955
0.435628631693484
0.436314394833959
0.432338803500467
0.42982390892793
0.43126503120176
0.430302118591548
0.427711301454723
0.424562542403127
0.420370769054089
0.418431594302599
0.415325984044744
0.415267993646158
0.413034516206634
0.411032330784946
0.408183405057237
0.402818810131662
0.40401945988515
0.401716549941018
0.398013744051373
0.395663607224036
0.397083757098228
0.39525949429763
0.395258769007644
0.394803364857216
0.395511164171127
0.392096348380324
0.392780287458698
0.392321634189253
0.388657580995157
0.386814388099663
0.385577179213115
0.382179200189159
0.379784004262452
0.374302716269619
0.37078687201122
0.368901390970823
0.363314261722367
0.358529501939812
0.359125404819103
0.353764342217952
0.351183862008353
0.351287266598199
0.34986387441199
0.346260926252762
0.345001205711158
0.348625348549291
0.352940374570605
0.355072446880009
0.360960202487973
0.363801690381732
0.371800263863826
0.381337450659428
0.391249147528103
0.40114580234518
0.413399960144058
0.424136935678051
0.43736254201969
0.450569305350534
0.464249341759871
0.482898850486707
0.494253418177026
0.507579763184395
0.525597929554673
0.538946854952186
0.554305002867491
0.570496824651319
0.5880832889303
0.604592929686503
0.622033177619273
0.634481465658997
0.649568744930739
0.661277982809514
0.673579873517103
0.688012925385174
0.698905247717897
0.704731698927185
0.717463492272318
0.725306586595298
0.729662098505811
0.736088990630098
0.74319167705625
0.742301625186408
0.743557007299847
0.742911437928713
0.743002772377229
0.739259922217931
0.733945714434237
0.731610295813293
0.727998238213289
0.730603240260712
0.730980642289738
0.726902742380959
0.723320501031195
0.724058833221912
0.729602389016206
0.726002517910413
0.724453045469002
0.728114796674755
0.731017112408084
0.737985675509372
0.741468114585619
0.74580857546815
0.75040364268957
0.758353024706067
0.769042195528639
0.769527874385512
0.783823617385445
0.798371945308507
0.810398090030375
0.821234114968506
0.834487746290355
0.842965828391289
0.852869707414358
0.868512792577674
0.86529070297589
0.878802142859554
0.887532375077904
0.895767463999602
0.899825406875866
0.888137118512342
0.88477680691037
0.883241617941231
0.888199588794728
0.87558446679353
0.872891584245794
0.877040788108708
0.874416510301856
0.863277916260577
0.862273880614512
0.87242429438026
0.871409335927364
0.886372475038328
0.897406789739456
0.903302327139782
0.909315285178797
0.920483055880442
0.936003915991082
0.930914253567595
0.94922549949707
0.956715401689997
0.971032151381255
0.98404714538789
0.991938068023678
1.0106813690301
1.01378039277018
1.02458795271631
1.04039009477882
1.07017771844069
1.0814394997013
1.08334279039831
1.1057141165647
1.12875124343271
1.14226602513362
1.16311934681469
1.19538837784505
1.20136835247627
1.23863294408592
1.25214945821716
1.26623278101861
1.28652278854248
1.29261923934235
1.31642701412855
1.34255517222161
1.36310442814472
1.36125450854186
1.37353236344897
1.38078265146387
1.3757253260191
1.38343298655493
1.37822770616735
1.37860857458925
1.39910900961675
1.37441253843172
1.36059952138908
1.36223731737379
1.36152017035006
1.37878086248264
1.34636562520604
1.36085001334644
1.36368176550945
1.33905261734382
1.33648917565948
1.35185608906656
1.34262627849098
1.3546290223642
1.37727222730329
1.3868084441413
1.38895731615198
1.4021855738374
1.40827144652114
1.40591824497579
1.43356229657574
1.45334249687673
1.48196687110778
1.48158603610558
1.49020550437475
1.50763967402153
1.52274105734781
1.56637289739587
1.51689755012789
1.51443517683955
1.57489380453823
1.63100607376273
1.58100850514729
1.59130340765914
1.57895671082426
1.61200932110207
1.60903105721303
1.56464126755911
1.6970683194746
1.78606479720958
1.7014954510983
1.72417445185956
1.66106606038978
1.68120478045105
1.70724914737463
1.68758246152415
1.63136487258547
1.64996304009082
1.66293587660757
1.69107505520334
1.67031806614577
1.67466225806229
1.67495217103397
1.62940271509668
1.62007696114415
1.60490659170679
1.53194840571519
1.55351426231977
1.54657891025712
1.49029110523518
1.52521135189149
1.46486202858533
1.3482673626203
1.33364971814572
1.30323311888732
1.27274437983597
1.23241353862621
1.21278426692186
1.18515230980984
1.17770619580593
1.1802026610866
1.15832228444329
1.15370096734882
1.1475624637975
1.16677120740893
1.14431354466674
1.11103493445968
1.11250887260034
1.09920725379625
1.09442604353757
1.07954289811883
1.07274245462747
1.04474876576841
1.04211665912166
1.0322118308751
1.0093497665497
0.972941201547908
0.948169928586579
0.930204870039513
0.904286487875162
0.878459366664731
0.859081545134102
0.830208978760631
0.803904395230729
0.791164197594884
0.764027912222121
0.718685472622064
0.70429074190012
0.68293132135018
0.661685990809889
0.636122379126805
0.620971671632969
0.609350596335692
0.592795597563255
0.584464435397858
0.571210382871746
0.556334798012587
0.545516588945531
0.535080097545217
0.530157766302823
0.521879319831769
0.513001412839214
0.511255556153215
0.503340285905096
0.497080631668968
0.499514720121144
0.49578208312187
0.498146049238576
0.499070944350607
0.494165510300107
0.492160568798543
0.492150720262304
0.493099596939348
0.496184696864162
0.498455400266825
0.495965442573701
0.497457335126922
0.504022048769341
0.506255674415146
0.51178864542947
0.510356548973709
0.51291467081881
0.50825697625249
0.503705365946392
0.507282319984387
0.505607205321595
0.503119965756319
0.504095919166222
0.505734470632505
0.508377564968676
0.502689689901105
0.505875457341528
0.501715389545243
0.504437531322572
0.504908973058045
0.50694980560514
0.509625076867946
0.512880957232585
0.515031156070886
0.522549268069552
0.524020122365015
0.522883000640835
0.520580227913397
0.526497639036713
0.530537725630688
0.534875477236737
0.531967394701343
0.541702288715795
0.534562171633612
0.537101134925744
0.543265173282011
0.54146416670186
0.538573361963192
0.543554694664265
0.555660337556811
0.554352440279046
0.550405997011658
0.545053428042785
0.543483969258273
0.563759775372842
0.552468557989238
0.558047466490028
0.559766706208055
0.569067677799624
0.57504385978495
0.58387375457731
0.590193583691267
0.587547678610939
0.602904815453041
0.615773452074231
0.62436184354722
0.642269788464104
0.652715882818496
0.655231708683703
0.658584838013628
0.670664324475679
0.675998507176701
0.677278744090908
0.678000302561149
0.673017621059803
0.658264826050342
0.663559552199304
0.661993632565006
0.650087557414495
0.646709164107489
0.646676972728069
0.643196703120468
0.655187831621936
0.650569572666681
0.649796633797474
0.649995522490382
0.658372389610499
0.668588751994457
0.65578058913292
0.658358733033828
0.661214672756368
0.65608524297057
0.673126371053033
0.658452960384568
0.661674035458844
0.655300832074067
0.655925715427273
0.664692669875635
0.669175140212095
0.666956687311966
0.671886547263599
0.661115288788334
0.674164528203014
0.660208528018992
0.680219928622654
0.660576594129365
0.667930442171063
0.67533281725987
0.677980421576345
0.677473811881601
0.680260472357203
0.673843539508122
0.683142487957555
0.668968054198072
0.677455464440288
0.672569944491984
0.688179132666736
0.687061531669721
0.692865518889905
0.681202514907968
0.681302226114975
0.686405190754414
0.704299437574134
0.704240479184333
0.720463829159794
0.719343596863774
0.711940311881072
0.697140817710496
0.704696909400368
0.710033247008124
0.703650892388983
0.690306874082877
0.710794708932208
0.711429914180013
0.719095653863994
0.704361416598491
0.716952634886811
0.725503092272151
0.723895902517929
0.711530252529496
0.74536650450338
0.742112055311734
0.714298637491696
0.733873480143248
0.746256489777171
0.737889628015716
0.756864532927694
0.737805986727096
0.741856686239673
0.73177037076569
0.744101738534827
0.752067764601952
0.747278786818723
0.74399942986607
0.793973982900853
0.76454080760271
0.777071244693711
0.766728758009305
0.78147256985775
0.789430518450364
0.796380509665435
0.783437055996018
0.821926953810719
0.795544020728685
0.796234748270156
0.819537750203557
0.832224211942956
0.82422193656897
0.823427812669067
0.813905217407607
0.862225997769575
0.838256484671075
0.877194632230221
0.86665264897673
0.880327340194601
0.855112685188215
0.857752257079377
0.906213039516169
0.912386133549997
0.921385257145417
0.981798834597392
0.963792158084206
0.996264828981412
0.951239025684907
1.00080602897235
0.973671856839054
1.02791155513807
1.0507662337252
0.971063293839931
0.997872807041847
0.971204802506222
1.00786815863097
1.12986834815299
0.993451142092854
1.04000688904956
1.03101360101007
1.04088327230699
1.09881027409578
1.13110113707662
1.02002473836715
1.11115263377516
1.0616953186789
1.04813880007898
1.00148846798837
1.08133729432624
1.02857171153606
1.05327155302047
0.989660592767472
1.04148563468217
1.04785318499038
1.05737375700741
1.00759474385073
1.01804293492928
1.08783402733248
1.12454809772917
0.999174729172923
1.08357542916342
1.05844299667801
1.10467957511607
0.967585343045135
1.09297391056994
1.05161291187383
1.15841291624201
1.14420868054243
1.14858111339782
1.04939838595513
1.1716964754071
1.09844905007961
1.08206206713222
1.11019176572039
1.35172312907736
1.11453525261571
1.23933732179589
1.03867005629514
1.04565877482887
1.12773342946854
1.18288323526468
1.02934482908959
1.08737890316983
1.01886858451334
1.06209340568557
1.05617027035392
1.29914914132672
1.09927409835085
1.39580972298699
1.07953640743247
1.1548199226053
1.16792354511592
1.24012503128698
1.22494064652984
1.67962805673777
1.14682488804605
1.08697914371223
1.09681306348769
1.11081686508157
1.12290187002578
1.31385888322736
1.08028716963967
1.18003914687165
1.03921642565703
1.63544577576186
1.14248705349565
1.29635303073558
1.05185088059145
1.48611161969255
1.36386803164623
1.40370646665354
1.20138854170164
2.22655017404801
1.24254645397358
1.63370019940521
1.36522137283999
1.45860449625669
1.48081326794497
1.20967515384189
1.07378352520222
1.69327095926729
1.48699190032846
5
1.23754931938074
1.44948952798018
1.67827294073909
5
1.44549859972256
1.43496574679875
1.07646974714652
1.25185210955895
1.11574032816243
1.18771146117835
1.46500733139296
2.0133530585355
1.04282296302959
1.53842578752173
1.09841522452397
1.46658410411281
0.99628130083268
1.43978788876505
1.15612452077694
1.36435451615854
1.2262029536556
1.66530965266264
1.68736337998958
5
1.38630148470122
1.090975838267
1.16932503250944
5
1.24617715031898
1.71631728552565
0.931921827635725
1.98537035183512
1.71923105405965
1.52847704127996
0.776975904700146
1.7589943154715
1.10316689287346
5
5
1.14585984246915
1.4396564967249
1.71037556038083
1.02541017390197
1.29936490601259
1.1785886973769
5
1.23098364656094
5
1.38629411469413
1.12669323594122
5
1.16822428486354
1.7536996709323
5
