3596
4000.36533379555
650.420452594757
1
2
2
0.0715705380282312
0.0498086338303126
0.0740500985341708
0.0585930179804166
0.0714600512087238
0.0572681718047625
0.0742858685321538
0.0562974976616095
0.0751958642640342
0.0683905866357427
0.0701730543040447
0.0595224569674784
0.0683283742013193
0.0552168724529697
0.0651178450969223
0.0541691986102466
0.0728641694330779
0.0502157052847815
0.0686762060073034
0.0581286320240497
0.072449696373036
0.0520932541311361
0.0730460835788361
0.0492534507087167
0.0691783304500955
0.0579346058512081
0.0707019768335517
0.0523444486851157
0.0601250559002341
0.058452709722202
0.0697633732958755
0.0601281910031478
0.0774263621112911
0.0559851605515993
0.0650608360081945
0.0583090640756694
0.0628384602643314
0.0513209425150586
0.0653902342440311
0.0617240586335226
0.0724503805638886
0.051813359215245
0.0733966112316582
0.0494097824634059
0.0738021782391736
0.0539814369559736
0.0752821498582335
0.0550595253545028
0.0731394319251513
0.0557296034587476
0.0697113815975931
0.0622338848608531
0.0783594157089441
0.070370622087197
0.0599061412320644
0.0693449422687088
0.0753797492998189
0.0562301401062661
0.0740984725579943
0.0482792560261588
0.0735403860862263
0.0732817857349323
0.0653272754273753
0.0585181603664023
0.0655082152904267
0.0617512985528294
0.0717239167497997
0.0572107101129044
0.0623380818491123
0.0595045305584049
0.0618065321441778
0.0709159384493337
0.0843293291100384
0.0568015515185921
0.0760301114543773
0.0611385053997187
0.0623784386948248
0.0488971206440364
0.0528080285776704
0.0609651047137167
0.0771866882030327
0.0545260145305017
0.064994384739893
0.0556479172170565
0.0628629312954767
0.0718846207326093
0.0606954906789309
0.0586141931049421
0.086601026797066
0.0591430316354028
0.0623536470183943
0.0564770905529591
0.0576075481744672
0.0556171367672572
0.0513456222309914
0.0612282428836668
0.0696722683984685
0.0595183880698785
0.061130493559351
0.0586750456748048
0.0736519567666002
0.0421060678846422
0.119102504657728
0.0293563355670431
0.124640756413712
0.0709534100614194
0.0634500840836349
0.0899906388016438
0.065787488955503
0.0685500811105516
0.0637920594967786
0.062684705168556
0.0630275113115975
0.0613442073593755
0.0493666062194128
0.0795529422150625
0.0953886918841083
0.0658667302440168
0.0694203780050396
0.0623335721375674
0.0471190496384525
0.0586765409745546
0.108280356602424
0.0533447942575238
0.0784820473954474
0.0515507036108762
0.0556135885359281
0.0894342853413024
0.100355346387041
0.0533959743775254
0.0641875705393262
0.0509824751602846
0.0679973402001053
0.0342894332198168
0.104868425429999
0.0616619780917541
0.0649870744951443
0.0397732723930187
0.0867601407521895
0.1006428891789
0.073667150809652
0.056893348819802
0.0512234662693581
0.0435235413461581
0.0997220024292782
0.0718589083589103
0.0643278623752848
0.0719471018933414
0.0814581405516333
0.0521311982836596
0.0667713290606171
0.0465834791005631
0.0761659182774448
0.0699337738454586
0.0180628636791532
0.0788422104339239
0.14555616864871
0.0534825095792425
0.148877687562649
0.0468281543750549
0.0858444029647642
0.046460663292346
0.0737053024183877
0.0434545808891221
0.0731123471643646
0.0413551357661743
0.0691873182650345
0.0787557939976654
0.0699494645325267
0.0537904889541214
0.0905111979213046
0.0675741152396178
0.0495964557943861
0.121565030511523
0.0800303546750934
0.0447560175273255
0.103270936464408
0.0685823480748882
0.0595643350969625
0.0532330640942574
0.099480722842187
0.0463642589007134
0.0817101244502825
0.0455896071722725
0.0652956184391903
0.0675304824673136
0.0716650912699802
0.0527852146979399
0.0699467105469548
0.0391670071031981
0.074713663068764
0.0891134824853441
0.10258245333479
0.0503891926220149
0.0793765007713582
0.0163266702299945
0.114640934576622
0.0820296799913385
0.0689711568868492
0.0609703025504265
0.0609074873367006
0.0548886016612007
0.0646650044589472
0.045885398444159
0.0624997460160541
0.0199349395958248
0.119086113278675
0.0728111843953866
0.0695849445221305
0.0501155145884825
0.0775155188954861
0.0355958290610335
0.116006311480586
0.0857265958032707
0.0608911128347358
0.0657942321704294
0.0511888600404822
0.0555735250815305
0.0828002580849471
0.0525901939565104
0.0678279235032906
0.0533172034064262
0.068860931367807
0.0545236394402201
0.0615345396227536
0.0521775942198721
0.0657713070196574
0.0541626890806117
0.0655829856597588
0.0582285574320921
0.0796519055443055
0.0585617800556227
0.0618392280609497
0.0643501133409674
0.058934619355299
0.0617906552995839
0.0942952481136877
0.0584581441745745
0.0738345073890949
0.0540817653856902
0.0692654313647348
0.0516558581853055
0.069342794454807
0.0611160935095356
0.0717650244462031
0.0381321379953511
0.119665933687211
0.0539720582257104
0.0815235174612429
0.0431608525272648
0.0888547971402855
0.0667381168394895
0.0693684165533529
0.0570687931045126
0.0747382528772291
0.0589773495528995
0.063596024910925
0.0934077917155012
0.0720779730830386
0.0520330124057956
0.0825966829878705
0.0711480423458116
0.0644510013794821
0.0603702035872552
0.0397468289267212
0.135765935442566
0.0762795059812652
0.0325625326537502
0.140919504769096
0.0724932963301866
0.0847813942692836
0.0657003789575891
0.0438218750164919
0.168654079593015
0.13484915407024
0.0700943468359243
0.0676750782835549
0.085795176321075
0.0692151500333424
0.0708204152912058
0.0785334496811867
0.0626632298175309
0.104300814367133
0.0710155447448368
0.148676688464019
0.045912015941028
0.10201458319741
0.0945337046044887
0.0778871576237748
0.0618583831464755
0.0704676521382502
0.0492790650371224
0.0860917872002504
0.0798359423884009
0.0856125959045878
0.0780751441281773
0.0609797006237938
0.0975282073852181
0.0854445166985903
0.0622483191966007
0.0714302427506355
0.0825393019406926
0.0667563971600773
0.0701330692719184
0.0704605534912743
0.0824665477734226
0.0707718591139555
0.0554473870003039
0.136182055899929
0.0800433861460237
0.0819951554129474
0.10549443787843
0.0849451946412601
0.0717076495025671
0.0785717886680353
0.0760885434814961
0.072621951067335
0.0684770292686144
0.0615769618309252
0.0933137193585117
0.0877171158571065
0.0705270355622971
0.0789371569896864
0.0667584518135116
0.0778660580825491
0.0723101634928101
0.0832077098311714
0.0772440095229654
0.0859552898622325
0.0629336394088204
0.0959671793819225
0.116421416872617
0.0630543470691467
0.10362159848076
0.124929038253355
0.0830103017296545
0.0987198591241575
0.0778760178626023
0.0911565659004617
0.0726679623615354
0.0972888656578373
0.0769213346379203
0.0902152761457411
0.0928472736008904
0.110162513004228
0.085432286863082
0.101505575780587
0.133021340698423
0.168099664765202
0.106111899291972
0.109801452031766
0.0681935237796298
0.13583216051117
0.131738924855904
0.126865406340895
0.138052075123474
0.105458614608558
0.112595206253607
0.100407540977639
0.111805900371915
0.11599631020405
0.117146081146797
0.115325504681859
0.117646736543406
0.121636659963933
0.120256821305439
0.115298915247068
0.11621207204541
0.166160605783518
0.142427126786466
0.129955640637768
0.133633208614054
0.119896312478003
0.164817481342822
0.16080167266799
0.170856360780712
0.18592762687087
0.1518054647186
0.210202255620439
0.141963203036043
0.163465215226068
0.138508324412864
0.163651454321693
0.148913517840701
0.169706830915051
0.156168015028716
0.169196876807064
0.158690180514412
0.183987786461638
0.158050796694882
0.181443037876779
0.160385151811968
0.208465983743779
0.175768479125601
0.19783146633949
0.176111080245938
0.207845318967216
0.21855926016866
0.250181468079525
0.204512567497246
0.203941714224179
0.198644048334962
0.211067518719481
0.205829020596197
0.207963809368739
0.215484352819759
0.21962093760171
0.247867213017204
0.257391582454037
0.236516077048082
0.258271628724948
0.202167056641969
0.252370629300004
0.234061140872781
0.246938316990078
0.269752607480293
0.269939338542128
0.233260013919472
0.286279373090693
0.272719207550709
0.262264852095576
0.281775499032556
0.260194011863023
0.259964754245648
0.270610056584714
0.269468459655227
0.283252827739365
0.282029503346704
0.30040000003696
0.277075710851222
0.294891884324765
0.292546470598647
0.29426850777481
0.30833048311282
0.318639745146559
0.293208443994831
0.33613776684904
0.294161963404687
0.336152580530178
0.298520953443712
0.340453245018483
0.333683098372442
0.354177073366979
0.372451646172971
0.33150883424724
0.333954391582827
0.351497690973483
0.329763330568754
0.348793886761813
0.348589658728172
0.363181025765773
0.347537018405401
0.369733409789486
0.366031557307723
0.373516068842757
0.36947532473421
0.387201405329544
0.371375390965067
0.387307634989757
0.373539785053263
0.405561093662997
0.367284271363972
0.41945252735304
0.4193973661439
0.446463368961997
0.442385253094041
0.416947503915237
0.412020030634066
0.444934444705128
0.435189846307642
0.437321868239425
0.438362639960919
0.440786015460182
0.433195358752693
0.463397958525817
0.441978735498478
0.465101071444455
0.454035082380413
0.473276850138513
0.468393878972397
0.506375980762333
0.478594729868711
0.485473591347181
0.469047811949209
0.510267780167875
0.51429739066694
0.51274765103108
0.504938351414638
0.528001075651385
0.511661374384
0.535261542071737
0.508759337678905
0.53128041589912
0.515534928205109
0.540201450021882
0.514087907747754
0.543911076254095
0.535904387827986
0.570262754842177
0.534316745660764
0.547602448698249
0.565031787754831
0.574156481699869
0.534682592360071
0.572335830757695
0.565035685457022
0.590061247098534
0.577290936583641
0.583648915638298
0.586718612966387
0.614717442695303
0.590618984371659
0.61556284187558
0.593694098626489
0.621566270781911
0.60556879816301
0.643641386135126
0.613233054321919
0.637219081586853
0.623895926541109
0.643033868906506
0.631907362167284
0.659434856009651
0.627715318290476
0.68261397151115
0.628514071900137
0.650722953582125
0.663180443705312
0.707621160160593
0.662016669630827
0.69224098149402
0.673369743756778
0.673266099679002
0.670217355939401
0.716352146982917
0.692828456395814
0.744996976589933
0.698081433215651
0.720553750267125
0.71878622899158
0.760305863378126
0.708881095215314
0.741040711473707
0.713984379612842
0.768440641371046
0.713159660512159
0.761437797054735
0.740667654259877
0.759885508139453
0.738672998166543
0.774912587230292
0.781402112408164
0.794958109803562
0.767518621686099
0.756939587122062
0.770852587674209
0.820791781425926
0.772222493932506
0.802301037761522
0.790843742892153
0.81264060764762
0.772570027903827
0.826107578674126
0.808603060583265
0.83342096835279
0.809866545144326
0.842090871784811
0.79879092276553
0.827143709533318
0.821054523896169
0.8518138875457
0.830983951530785
0.883271941513328
0.872712031239025
0.875919631785829
0.833430666960969
0.862812312843653
0.854919231108751
0.904325109414518
0.834781494128496
0.909046802486135
0.884111520496841
0.916009148721489
0.88003227440127
0.899815319997811
0.862460306767579
0.906581468946644
0.943694794189439
0.912400613985737
0.881485249020352
0.939963118221009
0.895118558665841
0.936276275714938
0.932166724688509
0.942576007262539
0.903632868737432
0.930565578276769
0.919303598258701
0.962623840649793
0.906006293944725
0.950873093738776
0.955015333548491
0.932316186493618
0.900144556886001
0.976685626589892
0.938799369949526
0.973705807707074
0.990362909794153
1.10567038814645
0.971859308816825
0.988677877809837
0.935373806455742
0.984787210043007
0.994741269181492
1.02882444460697
1.01810524627285
1.03049305999384
1.00572498519455
1.09002721928909
1.00591651520558
1.05617599648731
1.00663245761022
1.0025827567554
1.00083427481194
1.04487788726024
1.00517262862849
1.02791092100841
1.06316841917484
1.06502487037993
1.00746326317231
1.12734821710575
1.04320298863299
1.08290333423621
1.03517439681485
1.05625667165677
1.0624950283514
1.09251415184897
1.05040224147657
1.09145691268635
1.07052955376839
1.05477069560624
1.00849028968809
1.09938538570806
1.06152846846807
1.06456983318109
1.08674615894611
1.11623757792589
1.12993043702409
1.13765429261895
1.05094209764386
1.11633061157801
1.05216104326869
1.12191430124895
1.13044435524572
1.14805551136579
1.13577098230623
1.15843445432112
1.12546540774797
1.20465461786281
1.12564856294789
1.19286960399419
1.176791993828
1.15296524352571
1.12801585594688
1.22333155591708
1.19510087928396
1.17691285940934
1.1213253892733
1.12542775793699
1.08831442155532
1.17329104292357
1.17738974431658
1.19140056448349
1.17446185646952
1.2077311085442
1.13041845145818
1.19847690617148
1.14520208792659
1.23001796439976
1.20242439380499
1.18742628334494
1.15000236766396
1.20507416022122
1.14866033930228
1.20070855198133
1.15526313378413
1.19910926916717
1.14778490643612
1.19958165275127
1.19040712250569
1.16671685171935
1.18123150906969
1.18862415920713
1.19176543407957
1.19812595727288
1.15578586642648
1.22485280891212
1.21430865504466
1.24025031632129
1.18167019667218
1.19456624368061
1.22409494383022
1.18474412614304
1.18037061382302
1.24856287469274
1.24298489673395
1.19737870976044
1.17156373782696
1.1942550276611
1.16155329104298
1.21802782353139
1.17747416468511
1.19617943844686
1.21076140333936
1.22034722444505
1.20843104443733
1.21964383020167
1.20640274926573
1.24651022576663
1.1585650285469
1.20735473842913
1.2037363561056
1.2375524401994
1.24920281424271
1.22098466413569
1.18858047183596
1.25945997401058
1.21922045179769
1.20174868985199
1.21459814307089
1.27084467077124
1.22034063374222
1.18075530840692
1.19171337144288
1.22719233475793
1.2104782680492
1.23330348809929
1.1967440268467
1.25407464862862
1.20458369712821
1.23140382086284
1.20006834657774
1.14885146487409
1.24318931404524
1.23349424427524
1.16912289503407
1.18838186987047
1.16282438694186
1.27808318438359
1.19921627085311
1.25696210031788
1.29570883975567
1.27523553300893
1.17879322130935
1.16738117185425
1.22662734419346
1.20172808686185
1.17034498508562
1.18412230337117
1.18420327519328
1.24047530616934
1.18917494166024
1.19008205064645
1.22119807312923
1.23835806509941
1.26383598645959
1.28585950133321
1.15725569782603
1.1617600023101
1.16413914259771
1.22108245451421
1.21642684288077
1.22895016931104
1.18341392761541
1.17448538300521
1.21738658677713
1.2018886440255
1.18279636749013
1.16357095020939
1.14092359638896
1.14354550469747
1.13408662342459
1.18660364316805
1.13834571909928
1.22484721043453
1.21857555037941
1.15870072035112
1.17724090565285
1.21444557804778
1.15305834921417
1.26113159532728
1.20403160724833
1.15532528590166
1.1778118328926
1.199222892061
1.17315523164611
1.19939965199982
1.20606683474521
1.17136922515802
1.16059978912488
1.18248220623585
1.17999257342532
1.15767929380539
1.15141283935158
1.18104211329469
1.1497701602002
1.12054028404497
1.11771864347804
1.17427474792693
1.1463238140917
1.16872900579301
1.15374050840479
1.14393541729713
1.16092681702924
1.1557605630608
1.1527004683016
1.18717950715271
1.13991787657647
1.1761503530928
1.15665192120177
1.0998608243229
1.10402531368347
1.14475197657538
1.13150096833507
1.08662549209415
1.1011645398638
1.12788683674603
1.06824734898357
1.08845023389601
1.10866670655152
1.09412578223893
1.11244285917862
1.10127935846148
1.11513463441173
1.08705312582066
1.08012972553355
1.13895459770315
1.11505605438286
1.12524056470812
1.06799133805879
1.06030581509804
1.07374139036197
1.08200666969647
1.0816540710188
1.07742438199581
1.05790304066168
1.05359643740368
1.06523400680015
1.06398508940291
1.06184748291136
1.05746929968468
1.03956557162871
1.05026047881594
1.03302430115678
1.05180838868288
1.05049726608812
1.03108378424368
1.02371293199674
1.02410139140285
1.00577160426127
1.01717712884092
0.984649197312073
1.0046272254392
1.01950883038639
1.01592994551674
0.996408920748529
0.972920183990123
0.974073665062882
1.01875424413083
0.996000713942454
0.998234858262331
0.990122325643814
0.977228634848138
0.977952515399708
0.959218931103807
0.983082232781617
0.966752686463804
0.952620241168241
0.970271090798511
0.944155142397035
0.910322027965579
0.925432396830164
0.956676901159192
0.943836834508249
0.949165896462115
0.942736727871068
0.929136706987079
0.939310229639966
0.928186601029841
0.913678013418257
0.897922937082939
0.897505719357836
0.917798484016178
0.910083748314541
0.91732155911287
0.904016233976444
0.872561836039834
0.877538380706799
0.887699615627996
0.871989398440452
0.87590278443482
0.855846636300094
0.846975961935486
0.861869923005684
0.842070479406851
0.837288919102278
0.849512133271656
0.835882095607735
0.832954034264234
0.81903945531119
0.824807224490076
0.829013543404672
0.826875877724797
0.811620123370568
0.812411238893901
0.801119824573959
0.792913909053833
0.793172776428402
0.787975495166059
0.783975840722993
0.798691415921493
0.784016713617083
0.763752044658767
0.77379624444276
0.771298664910415
0.766875730571075
0.769577293000584
0.766171528236114
0.753215809330413
0.751985683981054
0.754430024516873
0.747990049257176
0.734723281072316
0.728502141435792
0.741150288349633
0.735379364567781
0.721813569305596
0.745743021897212
0.732252718722477
0.703118509630216
0.721886578709984
0.719237335702647
0.697792787887245
0.694902979066412
0.690280827090628
0.692824997378023
0.700502477100503
0.694558144542289
0.686886602343789
0.678746515479702
0.680276136896038
0.672769523795323
0.667642754667432
0.672649081646274
0.67386436440587
0.652593143001539
0.64205051951634
0.655428817977283
0.653074765383934
0.650587811972523
0.657701106778606
0.655905446521232
0.640263585379092
0.635030834710581
0.632692874105254
0.624277925265447
0.632685098551069
0.631445579228377
0.618004543436424
0.619770059545087
0.622025894505708
0.617578474552929
0.608554516294054
0.600023823945147
0.607120457335858
0.594871477427344
0.586642137407938
0.598126915333791
0.589271267974874
0.587161767873641
0.580568532806264
0.573711353806134
0.573801610084824
0.571316928682106
0.569947575950502
0.56236917557667
0.569160612948049
0.569480860720578
0.552025508184777
0.549849455468394
0.547676850862323
0.556631677550978
0.551406791660658
0.54471579738868
0.541872358829669
0.539793729949856
0.541338721594612
0.527935905169323
0.524080723207029
0.535267024379711
0.530391330383281
0.525990688241848
0.523395248359106
0.518570726059651
0.523307665688158
0.525331510556739
0.51209214394078
0.4959494584961
0.502734065680514
0.500808542256666
0.493863882756803
0.492622170141264
0.494229251024097
0.493996407780368
0.489569673969748
0.48122273495372
0.478014814562046
0.479413358470484
0.474059421191831
0.485035973650607
0.473235149685892
0.467059133182532
0.469936437297806
0.466650134863857
0.465181841298374
0.460819926716218
0.457704705621191
0.45439443083144
0.448482093413576
0.451130766894056
0.451451884360059
0.442943404155865
0.436287522341912
0.437038923681843
0.432421279254136
0.434463870625341
0.434371584571595
0.430057317780882
0.426787717858835
0.432866142815557
0.431053203972271
0.426841168178122
0.421103298995672
0.423972564413684
0.422065540520216
0.411614981066657
0.409295631175236
0.410076765396432
0.409500183118589
0.407938552411258
0.404874636317107
0.402700439248787
0.393937392935793
0.39004192485406
0.39136857719114
0.399529191804382
0.393712468200024
0.389270559411855
0.381928194558902
0.386632040693967
0.391039631154248
0.387163816562669
0.379133553748876
0.379558150408772
0.373336589664
0.383279763681484
0.383987365857363
0.374818700520533
0.37902136781096
0.376766425981414
0.365737915932672
0.372186462568692
0.373369632451032
0.369673125496611
0.37135750381835
0.367409927497814
0.365072450001202
0.369057869290819
0.366388962298467
0.363041793005746
0.363234599262735
0.36180467370816
0.362336629390663
0.369794845986188
0.366426793011865
0.364365502074744
0.365544979311027
0.363722693111971
0.357848606849507
0.36696740333576
0.364614123844445
0.363792989958882
0.372241513840432
0.363376406844864
0.361160836835587
0.371327909269265
0.368315077093242
0.367969514327058
0.366622166221232
0.371326486735158
0.376412866087052
0.369392095683829
0.368633025566697
0.373540032901928
0.372810049199275
0.373195056949875
0.373690948545373
0.380685086161727
0.375144479824234
0.373727442281814
0.379833249647229
0.380783023412167
0.379217237347567
0.376636693623357
0.379232875332813
0.389346986744171
0.386918445786084
0.390148359500392
0.382916118985814
0.390661420717717
0.396758122019431
0.394267697582227
0.388672960186196
0.394698284175381
0.402119331017607
0.402116381482194
0.402182152515262
0.408231004413845
0.399913008677189
0.403751487750175
0.410772369283474
0.41565301531904
0.412533278168427
0.414378578086416
0.419064052695933
0.420143925628448
0.426198834926447
0.425020109147073
0.435321479663645
0.441621933494819
0.427916050050021
0.435097681599375
0.436086340846078
0.436370892715706
0.440144269298906
0.440364188918744
0.439334271958263
0.44563643766058
0.441703183607867
0.44130549359862
0.440411053078036
0.441172274466068
0.440224960180752
0.439650150620529
0.439877260471462
0.439829715776298
0.431847780971563
0.434060687922933
0.439730422834049
0.437451082260158
0.430361919563695
0.436743989188574
0.430243226722438
0.429562263957165
0.422987845825734
0.429827373907152
0.425709343194554
0.426375020282108
0.423281979213101
0.428390369287994
0.431533124346547
0.427502923216758
0.417908949394248
0.423200421292766
0.422960708666187
0.424528010283474
0.42016217771944
0.419816315167818
0.419135393612179
0.42669783477165
0.425518169694598
0.427206651134606
0.426587375103716
0.420463884081334
0.420452394727278
0.425233013832454
0.42222996985972
0.426697091151581
0.42939485706706
0.430413669367769
0.421164753384501
0.425411638899328
0.422014679573392
0.422811398265143
0.420429325883185
0.425992232973419
0.421184821999787
0.420077099276627
0.419286679626863
0.41579650360865
0.412021381511764
0.410353832413315
0.416798501946973
0.417861378365375
0.414909862807179
0.417174592346066
0.40777624904972
0.406074847086344
0.40800795999616
0.408625270303434
0.398149033267571
0.40057413969391
0.401469108334298
0.397718982293232
0.394907931310339
0.393874804934708
0.388498704796911
0.387414653781687
0.381554250257075
0.386290773642231
0.380397079930853
0.375766230623022
0.366243053198603
0.367931529996173
0.373949271099245
0.372528650003774
0.364809685187689
0.357328568572222
0.355580521870287
0.357956788271105
0.348843258006655
0.352388401125514
0.345494232238301
0.344427286474716
0.344908755757993
0.341497262037566
0.336380087694813
0.338742885667998
0.326841290255935
0.329946785210912
0.329965398587676
0.322627645997633
0.31974877315488
0.323844429239555
0.320841730586528
0.317096641524613
0.317787556116669
0.322418071634613
0.313857495765997
0.31275005191615
0.308684514127079
0.308645254153055
0.30762565923097
0.305726427057623
0.300823157381595
0.30194461662677
0.299556982169671
0.301672378468414
0.301216188746571
0.301646496424289
0.296220521848868
0.293257550083369
0.290125319851611
0.291018289231026
0.288235430236376
0.289475833537451
0.283342897570554
0.286828983030482
0.283194047928594
0.281189033469257
0.274362857305532
0.275521373450571
0.27912101541725
0.277992046257236
0.277819010639357
0.277520281033915
0.275260202134537
0.276428934721457
0.267668577448851
0.267302585274732
0.269017935976267
0.266481998117965
0.258932251331873
0.263972977808962
0.260446835966619
0.2641992722435
0.265623989713966
0.268332347943609
0.259758566513134
0.258849908716792
0.255865214534857
0.254939123715628
0.254006689718231
0.254718499301142
0.24754244529231
0.249934697356737
0.250294920084302
0.248174925743375
0.246474116645632
0.249699526023979
0.247430354417663
0.245980033349243
0.246551850604174
0.246277360539912
0.239949631739918
0.243404818730833
0.242432171375386
0.243174682633347
0.237375889691274
0.237835429047581
0.237112686958515
0.244338148775377
0.241541402554673
0.240041758257623
0.236988246689741
0.23887853723659
0.233701272758587
0.233233543011043
0.230314535496177
0.232319902189676
0.234828578525929
0.23517363098716
0.231279799123474
0.229496150677927
0.22465099171859
0.228731068785817
0.22707652646843
0.225914938570529
0.22486881988865
0.231007516671497
0.225270980429188
0.224412667987696
0.222639721787108
0.224349401941896
0.221368001085036
0.228410210602081
0.220964414501161
0.220763263540209
0.214756947047088
0.219942123097869
0.218996229998182
0.21624993288107
0.216739159617492
0.215722660344773
0.214180683721155
0.215403444354532
0.212029607214383
0.214521800388719
0.214072711371073
0.21471261264183
0.211844692066282
0.210771854934134
0.210832451409359
0.21198817858711
0.208265557847405
0.212291369754106
0.208249097852863
0.212641545290942
0.207522416704256
0.210631546266363
0.210145705689724
0.209363473462759
0.208123130563859
0.209133153182074
0.204917175335611
0.206443690425861
0.207930468322835
0.208066002032329
0.203107969111939
0.204257246713574
0.200901704828241
0.204152064917714
0.204899598858578
0.205595097969958
0.201314695064387
0.20303723118784
0.199046365935296
0.202565717383114
0.199259976633356
0.196474839098201
0.199987670762767
0.206095923593092
0.19941634588023
0.200639352513478
0.195258818530056
0.196328299983676
0.193060042711172
0.193796052866628
0.19392271597487
0.198439003556839
0.194474149417814
0.195659766610922
0.193702245520403
0.196241878698806
0.192618498152058
0.189711985520103
0.190860801065182
0.191966534596469
0.190917585205556
0.19257791052673
0.185142082695496
0.190095376232889
0.187189163407476
0.186851652855449
0.187335731435786
0.182038347159039
0.182877682397318
0.186236763266998
0.179914483217642
0.186172991597385
0.181830543343193
0.181827216339134
0.18084316564294
0.181783902674279
0.177156066243832
0.179565590985304
0.176177239224875
0.178979833873535
0.173943257545459
0.173306263675873
0.177747700385862
0.181287692567983
0.17142031977666
0.174496032377565
0.175294464619386
0.174220238553671
0.170061913085207
0.172387091021045
0.166746158985536
0.170743180065666
0.167995592589734
0.168979202961079
0.168824643381889
0.169389523932374
0.163760752145681
0.167088769948585
0.163363396507269
0.168594755122573
0.164837462785012
0.166268203242521
0.163944675724949
0.163512774831265
0.161489694503442
0.163755377309812
0.157126966402024
0.160962090815897
0.158950219689527
0.160103232287217
0.15763736016231
0.16088048410874
0.15248289798981
0.154976787464589
0.151665035725703
0.152048198081947
0.152030346184562
0.156595416074718
0.149820257403779
0.153122189958411
0.151067537336922
0.150039956651745
0.147362382262219
0.150309124686695
0.144896505467976
0.148297835059994
0.143943796253848
0.148035673501231
0.142057308676572
0.143953501262484
0.141750161610809
0.142797005278343
0.140023755415772
0.141786946288751
0.135667045483419
0.14201241469419
0.137253320156946
0.139883518531955
0.134304501645564
0.135302891868608
0.134764341378232
0.139195561616754
0.13337850309026
0.132975046036043
0.13397487770742
0.135839391984467
0.133053489732744
0.132161055002578
0.12949822240119
0.133989593961224
0.130229194366372
0.13440928757893
0.129673617464786
0.134357496967763
0.13238610667123
0.132416584098104
0.128023812656843
0.131176584301662
0.125447671663241
0.1290212317453
0.127645670461522
0.128422739185243
0.125800701033459
0.129065589505971
0.124469814651363
0.127844593276281
0.123047297647594
0.124274063124587
0.126156507443275
0.125721564454506
0.125118152061004
0.124071756139247
0.126195560473308
0.125071135401907
0.123847549245679
0.126711297097829
0.121335161527891
0.122842157443339
0.119251575962788
0.124132629446591
0.120651499631588
0.123378264954798
0.121109702508698
0.118876444025282
0.11668389787265
0.119149407037046
0.115986576290487
0.117187216532354
0.114846583182696
0.116967978971733
0.116490705663443
0.116787150298325
0.113753044587779
0.116095368739451
0.114092111713626
0.118692882004166
0.11376198126931
0.117364348096554
0.117054993508711
0.115272160458563
0.113024776305074
0.115198767032019
0.110899874132094
0.116835263509367
0.109314450703541
0.113457240477374
0.113572574720959
0.113881324844671
0.113904109145133
0.116252095243349
0.110065728413372
0.113690467774141
0.112453172324126
0.112241679568962
0.109866249039573
0.113576759971413
0.112360440318092
0.110849239899814
0.107791694819136
0.113808678021946
0.110863091738075
0.112978361705812
0.109495307151854
0.110968130921773
0.110661425607474
0.112495163949442
0.10858279132857
0.114260219700731
0.109914681672068
0.112084666284529
0.106884220534255
0.11051327688325
0.107724121573214
0.109575071635551
0.108049372609466
0.108450857456856
0.108586352941109
0.108901809630055
0.104067874853743
0.107368327205431
0.103490858365131
0.107909318007273
0.105518315102454
0.106872530954721
0.106562265736062
0.104673941463197
0.101760458872824
0.102723582679248
0.100593680577921
0.104087396039501
0.100510576502642
0.104499374058278
0.100611865909352
0.101121824224756
0.100287167247544
0.104053537620142
0.103173086675395
0.104327866776446
0.102582925925395
0.102776803194445
0.100203785356483
0.100597043000702
0.0976894114490763
0.100820144655161
0.0976438727697806
0.103061519267049
0.100286984051548
0.102317527344385
0.0963487503175614
0.100204959664101
0.0979655030011971
0.101623717818984
0.0970285780482931
0.10156561918099
0.101559741712318
0.0981612309294245
0.0976325895442631
0.100117892098197
0.0964798484110281
0.0986052276426566
0.0967090760012754
0.0982376741753207
0.0972327515052014
0.0992043223354227
0.0961177634095489
0.0973997489290543
0.0926065436435271
0.0983733058980013
0.0963504972842718
0.0968873890392006
0.0966401191859609
0.0981398282561759
0.0924874616798828
0.0947241118750413
0.0928539241530035
0.0966595194384812
0.0937119411333104
0.0968407106075451
0.0960108674480352
0.0933099983804636
0.0911529786871912
0.0950349004382161
0.0888504965933508
0.0914110574726632
0.0877146281056209
0.0929681468217273
0.0889293043196868
0.0906375923006157
0.0888085766317915
0.0916236631589822
0.0869539237757481
0.091422214846655
0.0872161244649115
0.0883046925580401
0.0864405372178973
0.0871387969074783
0.0855921981740619
0.0874718792140469
0.0853943281241794
0.0886761365803522
0.0841994649042182
0.087940743819205
0.0857398556492214
0.0872077655306538
0.0848922371743131
0.0879528955947709
0.0829048859009746
0.0873006836805419
0.0825894017401238
0.0887807096326939
0.0823857217075775
0.0841794429806223
0.0849518479203586
0.0858319641514529
0.0810405707952482
0.0878538418613026
0.0845010513649141
0.0839295546087915
0.0807610033444646
0.0842706907224836
0.081742853457219
0.0839842663062023
0.0820044056345656
0.0829836619261615
0.0811013526196902
0.085569792229071
0.0792343740053825
0.0813211229097619
0.0814058375169915
0.0852781487127542
0.0803226499123346
0.080285687405973
0.0768197913738918
0.0812977994476822
0.0787503796314502
0.0815681281196085
0.0771690122627913
0.082318654488451
0.076956568228242
0.0804886251767863
0.0785886434143005
0.0778421880733221
0.0763441747854943
0.079737266932415
0.0749813272592435
0.081882268600738
0.0753436871759937
0.0789979920720238
0.0743125295198713
0.0754070904977966
0.0741381972629999
0.079220482254696
0.0739982989456154
0.0768145475493898
0.075126609255914
0.0765017914338074
0.0751851799907142
0.0770727289377564
0.0737481574863321
0.0740752802316904
0.0716962724991482
0.0761907861218941
0.0727057591061289
0.0749890788423776
0.0714983864322728
0.0754285952734074
0.0743910356810568
0.0762836659295421
0.0719428456278879
0.0747203319819473
0.0737492964483967
0.0756990056752778
0.071982736169271
0.0766828808949316
0.0744374198643892
0.0773152436307284
0.0738836802542042
0.0757095860331992
0.0739199155795968
0.0775896750883832
0.0730699162589837
0.078292657058404
0.076133199490995
0.0763536555828093
0.0756204002296837
0.0757521670010098
0.0716534297675206
0.0784946853547445
0.0706950209797676
0.0762710148745871
0.0646394921948521
0.0699356200768317
0.0684018004358638
0.0718060915850218
0.0680246141729532
0.0766925408981139
0.0646028441392611
0.0661483590229974
0.0641942429707327
0.0758166907075055
0.0637274558880104
0.066672649591638
0.0650792269092379
0.0678786502509618
0.0653502593263051
0.0711991258824822
0.0601272427889225
0.075906751512696
0.0652795554439032
0.0724727508522023
0.0696128742732066
0.0701223020439101
0.0733704974903641
0.0727586317390557
0.062901841311105
0.071293211568955
0.0631591234263849
0.071124741334904
0.0613537303710959
0.0762343722130349
0.06166735326767
0.0717329599806729
0.0564342909485142
0.0719561608314172
0.0558845540992045
0.0749343441860708
0.0547832760039078
0.0812190626427724
0.053592507952723
0.0841667284224429
0.051247982488743
0.0851873963580046
0.0509792785605146
0.0896901920014879
0.0486017091765076
0.0953273901365993
0.043821015242344
0.0966365478012108
0.0421662531352991
0.107527663183127
0.0404251441965677
0.106308744302743
0.0434764025829607
0.10901703560167
0.0438129081955646
0.0988188831348989
0.054408126706214
0.0924400168787697
0.062069174242629
0.0833531677118802
0.0674224750347909
0.0742066701570541
0.0793339511686429
0.0676587871919983
0.0830709179686256
0.0680796131739
0.0852192817307013
0.0674674159467913
0.0782643124906095
0.0764111375881532
0.0710407180320041
0.0764560354817431
0.0730742323954644
0.0779881365004568
0.0686636884816228
0.0775457557789539
0.0723557671616381
0.072083127571993
0.07145389946118
0.0728702335866622
0.0720296483165317
0.0719816906928197
0.0707558216554494
0.0742694937878289
0.0733642836817268
0.0772918207680287
0.0708124231041124
0.0735140042075099
0.0697812915154831
0.0731653864958075
0.0722928916393058
0.0745100698353955
0.072208061895419
0.0719008460043341
0.068722900386176
0.0751311510937082
0.0710370929404606
0.0750696295233255
0.0713927529661689
0.0751870218498547
0.071341011665297
0.0769967933982068
0.071255151917563
0.0735031833730186
0.0752805521376371
0.0720466243827094
0.0721553159710377
0.0764057770974958
0.0731665225294905
0.075680608602919
0.0764580267786553
0.0778517683690735
0.072782553496727
0.075016776371943
0.0748879756515391
0.076370192897853
0.0716926239192324
0.0772389918695382
0.0750364159083167
0.0788769965260308
0.0755871990281946
0.0770422644862869
0.0754454233043244
0.0745201504166508
0.0766443975585292
0.0763449044870774
0.0760324802672715
0.0740563312333225
0.0750968811880669
0.0786717413457847
0.0764349843974346
0.0761420513600981
0.0758358099128529
0.0763582933378084
0.0753287628605792
0.0764944304416703
0.0748094496511813
0.077421958676208
0.0741487659732423
0.0777500076882708
0.0765052780427541
0.0777578986813737
0.0733517315636319
0.0760905097087074
0.0771794189500596
0.0782527164639734
0.0758032964968549
0.0787022083537574
0.0743228148055798
0.0782881293059156
0.0766765483922797
0.078208998830084
0.0741424756198795
0.0802239312081005
0.0778295037842553
0.0778075064595448
0.0761611125723999
0.0792216247043031
0.0793909113668844
0.076632178452818
0.0784787154452207
0.0785469861660293
0.0776099123296572
0.080131067624143
0.0774119928750838
0.0809929587007268
0.0818446666380951
0.0789869947652104
0.0772737425601884
0.0804410340638554
0.0788061646778595
0.0815454340669135
0.0785905173351955
0.0827538348083979
0.081703503240525
0.0828019623420826
0.0783567499612747
0.0805281734778533
0.0800372294815266
0.08263339416882
0.0819458003390207
0.0834493631825737
0.0815631247379124
0.0833495032981276
0.081587844265523
0.0840844651391893
0.081329418367311
0.0824809010714553
0.0817088685496107
0.0856025173389631
0.0820192384134383
0.0822282118391645
0.0819439920092671
0.0853315616626252
0.083791403923936
0.085201790685108
0.0802382973634821
0.0812925647944599
0.0805315211438013
0.0836984571422288
0.0817940131022903
0.0843015526467538
0.0822669745888372
0.0848468599249305
0.0828425901084637
0.0863344988762345
0.0832584917466044
0.0844397454759037
0.0831364354657257
0.0862157907682461
0.0847048051728966
0.086289946529542
0.0830999244622199
0.086015688654558
0.0835244993524076
0.0849549489792511
0.0850228383741003
0.086891269561351
0.0841964715241246
0.0889071268624057
0.0861570586412254
0.08744628880214
0.0850484084567725
0.0868496408012137
0.0873329354343593
0.0882891728693582
0.0857106478536539
0.086645456277755
0.0864088914234679
0.0890312758620697
0.0862500657927721
0.0869376552279027
0.086883856341667
0.0876038451145691
0.0858978813212027
0.0874089826937475
0.0867306437791367
0.0888259172454197
0.086068257293508
0.0878321944390316
0.086939415828529
0.0910541474986901
0.085746106294523
0.088976574956936
0.0874270592699189
0.0890170973623907
0.0870396293090335
0.0893417639144005
0.086588799527959
0.0887196874019665
0.0863069510214453
0.0872344311507887
0.0835061587505005
0.0872287738736454
0.0858928708790686
0.0856760807391191
0.0864485183568621
0.0875817890275461
0.0847508189537814
0.0870246499881241
0.0853363432208659
0.0882308781389209
0.0843080905990082
0.0863290726167226
0.0840496776187042
0.0867401523228805
0.0828563837985859
0.0849761562452737
0.0828655641951041
0.0860008364406413
0.0864679453518766
0.0857984940315618
0.0836212449185186
0.0853579418973274
0.0832861917001508
0.0858710312543852
0.0824537214338194
0.0876746673185464
0.0839456666193479
0.0873525964619064
0.0820720969257685
0.0850573125597399
0.0827541238737906
0.085470306129921
0.0815963112405537
0.0833116004014577
0.0849634652305039
0.0839213433621297
0.0826520563253899
0.0862637859480875
0.0814779389019118
0.0841613115138231
0.0826467172413978
0.0873914608012684
0.0819315871308149
0.0856931053384852
0.0824785669562402
0.0851205710382897
0.0835095661599411
0.0825472279603152
0.0805328231848112
0.0845005904869317
0.0818894643399785
0.0831477462070268
0.0827790063700818
0.0844807577118457
0.0854292201680225
0.0842643454388183
0.0795924826947828
0.0846923726307529
0.0806382376207144
0.0818780022127058
0.0793869456640692
0.0842839006646714
0.0809191696850386
0.0813853033124013
0.0814365625425647
0.0847680829376196
0.0808527297818175
0.0814221792732783
0.0811030307414325
0.0821245243093017
0.077475422559779
0.081797844904332
0.0798259677643292
0.0806613021122928
0.0787136985079292
0.0795267137291421
0.0808376248932485
0.0851422842422313
0.0772092500321435
0.0805574924554002
0.0760273561986242
0.0820171654570621
0.077967458582606
0.0811490283936441
0.0769020417640662
0.0801951752903557
0.0780823303823654
0.07962965123584
0.077894214109299
0.080187711056599
0.0757398765918612
0.0798197343644339
0.0772369763012368
0.0783476807562553
0.0780604577180515
0.079334552235627
0.0768146078116457
0.0801654358106695
0.0757535038132346
0.0776052535677699
0.0753254896538057
0.07790926290929
0.0789944643285667
0.0794944139445291
0.0764302311261566
0.0756017373750795
0.0734859374539562
0.0771370268459129
0.0742385545059812
0.0749697159360857
0.0752216169455549
0.0760733346239895
0.0751041799891928
0.0773682886287501
0.072090923660107
0.0749419405835161
0.0719696718038751
0.0762428432099941
0.0695925817215465
0.072703167960011
0.0714228353736701
0.0741738056030794
0.0719225792689352
0.0718666605329449
0.0700608557607658
0.0723939799320483
0.0718365917062842
0.0706599145097179
0.0732367067789847
0.0711154693152139
0.0711067408274332
0.0711865887036416
0.0707454619946857
0.0698252741542484
0.0697594698968883
0.0665146305238794
0.0671858439086068
0.0697740948924837
0.066289503219574
0.0682112540921904
0.0685029262814668
0.0672858079528239
0.0643847514431938
0.0675290994116232
0.0657246778492167
0.0672286998965639
0.066316039964622
0.0655781429679491
0.0634171776495713
0.0663506183022324
0.0653085205044286
0.0647096088830209
0.064115973201883
0.0645833390207367
0.0664602457717948
0.0753520958030651
0.0668906245578343
0.0663338623558678
0.0651389101375511
0.0664814878566461
0.062133618549205
0.0676662424037642
0.0628137876475263
0.0662605880467403
0.0628436950244937
0.0666028750584675
0.0629550316171099
0.0647791251770211
0.0612768684178422
0.0647561498238574
0.0609766048620101
0.0624483377236617
0.0615344356934511
0.0646011574153091
0.0601283824856696
0.0623957783968198
0.0607910126569059
0.063685980405488
0.0627580718738768
0.0632771928177808
0.0621597666157709
0.0702485573037866
0.0650488457619893
0.0672578900061886
0.0599584939059728
0.0627671886735512
0.0598035278856261
0.0637511625352843
0.0601283342356373
0.0613552570596767
0.0596999277264801
0.0605417400881228
0.0600607275812463
0.0610320955202841
0.0594696418016913
0.0606724698186431
0.0559659545063643
0.0608212252222398
0.0559365996796024
0.060734935850917
0.0548208885320879
0.0587743308385865
0.0535435420081774
0.0597719590928958
0.0570299093901771
0.0636913662753769
0.0530723686462895
0.0638001300139382
0.0748480530009487
0.0602987625890457
0.060345387551232
0.055516339664572
0.0569286392522443
0.0577810629613399
0.0572440212713785
0.0565401315346681
0.055532212891307
0.0568189998746673
0.05768187816758
0.05687707099209
0.0566988313828377
0.054677098492331
0.0554135117160123
0.0568587414227857
0.0544407250797811
0.0570454376670326
0.0592300156992665
0.0541488402234336
0.0587797746205691
0.067481680446972
0.0605989371143825
0.0601256573995796
0.0589210103401429
0.048650131041506
0.0782935738282073
0.0604595219269279
0.0575765254351205
0.0552906256491073
0.0577344303791408
0.055342293348804
0.057080033095839
0.0569370191172365
0.0561539652659516
0.0624038476734456
0.0542528820367434
0.0612496624245775
0.0569479417850968
0.0563067902585316
0.0542581881995631
0.0574778425065478
0.0539223477963192
0.0549111757826267
0.0533859177685803
0.0553352224227603
0.0543478790949398
0.0526989197550238
0.0555264721044685
0.0531630163861501
0.0583200203915121
0.0605955253857498
0.055270535064483
0.0523682460824201
0.054896440853678
0.0522971631969613
0.0576393889025055
0.0712700248283075
0.0509848355177021
0.0588462883860888
0.0523190966441702
0.0565932589634859
0.0521722393176869
0.0577912029268778
0.052427038549076
0.0566876266958155
0.0528818462382471
0.0568730251368298
0.055500914280359
0.0559534037116433
0.0527739265343334
0.0565834141113807
0.0522927956023947
0.0551938159899635
0.0538692670895926
0.0544661847468869
0.0574092993137341
0.0529759747533422
0.0690468763682195
0.0737745902188388
0.0644468371866679
0.0652956477048992
0.0572527800597246
0.0569771636066848
0.0518544601301426
0.0560139322574826
0.0533658162383511
0.0581338643762635
0.0515363751588049
0.0581489488582824
0.0551914784788755
0.0584975188187526
0.0504394908184665
0.0569508119919662
0.0515660303725883
0.059906320187617
0.0518396451067337
0.0581436333758292
0.0512032258369563
0.0594163538286994
0.0486957409253762
0.0614058220230965
0.0541245096791065
0.065801864319449
0.0401110482673258
0.0867062308380226
0.0738868378496741
0.060868998549046
0.0605806202231945
0.0541025348004469
0.057795760374647
0.055166632123796
0.0550212445804518
0.0621994978348928
0.0550094052405644
0.0556211566118365
0.0562949262954388
0.0583602266178622
0.0582648550171133
0.0512751380395676
0.0623939797913493
0.0878390519863738
0.062484589507421
0.0644604580815156
0.0501196890896519
0.0610142593372174
0.0816181385257961
0.0612703448534864
0.0622387416084494
0.0586150779091116
0.0578626748351421
0.0604961965767471
0.0561906543386761
0.0580446227689373
0.0613552682214662
0.0622103069605739
0.0572381133428167
0.0618231851352206
0.0539650564644851
0.0647860965297337
0.0604123201081221
0.0672805405746833
0.0666858286104341
0.0581810005902529
0.0626600561452441
0.0629489449711882
0.0603785440666879
0.0611187234683628
0.0595350203277688
0.0624801597009162
0.0687331893482018
0.0743480731778727
0.0599070353965457
0.0754521679141328
0.0702527347976365
0.0593551935694772
0.065248360544931
0.0677951736887194
0.0734657463333543
0.05518425281897
0.0697153830170062
0.087918898523826
0.0700409831059804
0.0839602577986254
0.0605830854559239
0.0700716950174503
0.0574649246937973
0.0684238245333904
0.0553050582454285
0.0839728579075678
0.0627955207033667
0.073672326522635
0.0594851067169775
0.0794564176560367
0.0746724806900391
0.0741141646429959
0.0665570113296081
0.0700749374624028
0.0651464654392692
0.0799374874588832
0.0702555365380622
0.0613431922706872
0.0988140400617005
0.0888360681129593
0.0861854509652843
0.0800716598968527
0.0681032243681164
0.110103949363037
0.0724356906341606
0.0777366564278619
0.0676014075673462
0.078981630456769
0.0675728856855642
0.0717999958361177
0.0988978965345282
0.0844136702514288
0.0756545070309477
0.0825287381086852
0.0692365134754737
0.103796594689429
0.0844649368350205
0.080204335227728
0.073692050346611
0.0866129569706122
0.0663335616147697
0.127310481445212
0.0965126924527751
0.0964305796583779
0.103691793379926
0.0968597270232662
0.0987207121256694
0.0966527210176074
0.0913305300567343
0.0988287030300817
0.108428076153207
0.101324110509147
0.0821626980057348
0.108932462274344
0.119840383134538
0.0935682526327271
0.105721870733467
0.0955289139786118
0.0955589427034501
0.126261851417329
0.151312764635944
0.133140712362382
0.104795100353952
0.107839893230971
0.129797516104044
0.111465607607827
0.108854420040121
0.111379501951486
0.109949140555531
0.11274780308554
0.108209471549551
0.124007322005458
0.11227491396298
0.119209160104468
0.114681883535438
0.120606951841136
0.136024280645004
0.168183839182549
0.16291651509138
0.133777804266694
0.168464689630869
0.148775227832989
0.140748736281741
0.132300259439283
0.135541334942233
0.147864773605404
0.140062575073231
0.145125339326944
0.135960491442438
0.169575717717055
0.15960522944526
0.158683922805459
0.17609980237238
0.158643074797433
0.164355363425266
0.158415531747403
0.331198853009485
0.190808649415728
0.190982451332017
0.18105594627873
0.193641475971382
0.254178418031968
0.202997124733441
0.1985898623462
0.203187306227355
0.200986809753294
0.212484163027978
0.226688257429923
0.226766176003399
0.241147612921031
0.237651950535253
0.233635772584645
0.257342449002715
0.313682797452544
0.305555648856186
0.285280217273064
0.265522274689028
0.292155158222522
0.299214108562605
0.285620282550737
0.296473552859512
0.292526639877412
0.306260520157943
0.367696603745797
0.323585910624547
0.328465882188019
0.328918410129287
0.36631974465883
0.328586392474768
0.405367646076121
0.383268255801173
0.367558427215213
0.367332072359258
0.374449054344897
0.380727192168597
0.379867109174398
0.429739931016486
0.416760007107311
0.406241168251093
0.419676279956265
0.414916217928067
0.42567518767428
0.425575174022053
0.436416094638778
0.43924193593671
0.489342718526479
0.459137695528919
0.64393134923442
0.496434814637111
0.460211419772654
0.459849987770645
0.455058361646499
0.496332567196876
0.483555419239446
0.508688108151586
0.503520754421149
0.457748290074907
0.47265641361197
0.469159141630696
0.477685304328749
0.467892429345336
0.482295011642158
0.468256688254348
0.507631371674827
0.475048185382945
0.512125839811267
0.553879950435225
0.482708009454347
0.466230424181875
0.463280444576466
0.460765517624725
0.458623675375526
0.443698505414841
0.465721536857818
0.479730983313304
0.443522444709675
0.449814990925431
0.436850046783642
0.459388531359322
0.465876886466401
0.423947918991155
0.430208733416891
0.415327072960586
0.422054546220894
0.39993312618672
0.417437163399284
0.465314333589927
0.402635455567401
0.392376962124336
0.394278979127366
0.380305293151975
0.383629783239599
0.380545280687359
0.381920545124992
0.374035278655821
0.36610485763509
0.369288322439221
0.363427236161823
0.354601333810328
0.347352516950906
0.355029909234738
0.349997227975687
0.34943853014216
0.351420395057808
0.344892072080271
0.344431459140169
0.337911371314058
0.341215750727377
0.334545435440548
0.338070031022631
0.33714320588646
0.33191807293103
0.332497320955705
0.330309753814387
0.324445061269937
0.32471883737058
0.326252877897048
0.321783657436868
0.322475360022763
0.326596189739149
0.315809714982239
0.321153319889024
0.317506985534467
0.318714630083863
0.313442746905386
0.316517458098827
0.314871466721416
0.322542210744473
0.307446292272167
0.36721965886503
0.342492137652503
0.311855566200006
0.315097143764626
0.309185695007417
0.302685804793452
0.296627476657979
0.33631433640254
0.328234887897591
0.305370680409392
0.302412454311147
0.293456087929897
0.307601688632615
0.305245662955016
0.291618459770385
0.296716815599937
0.284260683732447
0.332517192257991
0.362917500544942
0.34143926176281
0.376901084482274
0.301989256018374
0.279884677299092
0.288149829623274
0.319776275308723
0.276293922173428
0.273888111148193
0.271475761181766
0.303606068296412
0.287605692887435
0.273716650868914
0.269147749858708
0.26346416643254
0.287574124569704
0.291982872651058
0.269561897091111
0.282703255431056
0.303273753654007
0.273163700865717
0.300281129784018
0.329198602159685
0.287854881145245
0.249517328285338
0.255485202544471
0.251676680927179
0.255187204190157
0.293342097857118
0.251502342181906
0.25726701940601
0.236978880365559
0.229114992406597
0.24103938783619
0.25914441936254
0.245368649707452
0.236184212704466
0.259453539425359
0.228787860755423
0.233433465469892
0.245587730043288
0.26319272381393
0.277237400323111
0.233884281821174
0.219521764066603
0.246347242155021
0.258998171325698
0.229204586991347
0.234112743693263
0.209935094484622
0.216645118590559
0.234275434168741
0.212412027350138
0.220678812876998
0.224741598102033
0.226150713466313
0.25686756165852
0.266276884846389
0.263210081118162
0.214708763417936
0.199515148410028
0.202291824545966
0.205578876022077
0.20229543332758
0.199463108431425
0.219100034465269
0.21227485718081
0.200181772441622
0.246922349795787
0.213765142356009
0.201833991124977
0.205051534747777
0.202726447688172
0.212186932766152
0.241376358503724
0.244158950034045
0.226091385382904
0.221397971498107
0.237754441840881
0.221257389026231
0.224964986272426
0.221521258365567
0.226877965777632
0.228528407316424
0.241656202487468
0.240453557783231
0.24362600618497
0.243888291891289
0.250576723308868
0.271614048476059
0.282760137922317
0.258491800768309
0.286782162719458
0.299996253851426
0.321242043640269
0.298566684727244
0.284968928341163
0.291434742172584
0.292508966437831
0.298042263277523
0.302763348204134
0.312948163182726
0.341122224182628
0.3145225666151
0.315436856641888
0.318363659463071
0.322338760591721
0.330767386510158
0.351058851238133
0.357012330798088
0.383994618701569
0.387945446533986
0.35607843814002
0.347238119682964
0.340646963578283
0.353675546269692
0.352409811253581
0.33949485458388
0.347325336584508
0.345871054210265
0.369496938667075
0.356553198809881
0.349723647507607
0.352730664198921
0.352220070306409
0.356342624674906
0.361227056356548
0.363113375417479
0.367779493334792
0.365736310052889
0.367587188400535
0.375982483560503
0.430791729839599
0.395811572529092
0.374856945388491
0.387244637155783
0.389228941304137
0.389771863924994
0.388271943556738
0.396757972729827
0.400214862822333
0.393430047667352
0.398752693524784
0.398551152162309
0.399996167999578
0.419333163465571
0.42306899494177
0.405947057939307
0.411681046098945
0.40169491836462
0.428261990457518
0.472527922289488
0.429465349777391
0.428672135331093
0.424863852719967
0.417308544523891
0.421825696942994
0.421271248303608
0.424966017247489
0.425329680815165
0.425143507939187
0.42331850843812
0.423999111412995
0.424972992156124
0.425059946172144
0.419192034550148
0.444340029506434
0.426234423146895
0.418494012442565
0.424346778341589
0.418514995008382
0.418975135193249
0.439272271265279
0.436061002239947
0.418111348223784
0.420473916369108
0.424025330305572
0.437591552716782
0.434267761186032
0.417224101972202
0.416778103168489
0.418112856908168
0.415163147841647
0.416822836908657
0.421477252618855
0.441398921468972
0.43602930189372
0.42405690485171
0.427475368833944
0.424123109223639
0.429651232714078
0.43457759575418
0.435792019885874
0.440015764588592
0.443622790149409
0.440279303091424
0.442842265817914
0.445073063792147
0.453861065488459
0.448823543536163
0.455506202361176
0.443634183834188
0.441005949325858
0.438585180816444
0.438475268783746
0.443625732517462
0.435281063844081
0.431470475552461
0.428143318519583
0.424606513223517
0.429653955854111
0.440855368299985
0.424317584288981
0.420029753435336
0.419639918709234
0.403174207757678
0.412010017531761
0.400650225638742
0.402387689631312
0.397661034741495
0.396895631366838
0.393627337498844
0.391602517452676
0.388363866995067
0.390490548972076
0.387665532369989
0.390730154564168
0.386934909283513
0.388310502799209
0.385636792746956
0.387000033679616
0.380894119090791
0.381291814549128
0.381366258567678
0.381162262749055
0.388287112705083
0.399863763658495
0.394102198983774
0.389350675231315
0.385715313846098
0.385187763712956
0.379511362101111
0.379022869326856
0.38182872125761
0.382437661469261
0.379647802558092
0.379547344050477
0.377240223482402
0.376371794449294
0.375536405248182
0.37568127013204
0.376402269972972
0.376137030889077
0.374162814006347
0.374337866907214
0.372233395964812
0.375284133854293
0.376421784151015
0.377001739232796
0.372432937044445
0.375325471393506
0.37336366294366
0.370402906762971
0.372214420945663
0.372065968979481
0.37190576409834
0.373282282452952
0.367520550691138
0.367574167426776
0.37005432502017
0.367632513918181
0.367096731657495
0.366285127522384
0.365620606609837
0.366575787054956
0.363415301969223
0.36000910403435
0.357338278736448
0.356170576689589
0.354440650320796
0.351691284291694
0.348159339188285
0.34639067741347
0.344077909403935
0.343943693420079
0.338859086091899
0.336943766894345
0.33339832847326
0.331271095359342
0.332924945712145
0.329732114124805
0.32853203987171
0.330532420619333
0.327342654100474
0.326592149503896
0.323807708485091
0.325582356081987
0.323062386393315
0.323459659656428
0.323754345302171
0.322317760003114
0.323041904635836
0.323917907213333
0.325213992707164
0.326017096680413
0.326500628055066
0.327920402926735
0.32750918409822
0.329838856365893
0.330530227882595
0.331912597940736
0.331768922872244
0.335565907205631
0.335599743490688
0.339028521474103
0.335831748546504
0.336729109073728
0.33726488682392
0.340671007295787
0.34183491150234
0.341717414025071
0.345939649733025
0.344991173827284
0.343581123132888
0.34380143571827
0.339375973178392
0.342211504364376
0.339337346236296
0.340761481481299
0.340050776651627
0.34274400398587
0.340372345994619
0.337607034185132
0.338021710944522
0.337528632481666
0.334649578330781
0.3336796200953
0.332345278852143
0.331577414114928
0.331314846737435
0.329449344497538
0.327217290718419
0.328016371234937
0.325011970937934
0.324995239674915
0.324027991364418
0.321830021777771
0.31946043804455
0.318713675049534
0.319256825056861
0.31914638254853
0.319100806666452
0.316864989616529
0.31522551561015
0.315079711021635
0.312265930332569
0.314161775842311
0.311602968252056
0.309879448577819
0.309748496897319
0.30825806480157
0.30842604871365
0.307031295683795
0.30605219993188
0.303183671212717
0.301017082442153
0.30125871426937
0.298564387338773
0.294726575589887
0.295084787925276
0.292109520877397
0.289781992063901
0.292782244675577
0.287800680212436
0.283241760156864
0.283133057632407
0.280849861980536
0.279249623516014
0.281185172122188
0.280148034812394
0.279083443829684
0.277140712203749
0.278292897169719
0.277290785451007
0.278121926137504
0.27455856731878
0.273099392482102
0.273452713903347
0.270751438268016
0.269000312512671
0.268469539617345
0.265359095014384
0.261937217905167
0.258513216662038
0.256171820957983
0.253812235690294
0.25266250914588
0.247472012699392
0.247558532450809
0.245853519331569
0.243629138697694
0.243761281093269
0.243295808119609
0.243120814661669
0.248956652089437
0.251558581896284
0.256336589589427
0.262749471959964
0.267128460275113
0.27518125980527
0.284251651579781
0.293315012027556
0.304152639867774
0.313552136711023
0.328056703646234
0.337487646054998
0.349613928145406
0.365208545445819
0.376328498869074
0.389056841810941
0.398985146475887
0.413276579332031
0.429254601810461
0.438234507018762
0.454741228072974
0.464847146807144
0.478110372916256
0.492508486106148
0.505412318844614
0.515529699805465
0.521027480108794
0.530128222379164
0.541225373412862
0.554375605767703
0.56234066931644
0.566054378825367
0.572556158314927
0.572874760718212
0.575058148023423
0.580571427600872
0.582018515207143
0.58266202988818
0.577937494453998
0.572584293357146
0.575341360831657
0.577118375831328
0.574469056838782
0.574356622067263
0.571793980060305
0.571590371490005
0.577378576911087
0.570861263477044
0.572562876520624
0.577531395572782
0.574293875316273
0.578194958219507
0.585368379477788
0.586489636957905
0.590454607809367
0.594953655147453
0.600328378546552
0.606180462203207
0.612761860039032
0.622918232126479
0.62944383281515
0.633136911318971
0.644400521643328
0.654107465543299
0.666375246424849
0.677706088136031
0.682939582839708
0.689247070342033
0.705444600399329
0.706815584248319
0.702789079939671
0.709791240463805
0.713093646690087
0.714870774459358
0.712806758325882
0.711232866695347
0.711255358959668
0.708767448008014
0.70374810199769
0.702214288231491
0.70368837104282
0.700448383995413
0.696178391110939
0.696423662386521
0.708660782582547
0.716482255099476
0.719088537836129
0.731498193943738
0.738456091794606
0.74541698550396
0.759369070839319
0.771012743609251
0.785140456828013
0.796228425009915
0.809720737801748
0.813088384260379
0.822923315725425
0.837132358458363
0.846236821915052
0.860494619163333
0.870909334021669
0.887998622171
0.894866565617963
0.907518682348173
0.925351084469485
0.935304750664367
0.962112665941245
0.978646607809244
0.998339638087532
1.02412907660738
1.03056510524213
1.04851095152114
1.08030402902577
1.08954266835698
1.10571423530533
1.11819447864247
1.11455005358238
1.13041925755373
1.15467622123283
1.1530618630429
1.15965180524078
1.15822619066432
1.16477767353602
1.16992775945023
1.14811834827424
1.14239299257167
1.14166152446004
1.14219714419537
1.12565722722929
1.1119292202614
1.11263871329052
1.12407459249317
1.12305096786899
1.11245265716634
1.12217666059462
1.12915261720104
1.12823386022885
1.13292056135087
1.14711378501236
1.15559819810838
1.16326395528864
1.17208336462871
1.16674495901388
1.17957838687135
1.22366791529844
1.21153438432324
1.20810822651229
1.25144362359716
1.24751276546222
1.23927696436956
1.25444802798872
1.27297232410906
1.29588212038333
1.29501651154625
1.28207069912468
1.30012135403582
1.31291909626181
1.33546481398134
1.34001110627608
1.32496769520928
1.33034752182249
1.363034145162
1.35727131491444
1.32902706175268
1.34888293730303
1.38636216171109
1.36705996505049
1.35884142469724
1.35173485005816
1.34480413747163
1.37490945544348
1.34840909324068
1.34276281901923
1.34870754080543
1.37679720258207
1.35006307403047
1.31456836197908
1.32291964758107
1.32397366646638
1.30114317266728
1.2780301315229
1.24123303435867
1.19409682883067
1.17812794959562
1.14196432774728
1.10752138549641
1.06708071960282
1.03518138494997
0.997856632668469
0.970188155917281
0.941680128626262
0.90606738269499
0.891518546033621
0.875683906049536
0.860975854047761
0.860072498741408
0.852153551758172
0.833600758225736
0.838426996522503
0.829892990035373
0.815359623350484
0.803574163884885
0.804620888353029
0.800343175832542
0.786080522487655
0.774673834029962
0.767289849779141
0.755821917531852
0.738467049915802
0.728659244068069
0.711321662817008
0.68510308265892
0.673629731418621
0.657216927203037
0.637280951765641
0.623649493316885
0.598162085826737
0.576211290845129
0.553422633989914
0.530209036824784
0.51642230893781
0.49346470327324
0.476335777747746
0.457547992578294
0.441829407877988
0.429286444534126
0.410205251830247
0.394244827054086
0.380197568058966
0.372753590228458
0.359776711049956
0.350561884764032
0.344253883318709
0.336257969145557
0.332648991593423
0.32487556362277
0.315823546486315
0.315461169748079
0.309438462299443
0.305080194284706
0.308481787868898
0.304611754771402
0.303252066312817
0.302940177707192
0.302581209924383
0.299816455928051
0.299479472346253
0.306559076942049
0.308619613578273
0.306711356140835
0.305567756657823
0.308214245839314
0.309329228912705
0.310985088267357
0.311995305248989
0.312353543337039
0.315502263992072
0.314760602247316
0.313143903545257
0.313555557045874
0.313547815675283
0.312303861165852
0.306943658943327
0.30639350644242
0.308790513437264
0.302164300474908
0.305080044502086
0.308118131739065
0.310167317868541
0.305443420080351
0.307241018561733
0.305916555340144
0.310094082370926
0.312076682190007
0.31532049567047
0.316823823168098
0.322780626224981
0.317935018292722
0.321188432495858
0.326241474786234
0.327196586338245
0.3247707633195
0.331603284876329
0.329788313692767
0.329804674853101
0.333498612146624
0.335559932181487
0.332418551757971
0.335314140781546
0.335167304374116
0.338453697650697
0.33853845080969
0.333635811732027
0.337263511563637
0.338771063813547
0.333964370137824
0.33775754500977
0.346794300191374
0.349187754310546
0.351327879148745
0.360642363450754
0.363169639868288
0.366520526198541
0.368719895136193
0.377396721722411
0.393352885309109
0.399368072178509
0.413057427374879
0.417624376779338
0.418413155851014
0.426042955464344
0.429047448003754
0.423394433283256
0.419733828652423
0.419186741267212
0.415664947666224
0.408401090526005
0.406947120749907
0.404316991026235
0.405359587690653
0.404970153712566
0.395256284936127
0.397051358979825
0.397491292326883
0.393141977692597
0.39527959637301
0.396493720349546
0.403388497066835
0.395584654992299
0.401281924302115
0.402135849436193
0.398403631065115
0.404294509210839
0.400111121495242
0.399894635532868
0.398656410457688
0.393287023362795
0.389516132813597
0.388156883060447
0.393548827727675
0.400759314281947
0.389915402080585
0.391372601509167
0.393164966377587
0.390312317504764
0.385237546413635
0.391651658760154
0.384243021985113
0.388516663215122
0.390688285844318
0.395942196380823
0.398373843103825
0.401570912098787
0.393050369998453
0.395494549306698
0.391392582990525
0.390333321046073
0.390106345495696
0.395233911692613
0.394102347757604
0.399035195532115
0.399486784892852
0.386546597115347
0.393610716482849
0.400764586444989
0.394079343246731
0.398291175287764
0.391482559136243
0.386760466200489
0.392282460453714
0.396726655656758
0.392953009266676
0.390826763682393
0.392228112290407
0.38593184360964
0.38835339853116
0.393746428620865
0.386660437352026
0.391189598982632
0.396724142634687
0.402801038858726
0.394677227718882
0.395362912874503
0.404817566517464
0.412581466735538
0.399368595342381
0.393843528315853
0.410248270355874
0.401525760579789
0.408564550277995
0.414808187540395
0.410377098138082
0.408697735771239
0.411761244356861
0.414910479571434
0.418606285498698
0.417439055874268
0.426650424728691
0.423155073862443
0.430504338664541
0.44384680206828
0.441194494145277
0.445805350850368
0.439047033970071
0.446150486343747
0.459513624966215
0.440585039887221
0.455805467479075
0.461694348382503
0.464080814954473
0.471172774444528
0.473956497526733
0.486858037640491
0.490635496937341
0.491177318061403
0.500024922117982
0.50692074469179
0.515044763471839
0.53985332721562
0.545782055626103
0.560562635875458
0.587688476022724
0.596217450620239
0.563821644667544
0.59065964544183
0.603652749412089
0.589699455865901
0.610036368058417
0.628337626894319
0.601852630602663
0.606990928282723
0.603252854923056
0.592985328418501
0.598864818618911
0.609360182812509
0.594424834398082
0.597695587068097
0.595847689763671
0.624881836003521
0.586257874728636
0.605773150878787
0.619896059832524
0.613238067323463
0.597886248892842
0.604902137612145
0.588512674953107
0.602701639248417
0.603838138750903
0.623928280709426
0.61149347616679
0.635600700807884
0.625201484816641
0.608992210129983
0.589751916156062
0.596178163627555
0.575983227894051
0.649336567632184
0.639865789139011
0.640144178305223
0.591379917994054
0.584747998033979
0.58671171661535
0.626096378783447
0.61753461246002
0.625059912643387
0.603389544232854
0.595001011960441
0.607040250610184
0.594403047133098
0.615098772883753
0.646072106263822
0.682938688142893
0.61841510702167
0.617851023420393
0.615113723292219
0.577599442484366
0.675313302353803
0.624758590177009
0.615010114820234
0.624672320051873
0.608370128245265
0.615947942925153
0.666386916026478
0.64427472298539
0.647317413643681
0.6217548532762
0.651834886467449
0.66065175738997
0.663197573430597
0.642208536754083
0.641745195619616
0.636114555825938
0.708774940173724
0.619414672351537
0.658424666507547
0.671936271728553
0.743231798096709
0.676617524991619
0.698702824386387
0.744107361959362
0.732404598646498
0.64945400746302
0.67450994271607
0.758977268899112
0.733118389061707
0.754308474477114
0.747950956651892
0.693977584040327
0.768214472077948
0.873955243552705
0.778363696010868
0.738736640692724
0.752263873666917
0.786311466718569
0.860537812414304
0.82508856429038
0.793752048329028
0.791418731959182
0.901537047299882
0.782204215716509
0.824349042913844
0.800155263445392
0.868115491665331
0.771933530795987
0.931348752162831
0.746301781800513
0.733488839959876
0.803593352471914
0.804840942537332
0.757442661166403
0.876797209704126
0.728892883597201
0.776345846131186
0.756414367701702
0.890122811497005
0.73226376743603
0.871947609550657
0.765507554861192
1.00585035837879
0.936888925520097
0.869264953672157
0.744840279869321
0.824789777019859
0.74015357761471
0.798162597368277
0.858303252698594
1.01070106800394
0.679321945160597
0.796316629055499
0.727681306536261
0.880563167465613
0.840784374732147
0.877336276370743
0.731830220946129
0.814982784482611
0.82158679802189
0.77400052851118
0.683371791270736
0.843408726167662
0.9298394106369
0.970572611378678
0.712579990626085
1.71732566600919
0.920212411390627
0.894320237501403
0.727681088342107
1.59648090659048
0.705060756631161
1.65321467420123
0.570993928505677
1.22468244784692
0.753258697169505
0.646468661231722
