3596
4000.36533379555
650.420452594757
1
2
2
0.0691064317959753
0.0556603083975106
0.075733929645858
0.0577076999453927
0.0703355155571992
0.0673579723208222
0.0748227288299086
0.0558626138997444
0.0718290432812836
0.0629784320343349
0.0755247146760125
0.0592057300674692
0.0690088441931949
0.0602707733746543
0.0709467958359602
0.0484709547510942
0.0711524058912306
0.0549609142829471
0.0666080366310502
0.0583038350522956
0.066053366854047
0.0644255772361272
0.069459536307609
0.056150150216331
0.0714987610608521
0.0542175864916374
0.0653016616668278
0.0505774026943507
0.0672054288143913
0.0624036628007184
0.0720602474888065
0.0583530502827487
0.0669526539039259
0.0482325725690639
0.0715931585702899
0.0586235716406335
0.0629533319469399
0.0458079096035557
0.0589036533854885
0.0596264621783702
0.0744779455026683
0.0570001107751504
0.0743353397232575
0.0505774491402346
0.083195054369119
0.0581408599048853
0.0737756714788613
0.0553060171889321
0.0703542233714742
0.052814868061612
0.0749864702782406
0.0606515174101923
0.0813433216333053
0.0680221243708231
0.0552001494186172
0.0710313485742541
0.0759439742740443
0.0574619545795481
0.0787962313895392
0.0546906644761382
0.0809072430798621
0.0705877117175755
0.066284656505342
0.0571938665067491
0.0710715651146775
0.0603966725831297
0.0728772524614117
0.0579592686767633
0.0611164918327879
0.0582345284008191
0.061685239330796
0.0719790098210852
0.0817634660765212
0.0523582509508268
0.0734761131404917
0.0626263069185684
0.0610677909333624
0.0554786490526828
0.0503555528004745
0.0583486781576062
0.0731921863182193
0.0607984696641066
0.0631794568369378
0.051030018906067
0.0645454182076085
0.0673105163325638
0.0615985788832981
0.0536198940555116
0.08823656014777
0.0605138362588301
0.0672563211787549
0.0502794267140351
0.0605586995776154
0.0591580747109599
0.0529830838892919
0.0509713593034427
0.0676429843477121
0.0576095997566678
0.0568397328322763
0.0564917164160169
0.0728432726931043
0.0467044726901623
0.116912058519113
0.0387637812540663
0.129877891455324
0.0619048354034779
0.0642598951096576
0.0900890035871623
0.0719392776081745
0.0709290619094726
0.0651530328912004
0.0618473237683386
0.067759691302192
0.0596584252849088
0.0425557218123136
0.0746215550624613
0.0897428088593494
0.0628141414792992
0.0630322787927096
0.0593378433263067
0.0394606121589633
0.0731401950199842
0.0987570890537223
0.0636611143737116
0.0837309660672627
0.0529881259221586
0.0543669175627431
0.0868803015036942
0.0977324895738225
0.0532002516657743
0.0642724250638987
0.0515620508212186
0.0566070500089151
0.0398220398787954
0.108629570034128
0.057453523465957
0.0737895098556118
0.0358839756442253
0.0839655886438361
0.104104218337216
0.0773566472848237
0.0597494009139461
0.045552586618572
0.0422227373447116
0.100093023224242
0.0668132530250374
0.0575671126877296
0.0677711692184755
0.0797942438163453
0.0512917017122949
0.0697878323758516
0.0457253358486773
0.0766061786353848
0.0681922757588899
0.0124506041708722
0.0749700990617944
0.134705325973241
0.0567918987191773
0.136678834413707
0.0391447812288173
0.0861293997225477
0.0493705595688925
0.0765309083073633
0.0450770161740723
0.078423613386463
0.038602079758631
0.0746681102791597
0.0767327919824445
0.0641792895935423
0.0524284881995599
0.0927425932478414
0.0660511982856766
0.0530515124604471
0.117790007699858
0.0797296735727876
0.0414686697141992
0.0979163083761301
0.0633052319318849
0.0583485675928505
0.0531425552771905
0.100124610734206
0.0452489096756188
0.0688785710625673
0.0459317720426414
0.0579089143541748
0.064698023384422
0.0621325984130986
0.0500065073168859
0.072791223809768
0.0331336153113989
0.0780804532062391
0.0888406370823986
0.0973900233958208
0.0413381210920653
0.0747095039830436
0.0111727009950781
0.102188969735872
0.0812920928427646
0.0698246024293238
0.0541725537027824
0.0547101586206953
0.0529279553720305
0.0589290987613019
0.0499995449483777
0.0540592283547151
0.0226533163133165
0.109936800431527
0.0628847708640154
0.069166387299398
0.0470919343503728
0.0676657478268321
0.0270473411941146
0.127656619349224
0.0811992732171334
0.0603456509745922
0.055486783325931
0.0524350566539694
0.0590831894798161
0.07971272031178
0.0510603684705643
0.0676978577018504
0.0512632116191905
0.0652980252601752
0.0500861307373884
0.0576168369887691
0.0533652901218346
0.063565268494172
0.0579510089917536
0.0618040145615901
0.0540233808286963
0.0704724690010765
0.0532978580060764
0.0601116940927603
0.0517765975504736
0.0550492296405576
0.0556887305269019
0.0951142295704195
0.0629918000467307
0.0718617546767252
0.0512494691125797
0.0665720385654237
0.0499384388145866
0.0645651929862025
0.0500010197755955
0.0667575742974602
0.0305998503516375
0.109902597173206
0.05290097053626
0.0857955795856178
0.03710654181247
0.0927590508588837
0.0627206178839884
0.0674615101000393
0.045673269192736
0.0666137679197227
0.0470717932683603
0.0706355687016914
0.0872590325269184
0.074753381780415
0.0457209375337842
0.0849018288708573
0.0644775171737931
0.063441137369962
0.0512774418675289
0.0409691291841595
0.12970161735137
0.0764747611082984
0.0456732856356799
0.150554191953537
0.0604794095411315
0.081260771888472
0.0549444410061083
0.0274589174892185
0.171840936321935
0.124483968088801
0.0652201621731581
0.0658386617272431
0.0850130078193854
0.0631645049618883
0.0688557921112293
0.067271416190561
0.0691819043646286
0.0898769462422435
0.0697262653929874
0.151056150626618
0.038587750829583
0.105711553952953
0.0870910455169115
0.0774677709256279
0.0559783850435096
0.0717660062814147
0.0466078312513277
0.0864428304253563
0.0691285727144164
0.0862553224284279
0.0754593621707428
0.065658026405496
0.0973785589678234
0.0825266250224936
0.0573633841174473
0.0727820331722913
0.0772581593145749
0.0605702769035608
0.0642813208769249
0.063577354450131
0.0733683287811252
0.0643792378989705
0.0518670994046645
0.128667188602412
0.0751720041793698
0.0789883497328883
0.102166025667558
0.0783441159103621
0.0666212255353777
0.0707794190198749
0.0668254662893651
0.0696659119686525
0.0601380860191933
0.0564838372823763
0.0923348820892488
0.0770738587323485
0.0639704429616776
0.0701871161835002
0.0656174248873547
0.075314567184275
0.069666305276356
0.0698753334510579
0.0683767691198458
0.0773658099817679
0.0517230218412058
0.088936998886903
0.112019957352583
0.0502508954300318
0.100114912765662
0.119741014069856
0.0685289181059623
0.0862862482617119
0.0671745279171179
0.0843425112489233
0.0672804309754901
0.0879806802750031
0.0677982877114531
0.0857431266660948
0.0888139618081506
0.100393458667712
0.074203048859554
0.0890153187226874
0.115127323789848
0.165961022715226
0.0991816025355964
0.101212175751142
0.0595152472663685
0.128510450233336
0.110528158783237
0.121378883514713
0.125845830780318
0.0949307984268565
0.104489461414347
0.093879793601546
0.0968442728278412
0.102769167952954
0.105190579007707
0.10119148604594
0.106758136206896
0.11141587023752
0.113919320357544
0.104932530994241
0.0975120879537924
0.157759950259013
0.120194384033055
0.117577800363497
0.117420301594128
0.105705136266434
0.149584505953548
0.137918333825717
0.164883255211099
0.172766885290048
0.134609868386018
0.197947192198198
0.124500003507671
0.140253909363402
0.116568423923255
0.152714517646524
0.132439891095969
0.148370409470494
0.136455024239437
0.151699667554085
0.136110169971575
0.162634498150057
0.138572087055971
0.164087265782939
0.139119455244967
0.188080462530444
0.154467079970576
0.183653529601352
0.137933685299906
0.190751806742241
0.198956215856874
0.228753220697296
0.168131447761486
0.181735749624047
0.163775116361598
0.176870523721856
0.176583468453764
0.183878254207954
0.186057695798325
0.19215371905082
0.217899320329283
0.218062598798032
0.198650969590725
0.225224330404757
0.17551087874934
0.234261450132159
0.199731722615059
0.225099423024237
0.226413308499961
0.222310991964834
0.190988323668207
0.25310217111008
0.22991406812997
0.238164743582347
0.245315408031098
0.229219048733052
0.22344509176586
0.231858839512938
0.225966966952418
0.237982291361729
0.241725666189235
0.257643389731451
0.23426360729134
0.260725901212303
0.246161262243948
0.257644647800359
0.261272853526567
0.27317768703057
0.25111610561702
0.290376199506052
0.236092124926914
0.282545342198047
0.253302955713844
0.298215412100416
0.281899738235492
0.309497417572093
0.313587826805876
0.299243966055974
0.287475511056044
0.301503349194934
0.290595767826747
0.293740195180761
0.28864298517633
0.313840700598809
0.307244511834388
0.322595273256224
0.309600061404413
0.320901082575762
0.306018598269968
0.33660341713186
0.31977489930881
0.346191127237164
0.333209862992328
0.357718914486391
0.314050246005446
0.388324634777633
0.374727347588016
0.372997082771579
0.371576660874681
0.364881955235478
0.361350580914511
0.371533083398837
0.366359268369183
0.379012704124143
0.381170067453684
0.399084658722039
0.371683132551741
0.394019261768167
0.393043275199009
0.394223986557309
0.382738134984334
0.411343384640401
0.403151393427798
0.434612515855897
0.412476567017126
0.430441322789344
0.402095655878277
0.443736296356912
0.444598599347066
0.443974608335658
0.432033812319761
0.472962333686131
0.425177600523897
0.445495568005781
0.42776653830126
0.46122719057895
0.444097484666105
0.480164840403048
0.446131948778759
0.503143605845198
0.448102266682923
0.498415653966681
0.483210500739471
0.486256092223678
0.48523056634538
0.503686951683674
0.484419282742943
0.524571508375693
0.485267761962481
0.537360154246107
0.509026089650878
0.525092663178612
0.512780429378734
0.52981511515789
0.505935530096984
0.548520157155754
0.545867223852336
0.563731264301469
0.538252142591035
0.546447099927691
0.540375329229444
0.579033166527666
0.539339738246387
0.577013134335097
0.561240840471174
0.615485024802464
0.55646342119073
0.595840322710858
0.567782721677925
0.606699090517719
0.588931701953492
0.612867361600722
0.585247884122246
0.615623052093044
0.600284483489731
0.624360742750277
0.605199515806618
0.658075187403683
0.633507324706751
0.668193811993701
0.626315223205124
0.636023767715306
0.624036868994112
0.661032145615582
0.649991354869357
0.691439752553842
0.628377879061873
0.670356560698469
0.654877753467087
0.700564928852227
0.648322036281529
0.695741016051384
0.671489538735071
0.731436919561866
0.69358691958084
0.725921817516105
0.677681906446953
0.719207358526237
0.663760954933677
0.725197837456679
0.671406192537088
0.741502992222493
0.709214271189239
0.752916020581338
0.717454670833553
0.73944196091445
0.747945311307897
0.795685761066101
0.724575492694685
0.742591356005213
0.698575699754733
0.763980865368831
0.744431616092985
0.76148166725044
0.759086075792093
0.781811298832603
0.742306649324927
0.78382426329695
0.819759397741644
0.780681487702103
0.748184304114909
0.835874880565989
0.792087634867126
0.815425888691626
0.830167824509742
0.855046992692397
0.79066827325301
0.833897184227836
0.810873590847524
0.881786912403083
0.81552330312554
0.888397856116587
0.803665404925537
0.861561379785156
0.83370817100037
0.932460567561082
0.873409493972538
0.894041169425499
0.846616209160011
0.903334291902194
0.843209693734907
0.84752734540606
0.878579643998667
0.929405819530129
0.830174395263594
0.8910852278733
0.895474367779894
0.964318989454669
0.851601346507149
0.920731497338776
0.892961131439353
0.930207532528195
0.91384321821674
0.919166320830551
0.889302819707799
0.968923077970758
0.891082779596614
0.969072214711405
0.949158035769508
0.981285790377046
0.963710492892912
0.970845748097841
0.918801947152302
0.974123802061467
0.947904201431479
1.00192650794435
0.99897783799329
1.06035378915048
0.936965047438468
0.99462152593895
0.977748135945403
0.988429482553641
0.95640784817179
0.98242078584618
0.959592504452633
1.02954997996999
0.966730697898401
1.11599225887276
1.02613481701771
1.01199829578114
0.955862435836433
1.04740864362206
1.00904236880904
1.01215786923473
0.991973032623433
0.997164725498647
1.02618667745927
1.04955948757827
1.0069555516252
1.10500542266618
1.02275464624919
1.07229683614144
1.07029094661193
1.12017023977888
1.07533765515357
1.09935714444375
1.04421606464655
1.11900618221277
1.0260378470852
1.11659116297962
1.07794267140427
1.14296458531612
1.06362125129037
1.15280715149817
1.1137134179231
1.075652148812
1.02959594822259
1.08103099081907
1.08147950204555
1.13002704291663
1.0158702143874
1.19502805310094
1.12609871742992
1.12426807716193
1.07839466158857
1.1171388175231
1.09625688913278
1.15415071247901
1.0915814798228
1.09242782315849
1.12465661351388
1.10725299586536
1.06254853220058
1.16779610961731
1.14712817325227
1.12946628290161
1.11096852324215
1.20020700856457
1.0537044907046
1.18885071295356
1.16985397912232
1.16637637101897
1.17997000135479
1.14019822065707
1.10941603724919
1.16073037845243
1.09381702287712
1.13384659263553
1.18852197764555
1.1465165925101
1.1930906058087
1.18748977940591
1.1621983696406
1.19056411000188
1.11973797859837
1.2287798191078
1.17182565452585
1.18230944526798
1.1518981660368
1.21660266010557
1.16069176907272
1.26877847149518
1.153485171087
1.14779684648302
1.22067851780871
1.1964685890483
1.1321034094717
1.16926626432092
1.15540945807325
1.18729111288223
1.11971761977185
1.1975427603906
1.13139612752051
1.18806576967191
1.1758645654723
1.17455211271213
1.14690030217175
1.23240812125992
1.20231930037454
1.24966335998338
1.13843601768974
1.24275425914195
1.23076910161326
1.20507809040286
1.18072639608875
1.20676009003273
1.19705015091246
1.20209682375853
1.16786652205983
1.18861406011354
1.15702519370065
1.1914713093681
1.15320267260734
1.19843512233216
1.20144430422634
1.19550137672619
1.18046724317774
1.16000526619009
1.13602854304612
1.23411255423496
1.1497541450176
1.12552550353926
1.15056070549105
1.24041196837888
1.1948473140166
1.24178649655501
1.21665656165797
1.21232402659559
1.17045633603792
1.17326394891336
1.21182064800538
1.22392939370839
1.15524732598689
1.2120053460594
1.18210107414272
1.25424896661743
1.24139039621808
1.20308705008504
1.17544423561755
1.22758384800568
1.16926627073482
1.21601226810619
1.18028588825826
1.17143886827697
1.22959281413815
1.23367964699441
1.16116207802382
1.18611627921904
1.09456523402747
1.16058654437193
1.13304113756717
1.1602031342682
1.1494104197202
1.19122962693995
1.18715456171128
1.19418848783196
1.09046835419569
1.16366617288543
1.15293462825695
1.19760324076424
1.16172608291226
1.20268901336194
1.15796251840908
1.1956344182743
1.12869227605075
1.15200070529408
1.1785285366418
1.1445082913671
1.19429761247365
1.1694679143105
1.14025875789657
1.16285973323884
1.14874547940559
1.15263822373725
1.11945073590271
1.19134904825203
1.13132153408029
1.12880889276104
1.10301124686893
1.13109052177744
1.16360748878947
1.1780675690273
1.12014183388281
1.18153221026139
1.09371582188066
1.13187443543474
1.12259077972007
1.11779174661011
1.08500480190769
1.13780542420852
1.10907259227784
1.13115783791963
1.15046961966544
1.15143099812808
1.10221226499808
1.09446160566798
1.13466298268479
1.15072820892372
1.08265440447771
1.12023009655924
1.08655226824122
1.10559188189149
1.08118699739605
1.07675380145228
1.07396211120726
1.11048752895771
1.0590435535635
1.10300181275396
1.11354955734936
1.11516159778661
1.02221545853213
1.08340821986767
1.09743387455627
1.06384692292817
1.06109679832198
1.08094893696651
1.02720691175716
1.07079705010702
1.07015250696269
1.07562555117713
1.03673645898455
1.06702729732185
1.06115355426576
1.0370030969358
1.02740867147594
1.04485728875197
1.07101276292421
1.10129223446998
1.02051554563609
1.00674073156463
1.01910780442696
1.03328410649072
1.04446308050281
1.06662704433528
1.00908341393779
1.00883869895448
1.0104676097805
1.01456333821462
0.982140648545415
1.00096651743642
0.967925500686057
0.960769518022027
0.977174748857158
0.967321487504618
0.962152928305046
0.99382046558094
0.953387389763683
0.971733873796237
0.953799721758682
0.95804346382794
0.966280059246461
0.972072690719508
0.965108924362793
0.950657022911232
0.9595813909756
0.964005304475809
0.897520293460744
0.939729448074992
0.934233462651158
0.951966407120067
0.909874468388516
0.904357450298233
0.911429139915963
0.923807922207319
0.925385019621741
0.898071427059137
0.897553700208882
0.918726461204574
0.883757158809215
0.889900085684097
0.898059934306073
0.882718943164965
0.855802524531691
0.864491530254917
0.855297651156412
0.867761683168677
0.841413472010973
0.854042535520139
0.847136523808665
0.845827415503373
0.846795828860059
0.848314009390856
0.83336828517533
0.83950575843021
0.830349562821487
0.83953830057286
0.808456325600828
0.837060936296839
0.826935480697227
0.806312169587058
0.79992678802971
0.81159948038832
0.804351684695054
0.792617161459478
0.778211567373006
0.776391428182869
0.788327252214439
0.785402972050319
0.780612316091362
0.786505033488867
0.764264815500707
0.769365219194189
0.770567209859588
0.776952898177242
0.759790217374814
0.742303027059349
0.745967290394785
0.746723263615372
0.739179779640576
0.74550388967632
0.73486184439127
0.728994680995547
0.710695423843164
0.73472437775792
0.72152082011279
0.711060795052131
0.707025439063672
0.693876654088484
0.697309560159126
0.699335667629789
0.683770032110635
0.696569262110161
0.689998031544604
0.686310819549382
0.676751204655762
0.688442370127748
0.687518957071126
0.690830001921351
0.676613071450345
0.669003117025135
0.662959810183762
0.665537764960564
0.667680520971425
0.656906607187916
0.643123949914655
0.648200925832908
0.639734648745547
0.643461330669142
0.63625904128676
0.632557868973396
0.623340569779026
0.627964524080053
0.631947616031146
0.63244159072046
0.608864367387774
0.618872919844553
0.611824192954334
0.598501257189021
0.601588715854919
0.608775418066201
0.596108242428916
0.6025670293705
0.594888736868983
0.596999923874475
0.596040602282281
0.600459493749119
0.58880053151369
0.579893656679578
0.576621007243571
0.585535150567691
0.570987906267651
0.56693134451632
0.570509055444081
0.5669766253973
0.563351001527405
0.557810038383478
0.55652715870948
0.559359623916523
0.545152832249351
0.542054249149246
0.545950756727394
0.542340206913118
0.529685856811061
0.537303990011538
0.538790708833887
0.526795046888754
0.525578345565321
0.530402797467127
0.527984009521091
0.535335919622863
0.525594233847694
0.524901770147396
0.519360318846329
0.509826239767593
0.508465399928679
0.511442380044588
0.505662205170863
0.504705274009369
0.500515816773567
0.492941524961918
0.48658345487186
0.494315000163129
0.493500683684658
0.49133435792944
0.488210957551041
0.484962032110567
0.474072597084455
0.476501914600096
0.47115452723732
0.475997587476254
0.468441307039874
0.472573231098079
0.472422358705785
0.463525187697321
0.465768908391038
0.463983395852803
0.455897776877833
0.45128380955142
0.449304882965819
0.453054001411795
0.451512560050215
0.455855752670112
0.452602774045363
0.443723029717739
0.434727069926227
0.44486628319964
0.440487258092314
0.434640063419503
0.434125505726386
0.429954604642325
0.430849711680158
0.434522902500553
0.424038492564404
0.421291532329582
0.421319834809705
0.411990939860544
0.411982182442181
0.41792980684858
0.409513639548681
0.411323791225252
0.409089118070596
0.408834158976715
0.409201508413255
0.405612787850525
0.405478956048124
0.40154181267502
0.398745592258087
0.402398554947775
0.398939730548661
0.396967858554342
0.395588982833764
0.400092461636962
0.400564116159684
0.395133604546013
0.392986432920034
0.389498060170906
0.38508699817188
0.386040294763869
0.381123178665675
0.391615882856647
0.393668535760761
0.387325065974428
0.388927816547834
0.390348959344106
0.386183529707529
0.389853177265572
0.394219324058546
0.389875114569768
0.383253997468789
0.383675573401439
0.384843113142083
0.386490720924132
0.391525605235369
0.388572892641166
0.384565892889429
0.38979726196183
0.387498664984663
0.387410130874666
0.394578966361467
0.392242509765918
0.392456628802948
0.40003470176622
0.396170536174564
0.402465170297831
0.405927653604196
0.401417046731387
0.40204290490469
0.40653692129032
0.397993579258016
0.404464575092333
0.406905878480436
0.40943633726671
0.417553124244673
0.415964670178119
0.413746438562444
0.415557537651483
0.414082072828092
0.418721721550227
0.418367870613243
0.41456884764382
0.418644956878131
0.424088532444022
0.430039733189032
0.433905389625068
0.435938516470055
0.433036286073728
0.435623943898793
0.435914946573719
0.441860535520501
0.451924615432154
0.448043888492561
0.447747833041195
0.444519862505157
0.449125370346794
0.471230511818042
0.47198211970197
0.46244151266733
0.467759478130152
0.476199916086008
0.481381351163056
0.487852029225529
0.490051770661856
0.492275499901747
0.488117575358317
0.495519502316534
0.492953844739576
0.488713393509396
0.496830783240118
0.497923538644689
0.505650827264447
0.505661061925616
0.500369665991044
0.506024674008589
0.500253237702369
0.501089184006202
0.502051408817616
0.507697564662139
0.511912418299632
0.501596930092348
0.504470199146573
0.497189693182139
0.492157471915005
0.500488586184865
0.502669563204483
0.499553657378659
0.489272834392529
0.488440288042124
0.49881149770187
0.499671554672345
0.494991943942513
0.507348218941676
0.498696831918924
0.498941308707689
0.501495523640648
0.496221672930141
0.492620185834733
0.492724791603298
0.491358819974973
0.489569984665248
0.488123966462743
0.489660163111062
0.49101997317706
0.498575005064706
0.496338191959808
0.501712924984959
0.497417410877512
0.48906689433355
0.496761096500201
0.496577640790707
0.495859355136422
0.49834605364552
0.489120662722455
0.49712582271815
0.505981865105969
0.502637054197888
0.49402501881537
0.493583944096089
0.490397566556916
0.488535830217345
0.48842382515303
0.498380797035391
0.497164258625468
0.496135289828104
0.496315105352559
0.489002182046251
0.487505097110408
0.487582311899962
0.487143177018086
0.486362294816943
0.481050572313078
0.481134234328062
0.483226990005942
0.479643143565156
0.472387946003212
0.46754538317776
0.468608272384964
0.468586703104491
0.463849653321675
0.462062762778118
0.461543669879779
0.457599510582004
0.454186568292669
0.452679757276663
0.444037080644063
0.448681778600547
0.443135065847166
0.444777647074443
0.442589810629059
0.434567099188989
0.429095146653887
0.43174298310077
0.426681312887042
0.425387861977908
0.421560749210655
0.415113435074012
0.41413962235589
0.411968392821813
0.405099507259817
0.400856287539535
0.401007877981376
0.401470407153296
0.391710975057682
0.397108692541206
0.397049390072436
0.388936768243846
0.385004122322755
0.389746729272177
0.378245870138286
0.378340886718116
0.379726603595614
0.375145093525632
0.375169612648989
0.373427614887898
0.367199442663855
0.370542731233412
0.369876239230285
0.367583319478294
0.359754384193158
0.364217039744371
0.359551652630113
0.35655065419578
0.358135761730985
0.358072820676148
0.355292122995787
0.353879619430582
0.347893162704791
0.355945381594605
0.352650748111797
0.348634547605495
0.343240506292879
0.340147161494627
0.341621252744872
0.341731778357482
0.339014976071278
0.337558351535381
0.333327250040869
0.334103901085909
0.332095834388708
0.331088203038517
0.329092384901689
0.333052411016515
0.322150133258177
0.324723635293372
0.326468675282829
0.327200966655042
0.319355469453078
0.319490318156995
0.320359387299824
0.324920351886842
0.317401880303266
0.316091453117354
0.315157036872471
0.313434217511097
0.311340458634609
0.3137679420376
0.314029728486064
0.307110627951734
0.305891975374371
0.30746922565363
0.307074883825255
0.306292189357587
0.298061046244672
0.301222048936023
0.302064734040256
0.298011561924651
0.29668385627274
0.300593706270893
0.296060246066734
0.300561172540239
0.296231938655833
0.290397640054446
0.294600412926412
0.291769162564495
0.286848701987807
0.292812205587464
0.295734912648396
0.296124839212072
0.290709536419705
0.290993759531688
0.290160281616666
0.290681073920739
0.287948006719732
0.290145332992218
0.289323697105646
0.282516897637739
0.285494364668605
0.288514563453214
0.28338419760529
0.280870501113804
0.27689475617518
0.280232917634238
0.279154623381723
0.279823055932533
0.279059777898706
0.279548312563672
0.276964060985593
0.27520300940453
0.276708908374421
0.276411914160807
0.273216697644861
0.274368348245923
0.270164078410954
0.268937704008968
0.271438982931647
0.270824402228112
0.270058752794137
0.269079745431404
0.266367298080266
0.269017501171466
0.268520316063933
0.26967209259383
0.265173389071726
0.26887309943305
0.264391178359737
0.263706491459655
0.264742377195613
0.264102505018666
0.263578937938014
0.269156522093811
0.262340872584727
0.263555412152917
0.260297549419957
0.262302305222945
0.262332242325066
0.260393369742336
0.25816119785904
0.259274749123551
0.258341953606938
0.26120342828926
0.262721761692324
0.258915743819664
0.259796232261505
0.263627624854814
0.255184620468002
0.257387673996633
0.256167450108886
0.25816479493064
0.25702396533929
0.255673976298545
0.255221968313649
0.254527560050743
0.250317440277344
0.253204050414913
0.254045433671399
0.25460546788336
0.248952541352452
0.253049043391437
0.248518679623507
0.250016115710101
0.250881922425382
0.247454836207713
0.249236768547277
0.251913968377388
0.244195915453325
0.247227113802818
0.246852175044614
0.249091132931652
0.244857802404171
0.245253486986493
0.244279835918937
0.239561362999856
0.238870911080185
0.237406045852738
0.238454284427751
0.24164627598949
0.234790593105607
0.236269706240798
0.234494621283043
0.233649768204143
0.23316155264151
0.234866957020316
0.228429028363464
0.234939439173198
0.232753944929431
0.232333728683584
0.227194056738391
0.231226890650731
0.227644467539991
0.225137971459598
0.225207879889958
0.229144034572319
0.224205463876791
0.227934869035301
0.227329717010216
0.229938942155477
0.223989683335399
0.226293497205038
0.224614861596966
0.21987851842233
0.221589609203117
0.220623267789988
0.21718899889854
0.218788834031924
0.21598010904574
0.218697796587446
0.217920509284773
0.218809766578568
0.213681373822245
0.214562381725446
0.211901989935228
0.215065701451994
0.213299529032522
0.214106679981224
0.211655207373651
0.210656671322605
0.209576527737729
0.210922205004899
0.208580406392883
0.209719531419668
0.207900748197136
0.205898660899134
0.199098203261967
0.207125759264306
0.200181776398628
0.201038364813895
0.196016324729335
0.197587818863769
0.199539186763704
0.200318186878845
0.197265866861455
0.196704667753953
0.194838709992563
0.197499294831934
0.193737737556306
0.194906510068736
0.191091933534014
0.191879787694185
0.188958586415856
0.189153853238392
0.187744415426373
0.187057017086835
0.184111981530953
0.185199521789747
0.185009317942376
0.183733647191443
0.179573215770487
0.18115084209252
0.180335823437726
0.182716505311854
0.179526300737141
0.178394448639288
0.176411646894936
0.180778460544181
0.176578392637596
0.178589035418383
0.173167527470812
0.17481310115947
0.174780301201299
0.176745394013772
0.172311672356178
0.17759304479422
0.175893927504459
0.174759890472289
0.169959482966537
0.172482784210232
0.168813091424158
0.170832436564498
0.168987137820614
0.171794408275646
0.164531942245015
0.166415645473566
0.167504893416594
0.168970252644787
0.167947191904705
0.168586820185916
0.163393125173671
0.166707483222919
0.163007333408635
0.164990069185309
0.166105956502906
0.165057126540885
0.159486177980628
0.16298470640981
0.16112243000282
0.160999212847967
0.161370329055803
0.160032245344829
0.155435912993251
0.157965542930017
0.154930034706292
0.156391476540799
0.154412611816459
0.156461889693824
0.157170361687504
0.154722463649702
0.153678884835388
0.156693804014587
0.152383712439321
0.152783581470889
0.152439870394068
0.15226253963122
0.150557133555382
0.15162917737748
0.149026392083664
0.151726692245722
0.151169302505876
0.14880009540925
0.147364183508588
0.148208677894188
0.149454600298835
0.149797135040669
0.146915058185896
0.148154291746069
0.147703872115009
0.149490857085784
0.14440156895725
0.148855677888528
0.147921553426716
0.147656854804829
0.146811000259528
0.144793669206946
0.146614815205076
0.149440013572627
0.143983754314553
0.144852274782784
0.143323596477124
0.146138394786489
0.143805958724304
0.143315261827134
0.141702420966497
0.142175023664826
0.14168228158674
0.144699526075618
0.140539009521223
0.142805968074263
0.14214927998382
0.14564996554078
0.139977936524395
0.14270512298654
0.142019954376376
0.140987627002777
0.135620679855286
0.139565218045184
0.138975356882151
0.138085222683942
0.139246210258344
0.141558346152237
0.135682088503569
0.140170189111061
0.135887652672587
0.136795236189985
0.135472238131725
0.136561922887912
0.134519742715366
0.135034950592411
0.135485218735556
0.13342342544719
0.131103023516166
0.130796972875629
0.129363366390027
0.132806696553111
0.127746960193797
0.131298868100734
0.129045133911911
0.130112685947514
0.128660726724928
0.130713036336957
0.130082987004973
0.129727671549336
0.128174909524441
0.132153395432977
0.128911446016588
0.128308308268423
0.125736874671833
0.125950851937173
0.126109558369303
0.128590227336509
0.126518410802933
0.127301529889914
0.125219393538681
0.127119303234981
0.125236533962353
0.124962291447929
0.122491802524643
0.128139675708334
0.125060445885388
0.125023958434118
0.126414255969814
0.126940228041128
0.12209191270523
0.124164964043516
0.120000472851824
0.122747197269729
0.124482337678159
0.126899680248208
0.122439814152434
0.122990720796861
0.119388974852339
0.12253282161134
0.122186839643644
0.121007706917495
0.121370759694121
0.123215664964718
0.117315354128712
0.118352234174594
0.115251012154155
0.118316646294961
0.117743375390831
0.118262724688646
0.114627436180759
0.114232765733034
0.113661358456169
0.117863259851809
0.113340805976575
0.114184020937614
0.109871229183691
0.113699593745467
0.112109352654037
0.114664097301885
0.108466875299963
0.112912844865499
0.111405665616298
0.112950379195385
0.108200958472486
0.109589261895007
0.107091229930778
0.108944017363895
0.108125743204008
0.105673863488333
0.102503573858839
0.106455909504833
0.105027042290723
0.106595647128903
0.104347685855362
0.106289060766048
0.103614776975499
0.105878025299303
0.105176491681156
0.105885211369505
0.101900187639457
0.102305041382264
0.104810895757861
0.107582229409762
0.102537691078521
0.102333857218889
0.102146163432553
0.102056512878891
0.100098763919574
0.102548471426739
0.0996379023076392
0.09930514889726
0.0991432984895888
0.102008809602319
0.0987324710536542
0.0986084741065803
0.1001182759931
0.101749845801457
0.0960680411996847
0.0955001651880434
0.0963867051056986
0.0987123193107479
0.0965126451755127
0.0969693336994297
0.0939302474997817
0.0956438639734659
0.0927894905082226
0.0960627454605155
0.0929463564174539
0.0932968007031365
0.0926004019569255
0.0953024554241104
0.0936514225704271
0.0920099729504062
0.0886654829324985
0.0925418781705057
0.0922250180761581
0.0943618572601985
0.0897240186810066
0.088713703636099
0.0877588462971057
0.0885897894350829
0.0876314540273883
0.089199284129792
0.0868811073329611
0.0892727099154359
0.0865575498670015
0.0879332601938863
0.0898266819664659
0.0892578188837888
0.0853708346867851
0.0868353647705658
0.0847325859738335
0.0845642209613443
0.0847208750574174
0.0878520882212989
0.0854500684309624
0.085261316519057
0.0859795678055912
0.0844976250864515
0.0839612042950486
0.0878887431951503
0.083915854591524
0.0856017088937177
0.0818288491917701
0.086511101032347
0.0836122200361637
0.0843335980396112
0.0844932206328401
0.087364715424117
0.0837742533814937
0.0873424016839161
0.0836565213306933
0.0872195939029738
0.0845939706294425
0.0868890604332728
0.0849715349671289
0.086110729709259
0.0806404614732143
0.0883129568619667
0.0828369509386226
0.0872205781443878
0.0742331378585642
0.078143939610227
0.0771832808271856
0.0807358522260647
0.0778875759952047
0.0801057599086726
0.0737291286203774
0.0725097423030532
0.0716208848047907
0.0782029052589167
0.069220007960863
0.0741694719621072
0.0754459085266556
0.0753293369562934
0.0737731091751068
0.077934476481264
0.072474122452623
0.0825200257573631
0.0750756306763118
0.076235459913094
0.0748057681120567
0.0792906381587317
0.0808724660934138
0.0791859684155677
0.0777067727372969
0.0753649384616567
0.0720432146760165
0.0716157299646587
0.0679675287806203
0.0778233370764693
0.0688770624239785
0.0761021583462607
0.0685891925427545
0.0761000881713073
0.0657782505616685
0.0767872658758581
0.062908631364314
0.078492905703243
0.0620387671679476
0.0868573674986986
0.0601640570577981
0.0889627736431022
0.0599216931750683
0.0909750190436652
0.0552939695651092
0.098034363751489
0.0525644390848583
0.0988644714070874
0.0492962368523258
0.107876479760219
0.0488006692620667
0.108142246113224
0.0500594428143376
0.112155464646045
0.0462570929738923
0.107715938475287
0.0560902287505664
0.0987142288093022
0.0637146691745108
0.0939343196131381
0.0673637266461287
0.0807859114022374
0.080246887637904
0.0743130517377507
0.0825902924092852
0.0726912154637547
0.0860651822409776
0.0714595353966159
0.0825985299812017
0.078286966243603
0.0748080560044342
0.0788473543351043
0.0754154371674813
0.0812869388750791
0.0743491912640651
0.0787098386457668
0.0761230284607511
0.0803306456807658
0.0743255040535008
0.0747631130303203
0.0751331418371347
0.0744822348158379
0.0729769466002596
0.0786551025951756
0.0733570238839282
0.0766700768784776
0.0736159693923902
0.075209470538545
0.0733549056228928
0.0771753061148929
0.0724719491418601
0.0757620303602412
0.0752080974025751
0.0757188776758933
0.0700075428028866
0.0760773059091232
0.0745237033408957
0.0765073675004927
0.0739588511673934
0.0784390470033688
0.0745179989686449
0.0778012029803137
0.0747332443491848
0.0757817474322791
0.0731476491904291
0.0740297816613108
0.071967406893099
0.0779970256719195
0.0747007500681567
0.0776587617392391
0.0752788119477671
0.0792949946513784
0.0725391532124514
0.0772426290690222
0.0737291040251717
0.0786760184815
0.0742878886898818
0.0775163853142464
0.0767749096296708
0.078344389971889
0.0749086752138441
0.0786502053521661
0.0752831774222712
0.0785552290443733
0.0763617090921768
0.0784232749452563
0.0740963560907515
0.0731285907061545
0.0745011010213771
0.0776943706293637
0.0754859404568165
0.0783707523262783
0.0748818879044449
0.078435503004658
0.076505879990237
0.0784202862602274
0.0751883775528262
0.07783424331555
0.074046854635637
0.0769571218802182
0.0775318468429847
0.0790205370573811
0.0740342711629381
0.0782028751720829
0.0779154468415664
0.0785476522408262
0.0741353404078527
0.0805053318034317
0.0755919425290027
0.0774331785367414
0.0774449449365798
0.0788295746158307
0.0744748627055273
0.0802770022911711
0.0766846331480973
0.0785863042409129
0.0762803259121533
0.0786516485836186
0.0781691500043016
0.0824323643652947
0.0758467034127422
0.079633039298118
0.0781774989238832
0.0793649340908021
0.0781235170031854
0.08044836706356
0.0780379515419949
0.0794616392559645
0.0774886069531704
0.0797228046022817
0.078277076072677
0.0808498704074675
0.0777423325203094
0.0821679330783763
0.0812685564219637
0.081160713502956
0.0788634336632026
0.0813043468295168
0.080701897508747
0.0851167073995499
0.0810794156738629
0.0831217179055497
0.0805179786416672
0.0856934200238382
0.0805957624377091
0.0830701554380667
0.0820214250955919
0.0839593382812531
0.0805488286651107
0.0845019526396813
0.0829083473700575
0.0839874097642399
0.0814343868260309
0.0849494409849851
0.0828644895616411
0.0849323066635338
0.0802139290369051
0.0838108190507106
0.0809235579739081
0.0824528941967126
0.0811152680198205
0.0847151800372628
0.0827497101899749
0.0860386557761728
0.082188036873472
0.0839197944320615
0.0825458108081078
0.0855326552227678
0.082660654720908
0.0854813401263408
0.0825668765381623
0.0851993140961262
0.0822481314167459
0.0867268809407535
0.0842626529707196
0.0854421334527678
0.0849532333631762
0.086972895878273
0.0851971447911331
0.0882598636986374
0.0870076414401598
0.0872158445131093
0.083807510037852
0.0869026287247395
0.0866792224187408
0.0886745534766356
0.0846093574376913
0.0869596498050748
0.0863282099663429
0.0878609578069913
0.0865369535988377
0.0880624020259691
0.0867493815230591
0.0890655537574269
0.08619404524736
0.087486660798489
0.0852418193747486
0.0878848897526151
0.0881665764137251
0.0881602447098802
0.0883868867988134
0.0923242679072903
0.0869063760342183
0.0872822068303322
0.0846606113667476
0.0873260917136846
0.0865045084464452
0.0890719246633263
0.086726141032085
0.087278765083283
0.0855418704058268
0.0873656085963921
0.0859112338632072
0.0868934494267694
0.083924982245932
0.0871878440786864
0.0851027565805098
0.0859905191338177
0.0823065843374445
0.0850591609321658
0.0824582681847241
0.0865828884384751
0.0826762323517994
0.0842955042962733
0.0813334349764154
0.0846751735722875
0.081590584466702
0.0824512865826771
0.082590736573305
0.08471877865468
0.0830328857215414
0.0868165746263762
0.0824144634155355
0.0827200719217674
0.0828911481604281
0.0861151823540598
0.0809038456024395
0.0854694074485815
0.0831659927748692
0.0869027069380855
0.079946715301115
0.0840684181938886
0.0798886139739372
0.0819090130646993
0.0812426836808335
0.0832437213506424
0.0821627044918039
0.0833042690406925
0.0790964339450402
0.0847529408650607
0.0811974425842091
0.0840463203447983
0.0819913621718069
0.0837990558042146
0.0808459990669337
0.083979090819608
0.0829328119709968
0.0825509664112789
0.0804018454959432
0.0811776970828362
0.0792234670129191
0.084741373106773
0.0819255168937228
0.0832184213676375
0.0795365930770951
0.0827235736817558
0.0817266871921393
0.0809298009958096
0.0776417188036572
0.0830674947398689
0.0785150296677055
0.0797256419535168
0.0790229003632908
0.0839494707942348
0.0786804646066869
0.0790157099542819
0.0812363688697922
0.0815838124939545
0.0799318795540754
0.0801817268406561
0.0784523415523952
0.0824322923119481
0.0774512881429546
0.0833353442723733
0.07777182669395
0.081441059057184
0.0802732726172821
0.0799615577177975
0.0788135224491109
0.0827745508357826
0.0783341660679318
0.0806971440322656
0.0777788660097209
0.0781568309137874
0.0769235145858807
0.0797556945568
0.0759791592953796
0.0790126373780762
0.0775862883192122
0.0802285265824465
0.0768397797246839
0.0810882951641252
0.0765717544395243
0.0787588648254241
0.0775146901848358
0.0788751187010876
0.0768017946389994
0.0772367530672674
0.0770413233356215
0.0785246399389915
0.0762233828688293
0.0777891819282289
0.0751437332890611
0.0799822047867503
0.0780447603437099
0.0810008313731079
0.0734314420119472
0.0743077104071489
0.073206681220332
0.0804043514147546
0.0740976658205988
0.0766302294699623
0.0756260422751331
0.0782928879940713
0.0751074991901902
0.0758914163378592
0.0747128392018267
0.0750844420770748
0.072302130350191
0.0763418061170509
0.071659896036237
0.0740037518640877
0.0727294855964998
0.073377205231994
0.0717324815101869
0.0724043907531736
0.0681700947994788
0.0722374166603675
0.0720676888397876
0.0714733184272578
0.0754983336329006
0.0710345981644634
0.0690005768993308
0.0701443388911177
0.0687912613982807
0.0698277652421431
0.0677627632717747
0.0690727713942745
0.0658188031208812
0.0694652009437316
0.0667964476630747
0.069773377288089
0.0665988134474323
0.0673435079141349
0.0639941205830391
0.0670014223937385
0.0668903975731574
0.0677366604844201
0.0655576529069396
0.0640098732414262
0.0648555787021178
0.0643998877329707
0.065756268502201
0.0623165889906554
0.0656322441206037
0.0648711394926259
0.0693461190104037
0.0734269060739476
0.0667428869707957
0.0668667659030394
0.0655111767093513
0.0681347235524713
0.064648197179524
0.065405402595673
0.0633704526825149
0.0688732190093537
0.0625984757180494
0.0660460873855714
0.0627407715760646
0.0659202005750644
0.0626472701085797
0.0658470447982678
0.0617265180061525
0.0643215718086887
0.0624874221438694
0.0648639241658609
0.0600900828765396
0.0635377334673455
0.0617483296440517
0.0637128193118818
0.0625005258322048
0.06342672730508
0.061761295494708
0.0729166156671987
0.0646986069937563
0.0681237317926767
0.0585688118977189
0.0657572670925939
0.0606548822842128
0.0642983165516095
0.0608682479224048
0.0626629691718007
0.059920209020537
0.062660370948256
0.0603925905498338
0.0621647126625563
0.058021791558821
0.06145705245218
0.0586476383327313
0.0614805133486857
0.057202835034489
0.0615403992541603
0.0581199533960026
0.0622149144519812
0.0559087243643009
0.0630209685056086
0.0582086590220936
0.0642700901895302
0.0548236914398067
0.0654514565662822
0.0777623520731007
0.0620037450349474
0.0601082185790688
0.0573490425263899
0.059012042744318
0.0586578094025464
0.0567000043163003
0.0594011139673713
0.057811803544695
0.0575824304074951
0.0578829755038448
0.0608196391429911
0.0582304794628553
0.0577352566089515
0.0582962445107947
0.0596760021688019
0.0580028659473709
0.059928996821127
0.0609661954153756
0.0564798130465581
0.0609790258583024
0.0697336332737269
0.06048549108445
0.0621988901137966
0.0592240823856395
0.0525674836807854
0.0788807621580127
0.0626227865623114
0.0592950673464426
0.0582158373126324
0.0594467577737015
0.0581050816657247
0.0588128643267212
0.0552504338594198
0.0625301709457918
0.0622900186920227
0.0554916445950626
0.0662205794298701
0.0602172773087562
0.0595694565603402
0.0560667409334337
0.0576409573715507
0.056798791931617
0.0576332512205766
0.0573349688229491
0.0579849632510002
0.0554286774709361
0.0525284075692472
0.0571131316095076
0.0552393684478279
0.0581872827512196
0.0634433528183551
0.0566510722635093
0.0569499870988236
0.0582151822433027
0.0550458557245561
0.0604054488091078
0.0745002686851359
0.0551749636586269
0.061542725896201
0.0526428859328134
0.0603330768005019
0.0499578087172952
0.0613097839857388
0.0534812634958712
0.0592928270256502
0.0552621106261118
0.0586908584856337
0.0556999838194405
0.0573389667205548
0.053340722525925
0.059144979604825
0.0528730749676732
0.0567731111626518
0.0570367908556568
0.0585458129284334
0.0620187499148787
0.0525958452540457
0.073234824630977
0.0783375329610083
0.0664755394919343
0.0681408700727712
0.0606809729164413
0.0588963838948102
0.0562651757466286
0.0565807899444163
0.0533957095484342
0.0620665163144341
0.0565853308901697
0.0608983436679539
0.055797300727637
0.0608427504286624
0.0530365318979305
0.0568922788279642
0.0535478009146466
0.0606156885817304
0.0537017169498469
0.0614971225830741
0.0526217294127359
0.0622592847298544
0.0494960225755672
0.0668994212070313
0.0583507753530324
0.0671172794483357
0.0408455298372147
0.0936235146233667
0.0732198224524825
0.0640212124552784
0.0622552404220596
0.0572671035511504
0.0578151341266162
0.0571590637450066
0.0569607400819285
0.0662243971769375
0.0565500906258443
0.0591382767620201
0.0565615060357054
0.0603010716198574
0.059532600684964
0.0538007993390375
0.0662769326432291
0.0906413850211354
0.0605498153893868
0.0700011137682716
0.0530293590503022
0.0655708257167734
0.0839502295772426
0.0618967241697919
0.0665194330990874
0.0608329642904528
0.0606672692048472
0.0618677722831738
0.0590790266617202
0.0607142053738141
0.0656555798034614
0.0651239963002349
0.0590865463763348
0.0627023992023078
0.0583279388497608
0.0659683066986294
0.0612105529366225
0.0703955759559037
0.0683074470909859
0.0603185249587829
0.0652157185293202
0.0646564689325851
0.0613111229288091
0.0615586409864454
0.0626409787141283
0.0627655754706602
0.0720229407089689
0.0759032999558654
0.0629487152688995
0.0763913479600893
0.0729839671517388
0.0597193916804366
0.0675591505268966
0.0690472658306561
0.0760584743287638
0.0547304269296601
0.0758639518086551
0.0939138439057223
0.0741121185207884
0.0848124096218132
0.0605288566228935
0.0733339955853397
0.0608984235419327
0.0720010993862686
0.0571596537853258
0.0864862934280749
0.0618430988022966
0.0760883794233214
0.0587268738363142
0.0824223939233223
0.0744797102353561
0.0771438722372014
0.0670526817063551
0.0694563571030637
0.0656213762799208
0.0823626063185855
0.0710690580332625
0.0653508297209569
0.0947434685615666
0.0945379515380652
0.0910600195876127
0.0795923474010252
0.0672876691462485
0.111504864284546
0.0717439473580013
0.0806520556098428
0.0653877587234468
0.0776662588540082
0.0669328556719161
0.0747455648232485
0.102698504466332
0.0839112366382247
0.0747337907872792
0.0819087603157446
0.0663972978111732
0.103179012104491
0.0860249014988716
0.0817813654730226
0.0737223168790276
0.0882914929446533
0.063800504886564
0.127707988820218
0.0908594188605121
0.100632723240569
0.104719148985376
0.0986666703979496
0.0956915992976136
0.0953617992545449
0.086722198010173
0.0983542250376919
0.103974876361805
0.097494491768835
0.0805773649793769
0.10829407235382
0.11904907988734
0.0923631045397535
0.104150441741909
0.0920741674039223
0.0898488519457146
0.126707310700102
0.148341997404675
0.12882094084029
0.105651218130079
0.10285690037718
0.127878834426886
0.106003643537254
0.10475417408781
0.10722507432374
0.10620616920381
0.108860671636574
0.105771151356155
0.121994433116746
0.107957133948991
0.117394765159448
0.110847939323611
0.119201008654697
0.132121200060808
0.170797611378157
0.155399825601961
0.126575733491812
0.164817117368698
0.140074781887729
0.133573012152776
0.127353205247434
0.127503305500757
0.141436085693495
0.130635666316377
0.13575289875285
0.127948482445304
0.164821968154635
0.147309050346463
0.153837188514321
0.165438264287278
0.146616241876553
0.153428287968817
0.144570895888643
0.323196379759687
0.178404055680824
0.185678767294763
0.168875589025004
0.187918164187126
0.244871612573358
0.188490499297066
0.182148017613192
0.188954627062318
0.185925386176257
0.198171834841579
0.211227100860837
0.215307889673802
0.226115927499432
0.218952541531552
0.21311581047766
0.242299306690089
0.289828168985245
0.290429059960695
0.266213277103208
0.249152309655751
0.270131828374431
0.277107414763089
0.260311760916761
0.277207925978321
0.269198592075429
0.283352971974616
0.339560833908062
0.297255606418316
0.304731139229579
0.301379362353667
0.343071614765947
0.3007718325902
0.377467564688732
0.353166137034323
0.345289723468167
0.337816673271854
0.353337197413703
0.351520555017266
0.350076468221161
0.394387398708181
0.387875889144497
0.377693481740552
0.384936044390858
0.382529405349191
0.3855449582448
0.395778898566351
0.405594255510065
0.404740772993976
0.455487410762331
0.424951070118132
0.55650889952503
0.449316302757656
0.428219413153593
0.422158532399098
0.421814342132983
0.460653820260663
0.441209027296982
0.469829484668116
0.458779599990554
0.42235783651283
0.432447626655304
0.434958512675248
0.43504380262654
0.433029942057398
0.442485520573248
0.42193306095191
0.476444468013684
0.430269591124182
0.465866281781424
0.510165065998784
0.441235847050105
0.432282994384654
0.435636948329645
0.420501775916777
0.428236962561181
0.421384684691641
0.431847090404476
0.442312386343772
0.423108180225501
0.419804650699393
0.40749785845242
0.436102884074091
0.443452458825238
0.40898377369514
0.408678996635773
0.395858155458756
0.410549269626494
0.384695317788774
0.412708217708077
0.438585225849218
0.394989848549356
0.384006993228278
0.384171027821791
0.378077375536293
0.37739741775445
0.376074493552087
0.381853637314368
0.37068494686844
0.370182850140747
0.367781770365096
0.362083686538031
0.359510766584233
0.357602579281182
0.36596691918565
0.366607230010538
0.357956155770696
0.357456293409307
0.354205942540286
0.355713753004767
0.350285105964287
0.360109637142055
0.348140487900569
0.362914590838248
0.356202375009187
0.351238290092229
0.354265889287459
0.348936488709365
0.346952818077577
0.350479884855246
0.351611517909902
0.351522761880492
0.343514681657363
0.3508671552023
0.342388911962616
0.346547126329259
0.343614354089129
0.343089751659158
0.341914815948219
0.341998771364504
0.340141763785977
0.351548537759107
0.325569592107869
0.38188340985969
0.362012476654399
0.339075310032942
0.335017851263344
0.326627352243421
0.323347410337322
0.31828879978801
0.363898754754978
0.348973335270586
0.323776786347364
0.321823954018668
0.30944031203567
0.323690742919956
0.324018362153106
0.305716154053367
0.309982202824608
0.293186744602935
0.347178403001955
0.376927679039606
0.348186821511471
0.380566854878737
0.317468484750856
0.295963780248759
0.296467113314
0.3299283802024
0.289178158096759
0.291163689923464
0.283523524920068
0.316354729672384
0.294574005140906
0.28481416887849
0.280209307486523
0.272964010044306
0.294894692421242
0.302725773118753
0.277576072446149
0.299005347386828
0.316160133617511
0.285879495411937
0.307215887300939
0.331207041482984
0.293888872630415
0.259269932701469
0.265053115562991
0.26018044282302
0.267993333257522
0.310149517352568
0.258435214738187
0.266757515595549
0.247031170604163
0.24357368559192
0.24610004429603
0.26703227507351
0.25519894712158
0.248923793582428
0.277693959652729
0.237529549680044
0.246813818386684
0.256198069927153
0.274973907228361
0.283778969891333
0.244516738106285
0.228972114534904
0.258672217824909
0.267863731811146
0.239538746723137
0.247944557019743
0.220582352893775
0.229650949336522
0.245283818188647
0.221206510397974
0.232290443402131
0.238399459932292
0.236727276332393
0.272320384812383
0.276583082552179
0.274851428832818
0.229295536946712
0.212806178961277
0.218522599024359
0.217192470522953
0.216308910567821
0.211002567880047
0.23457051072007
0.224807790420027
0.213899840025524
0.260103490750403
0.226898770548945
0.21931256591073
0.222858574070958
0.220430387607582
0.232426056724729
0.254967041845052
0.262651837795392
0.244184096574756
0.243438996084096
0.258588531946669
0.240486647485161
0.246555774725516
0.245857385269261
0.254086531019051
0.250501197193573
0.267411939325887
0.263804099160945
0.267159860575495
0.272420143760738
0.2783660375022
0.29613771452678
0.317981712547607
0.289001548679254
0.318626549531382
0.329506196403257
0.361224410810622
0.334100120479876
0.322866170360031
0.330932860540079
0.331338441300051
0.340587934976755
0.341341305123761
0.354949469821865
0.385684041853091
0.355621996032904
0.362055751617308
0.36264057652928
0.369200776449334
0.374037248559407
0.402410250332294
0.400930948252903
0.431262829497831
0.433775555344983
0.409014780668569
0.400118401395358
0.394394254816066
0.407622923381844
0.403531846018153
0.3983245087474
0.401852000269338
0.401820546480597
0.429312766049037
0.406539562851533
0.406070595422792
0.408610538276829
0.417436100319045
0.417734070627086
0.41798899005859
0.420181221090945
0.422659042077065
0.427601127924124
0.429037134281809
0.434010552743586
0.490275184313948
0.454602469133605
0.446362309184869
0.447788343988862
0.453854347478893
0.457649148422425
0.450734665269484
0.465716149199314
0.471918939350317
0.464559758750349
0.470821580246341
0.4710643373786
0.472884874862265
0.485570968967324
0.506502502252181
0.479298002401215
0.492142918099077
0.482151301111749
0.506351997947899
0.549936673071336
0.515815150213741
0.518508549163199
0.511137863966989
0.501301226263556
0.505616199643379
0.504797868725427
0.509586270534789
0.513434108774616
0.510823289077865
0.514740986460834
0.505422926198896
0.50911936807101
0.508876207454847
0.507933852539867
0.523694070681637
0.510415970236299
0.500826526078224
0.503672695663491
0.504409859031236
0.50163090006765
0.524915945836686
0.523361540127484
0.505710368923055
0.507626129011982
0.509621880909916
0.519950797491428
0.522128541334397
0.50112284815593
0.501952808982619
0.50124105156391
0.504631596418655
0.502229602927504
0.513830250032767
0.536081217449987
0.525016704560058
0.511900870579399
0.512535279415806
0.512876021389677
0.518738210907984
0.524688751823368
0.52538230916925
0.530935263030586
0.531597155302815
0.531179880131408
0.532903669378382
0.536502311997566
0.542286925342912
0.541733260629988
0.550903973048413
0.538673963803108
0.538323051669553
0.532467041070342
0.530808321103864
0.542131992158531
0.528504017859314
0.524365865278321
0.521524447185358
0.518310393593729
0.517635301595577
0.53362495024004
0.520207159995931
0.514680547525641
0.509781235899114
0.494140215228658
0.505270152457147
0.489361125783232
0.484064852462986
0.486806778243355
0.490154811088556
0.477665636928084
0.482793910503621
0.478056939449056
0.475495474989689
0.476305871936798
0.473532907770536
0.471950314059144
0.476848844119912
0.468847592424806
0.467543348107029
0.46658558065736
0.469064182378418
0.469845946548528
0.467791492304128
0.477917558133367
0.48459047356519
0.482444317696385
0.472479850178964
0.471710447916485
0.472044046761773
0.464733990900262
0.469314064302095
0.467888566079565
0.467339078356724
0.462179855516496
0.466697323340749
0.464790847952412
0.465781217890425
0.46189725560177
0.463097798379939
0.464233671246298
0.456804110185662
0.457455070851477
0.458418417950047
0.456728492561053
0.453000402350122
0.459195842768752
0.460967538362224
0.456962954308832
0.456977807505826
0.453293527516135
0.450687444200917
0.454410303396421
0.451952317161371
0.453021294643377
0.455595841320432
0.448193568030211
0.448940943541647
0.449621260509179
0.449709976329497
0.448763562880849
0.447456620300585
0.451199800640814
0.445727912674669
0.440586845536676
0.442002454694111
0.438777715315692
0.438969937566218
0.431757027837482
0.432591040093624
0.429619198684737
0.424806495001618
0.420723563102721
0.418057854668692
0.41198104587605
0.40934876196748
0.40690684536606
0.409575594543864
0.407137820751383
0.399259654984139
0.39627354270915
0.400663673030101
0.397068992945697
0.395731986903873
0.394901225129403
0.392870803500526
0.39073726923218
0.390490247149783
0.39189313113634
0.388070521084264
0.389696419604367
0.389241518677572
0.393431634379379
0.393195384263154
0.389790259523433
0.39193568936544
0.393033432220275
0.396457460700521
0.396915046413394
0.399017585837343
0.399865077706606
0.400593905905832
0.403037010203785
0.406469522329903
0.405539698153069
0.408053307404618
0.40694906741869
0.409401911096809
0.411249394162413
0.410790315907325
0.413599102992901
0.414689820829621
0.41090519550102
0.413689211299635
0.414441370099712
0.416842369229662
0.410776705059713
0.41008143027661
0.409670817808528
0.411002701839377
0.407866248010317
0.407703427755974
0.40531142270956
0.40320185378609
0.404598445235401
0.403411837330059
0.402789275944363
0.400943296897101
0.396627020131915
0.398528771728252
0.395280308452279
0.394101442070811
0.394697494169759
0.392691045270292
0.390366428671073
0.391186070212328
0.388120954011542
0.38818377110588
0.389768471721314
0.385492109985276
0.38156786197667
0.380880262250253
0.377188724004507
0.378075091167402
0.376088276769824
0.374494073635123
0.37329378792409
0.371577268793856
0.369309632531977
0.368090858191375
0.368260966470316
0.368907373950972
0.365742553567374
0.36249591421667
0.362679470360101
0.358506526347034
0.356445572844623
0.352377516801745
0.352758552088422
0.350358332211545
0.344884423129043
0.344640596420784
0.341364687713203
0.340742586814048
0.337336896544148
0.336122072160914
0.333935519100628
0.33304604659889
0.332613853873831
0.332517325164078
0.33256410354854
0.333355000624597
0.328907456863261
0.331114672167606
0.330062817812102
0.327318775771427
0.325131031561334
0.323586902555105
0.319647515395572
0.319095845078544
0.317275070637805
0.312331347279787
0.307598802111018
0.303535351456135
0.297171549075521
0.295560615293796
0.290890459918802
0.285621802392486
0.285205156629122
0.284960869380789
0.28286466349588
0.280743807810268
0.284220895090975
0.287078605799544
0.290486731891732
0.293793931913053
0.299818796468251
0.310557644742729
0.318079013075987
0.327654213086382
0.338648892509512
0.350176949045499
0.362318556884044
0.376369160424406
0.391610084676882
0.406404082588258
0.416849116582689
0.432558761119819
0.446476792387551
0.461278724540679
0.475871304824684
0.491448591290292
0.506194026956812
0.52094362481396
0.539882430947825
0.555702849878615
0.569186636919292
0.583015995415573
0.596433862060652
0.608531757783221
0.623656484285856
0.637351810000436
0.648280139931083
0.657921615492097
0.668595144330845
0.680296064964064
0.687276848776296
0.693945139118988
0.694251589339081
0.696279800384453
0.697833335150878
0.697356558933789
0.699153348090108
0.698627666447307
0.704048886648504
0.700296271061692
0.693991979722525
0.694495926511225
0.695177411166854
0.692354492737407
0.689166739106332
0.692404662770175
0.691027056726306
0.694405085195589
0.694540502164519
0.693633255056967
0.699710061841856
0.705784499660406
0.706819588381414
0.709386132956863
0.722749272017496
0.724556161079618
0.731053250889914
0.740219703158872
0.74236634440595
0.752995972409435
0.768284197511233
0.777014513004295
0.784454497943358
0.799048529841741
0.808339827467821
0.810320876242581
0.813897305419555
0.823363546437616
0.830721826973951
0.834795390808868
0.843849430801447
0.851732761811821
0.847448992546883
0.837648470190121
0.835433838052084
0.836466791283651
0.834262829842222
0.833052073380489
0.830396656414721
0.828460224094827
0.831327766717712
0.836536876322448
0.846403979573733
0.84364706855075
0.854176309621057
0.864944010874945
0.874521148894394
0.88830072945027
0.891491696393643
0.910016628413186
0.91994185017645
0.927789733676791
0.933407853092214
0.947745244030304
0.972607593190695
0.97194923438128
0.97911854174963
0.998779873075027
1.01650795954557
1.02876873869373
1.04692463328269
1.05637704369281
1.07312989852172
1.08882028631992
1.11324756941805
1.13909062066336
1.15116604515847
1.1922315401664
1.21587374073285
1.20919766255796
1.23210843815645
1.23569018811481
1.26494451137872
1.29465962455931
1.31204911045155
1.30469566275481
1.32356547631334
1.32231545852366
1.32730815525388
1.35473900268595
1.32987230172576
1.33450747066636
1.35254253754101
1.34102253742566
1.33483624841901
1.34992977033523
1.37732050310231
1.35414325944805
1.33605653974202
1.3547164504043
1.34461430372408
1.30932710223508
1.32073668197047
1.33411251131072
1.33115885211553
1.37916619213275
1.38400256564207
1.37456245737865
1.39934166391438
1.4195746786934
1.46183996554784
1.43178561415798
1.40945887474467
1.45220950519639
1.4823516464985
1.47928049282292
1.52037706084243
1.53024053505922
1.54289646968538
1.576707984638
1.568063566907
1.5741477901273
1.60111197292021
1.64827006083619
1.66979479045975
1.66557958864767
1.61980232985557
1.61795442726415
1.69313953521559
1.7520313325515
1.7253715007335
1.67899498073136
1.70400428409733
1.71854906296499
1.72217580062031
1.72806274762068
1.80932966335487
1.83005509800014
1.83844292892175
1.81129545008546
1.79118682469013
1.75821738242255
1.73487926830844
1.82003661948272
1.89466093854741
1.87819222989896
1.78575183579327
1.77902685389514
1.84911918656915
1.7832160083906
1.70384476231686
1.72402253881438
1.67267520948503
1.64332402662053
1.66964424119503
1.60485863667392
1.52993695402194
1.46534012935949
1.43728793193121
1.4586274538976
1.44412484460926
1.39695690863922
1.36907520853572
1.36599398097288
1.35714392680089
1.30087900649387
1.27494265857511
1.26446034321591
1.26107548124694
1.26846529254161
1.217067632965
1.21776522585679
1.22664515878137
1.21746724773333
1.18869768623052
1.15571373882471
1.14229634059963
1.11360505826689
1.10815643434431
1.07570688645496
1.02669419219913
1.00032946247697
0.967289137155336
0.917823143739883
0.890286550963392
0.854157581977255
0.81138071104222
0.776474086338406
0.746160038631431
0.718592334151926
0.676453768372257
0.644942858651059
0.624796796921441
0.595622515997113
0.567579385371221
0.538927861679306
0.520282433441089
0.504599127735975
0.480615359407658
0.469725381061265
0.455818965008633
0.438953646345719
0.426969247937617
0.414322019512741
0.411964199008334
0.404418223095733
0.399098834725291
0.39640486258559
0.387151410951296
0.382785538202905
0.378217983209215
0.377574261993037
0.375447053236355
0.374621017190193
0.37897673606974
0.377959258995619
0.382203277116285
0.383382522940636
0.385398256949527
0.389511097869412
0.389046756707628
0.390070284756739
0.390923149034264
0.394235079751683
0.392627500992798
0.39584962318322
0.39475840114079
0.393933182233527
0.394524678124957
0.389427668334003
0.386106758031373
0.389843729120379
0.387780035666052
0.384909648638403
0.383245014256195
0.38663585331873
0.383984654660597
0.383324466081458
0.381735914220154
0.390520232576263
0.390386832227342
0.386284728186538
0.390764645960884
0.398321727024844
0.400537382379114
0.402719606157096
0.406521565042827
0.40392914773651
0.406002987449869
0.410662850032921
0.399535678500584
0.402498733827683
0.407440781742089
0.406128675280492
0.405808834355366
0.410805751350425
0.415062048712474
0.415165735544877
0.410125894525048
0.405093812926104
0.409863148507174
0.411806027498918
0.408522055628831
0.416627611628224
0.417831222872214
0.421170257920445
0.425325243456269
0.432295511042903
0.445520718778047
0.450896682229955
0.457157545302389
0.468208753167812
0.47529564315189
0.485836881467051
0.504107368327277
0.500120266601933
0.516456878827889
0.520070651246866
0.522660511787509
0.527609658754291
0.51809967491738
0.524237744532302
0.509651037558904
0.497543018993028
0.500711771878608
0.486928886666464
0.479808738857276
0.481901034233768
0.466207669490461
0.469310941023398
0.471077646320084
0.46972576949008
0.476533400463425
0.471324082390183
0.469715230593037
0.468891583384825
0.471542144659657
0.472041613372096
0.472548237966824
0.471835609065082
0.473968676344344
0.46820142562664
0.466345827558305
0.454691663142325
0.44546874990418
0.447317970390805
0.448541219027272
0.448621382544226
0.440641295866233
0.448565871479598
0.447793121701497
0.437942852609368
0.435209316739175
0.442303182857542
0.433096841059271
0.435159205620508
0.442052832742696
0.438681483893487
0.433305891347302
0.44714474681237
0.440589720525812
0.431830327947411
0.426136502079816
0.431368594613621
0.423068292113926
0.427897074306889
0.430944084162477
0.418749680031423
0.423896299816024
0.422587816887985
0.417501221501329
0.416812418296479
0.423066706277831
0.414605085761881
0.406111320408873
0.410634793669391
0.413393709426532
0.417250405564242
0.408610419746955
0.410007540664165
0.4011517889592
0.393350763098218
0.400447148742507
0.40311714499445
0.399778763617055
0.401695194510639
0.393765239811686
0.397345382677041
0.388925765330626
0.407820567048793
0.403905146422248
0.389929796907297
0.392439510879523
0.38683835333896
0.407205621269011
0.397424655049195
0.389476640698451
0.402608980580868
0.402961663749571
0.414586886465024
0.414892038391653
0.40379561844284
0.414009178536901
0.415859599478678
0.418691834669865
0.421867693341909
0.424441733282658
0.439497496982554
0.426981988662522
0.421330430275865
0.440783549867957
0.438065482803667
0.446794011801398
0.441106642837491
0.455646331932296
0.459045338499558
0.452232642333673
0.469849017331493
0.477060237703775
0.489841394040813
0.479124656226429
0.503228944349252
0.513859805909114
0.516436419405276
0.550011830757043
0.550224587997748
0.559118595289128
0.574995438567896
0.577013455539526
0.604252033094106
0.59756602186547
0.630856076507154
0.651523761885951
0.645112757740589
0.625471099845483
0.650225088174835
0.665307983985289
0.660416132034455
0.634980775957579
0.643871109510275
0.658724160687348
0.676264944771684
0.628834589798148
0.673797218602277
0.68103908356374
0.627405747824311
0.630708008525698
0.657863495581303
0.650098893522601
0.652991468195985
0.624875439150248
0.659887810181882
0.649781070450729
0.629144005177729
0.643820133319241
0.655198547504501
0.649991843847028
0.678036718502313
0.660331341898491
0.650859504971237
0.647824652937465
0.618668963061667
0.59501107972899
0.616069668605477
0.611835738404213
0.624736791608847
0.608375514846374
0.628480998154057
0.634301079258724
0.639371504551337
0.640456866909986
0.627201920872189
0.629809660416677
0.594110840481167
0.629726253478524
0.610861099744226
0.573261451095096
0.630128434972254
0.666114606968063
0.606742510816061
0.593988165403757
0.62831369415766
0.635158537802893
0.634922051492442
0.626000493037009
0.613467309213147
0.574678335671798
0.603490073440318
0.616484082011354
0.669972790661097
0.652253243317276
0.673872760823229
0.636768396158354
0.638595268170515
0.635577771679328
0.652284715738991
0.624034156777399
0.653759513073672
0.664730242256873
0.681877279831242
0.63904633019778
0.696275351696023
0.663528687755697
0.672267888028328
0.710247068054584
0.732722641666208
0.68224504249506
0.714092724470356
0.707128405775787
0.740862335531935
0.71829648196089
0.7638731095404
0.739683417540473
0.82705179529592
0.920241818370058
0.853124153398814
0.703231223254298
0.784074591162036
0.749674352225132
0.825622300743429
0.935387564043036
0.907643578070674
0.831191674090805
0.833426212975392
0.834729241340298
0.88290409903775
0.750363788699613
0.815758040457596
0.776761242885089
0.772269250612241
0.733609536561053
0.801611487216763
0.720413189831534
0.840485819312821
0.822190364722188
0.84457487892963
0.794719212951591
0.765180958596466
0.782425601550753
0.847658052877524
0.731716455502345
0.68275409671633
0.637353195338972
0.836322804840001
0.76755591448636
0.834815134871432
0.840099687062739
1.03646884677448
0.956278070044021
0.81721499512257
0.696747877936919
0.657811271647696
0.630707369580127
0.77250555732202
0.782963231239492
0.942992517067093
0.933782520177082
0.990395111232145
0.950217825804533
1.37552531640469
1.42827627909355
0.743439867103421
0.85413038090381
0.705167971436245
0.629344288179989
5
0.88014483498816
0.948294742358884
0.698464704265677
0.72422651617812
0.762184501790771
1.0258483439763
0.566194004027141
0.717686612985077
0.907986158932606
1.88362131503971
0.683572760880899
0.693615108328161
0.685842736402774
1.35040207380855
