3596
4000.36533379555
650.420452594757
1
2
2
0.0910637969881956
0.0684019690575875
0.0972981716519443
0.0735273399896058
0.0891793103796274
0.0749651148309442
0.0976222236941492
0.0746496237740684
0.0951264304334623
0.0809141202607934
0.0943405949499655
0.0764341389808551
0.0887707459320539
0.0722559420232171
0.0877692275684671
0.0690104780721531
0.083019640093657
0.0636290675561158
0.087397020814451
0.0707515694111122
0.0886775703522146
0.0814208565822451
0.0890326143819622
0.0776755548605454
0.0871420357173976
0.0686262266286966
0.0893128637249634
0.0733145362235822
0.0776396909965935
0.0737070586635963
0.0852706069278796
0.075746340421584
0.0955340617798719
0.077030619122749
0.0813113454028575
0.0693396899363052
0.0830139627032154
0.063236641797828
0.0831672298172842
0.0788666667227647
0.0939702016230339
0.075243696825086
0.0874763934547899
0.0656880872132838
0.0925130959140232
0.0737698442597114
0.0940727613802024
0.0724890176664683
0.0885794133070689
0.0788304545368874
0.0876463993581402
0.0782027892503797
0.101157197409367
0.0775773155239972
0.0849509953420427
0.0937233508038052
0.0879836252322054
0.0755492913090769
0.0942581943300265
0.0694701914785868
0.101822168421648
0.0901336867042399
0.0830597292461342
0.0763300878351681
0.0836797729060009
0.07830692693069
0.0859268803331831
0.0738700782188907
0.083886825987527
0.0807464157728286
0.075922349186528
0.0943245446585904
0.0973055371924854
0.0707363576596647
0.0921960163092271
0.0788120618582765
0.0793668490059643
0.0741675688938972
0.0741048171280809
0.0846953054608306
0.086375459439573
0.0773484419619896
0.0835105966565776
0.0662328791879183
0.0874981304020322
0.0888239319234354
0.0759587760542046
0.0831443675262484
0.101347384756853
0.0813304261570797
0.0789603157315229
0.074082375838819
0.0731317191822338
0.0752186110200113
0.0739645099856493
0.0745168363011204
0.0797122885177061
0.0794199345374958
0.0759406301883759
0.0768939918090527
0.0839570631772207
0.0775120800350162
0.133426118178219
0.0613340967355999
0.143979111463495
0.0810692189877499
0.0840416597930417
0.110715522893481
0.0916055971453601
0.0839506314238561
0.0802258642585835
0.0823154328972481
0.0809920667655512
0.0780254720356563
0.064596105127779
0.0975707657821513
0.110435763622601
0.0828773993588359
0.084366072764826
0.0760959474155279
0.055815761694134
0.0893759800988062
0.118293377391061
0.0740770485848996
0.0916539883399298
0.0788941204720806
0.0718773231172056
0.111923309904011
0.11840128086119
0.0794563616275568
0.0752024365487386
0.0734154966412321
0.0756610393013751
0.0593730480429413
0.123819474586642
0.0730770848008424
0.0934915783444379
0.0529284234607503
0.102484158733922
0.118102429620919
0.0976150363959014
0.0758924724864254
0.0660868855478046
0.0708165243673778
0.113958547926258
0.0853940694871101
0.0799130043781391
0.0930755846803205
0.0920581898812952
0.0751552544306667
0.0777975231655898
0.0643827723659909
0.0904756989407178
0.0832310760935878
0.0288102168945443
0.111904785076797
0.140516848255362
0.0882383062218575
0.149058038907147
0.0638315091509552
0.103556232509855
0.0591381289901284
0.0960403270595103
0.0607513012862403
0.0906768218264239
0.0517201504937313
0.0885763772426887
0.0865025953060049
0.0907842148635919
0.0772352105356194
0.112479056755198
0.0800460308354305
0.0751001492351437
0.139575868756327
0.0935730234764493
0.0625039959874031
0.113238798772005
0.0893449020573635
0.0764562100129789
0.0794435211264637
0.114190512686161
0.0621410523337326
0.0928161504271285
0.0654957447612643
0.0867235644563972
0.0865482676573312
0.0837984024344267
0.0718612198256336
0.0861293086449802
0.0487036136677974
0.0912345668368412
0.111003021344811
0.107981175534172
0.0700483308423906
0.0960466367412325
0.0378591247843968
0.130110995051569
0.0878375977721582
0.0918670130381356
0.070691324143113
0.0740519334544553
0.0647692887862494
0.0783010598692839
0.0767401146481285
0.0733772874369063
0.038635924287765
0.131227826571786
0.0852852201241379
0.0918944369153497
0.0614064194195126
0.0914325759871361
0.0468380448877301
0.143353464040535
0.0994496893734552
0.0836176337831338
0.0704124505775577
0.070167801070293
0.0751725331530849
0.09539104508805
0.0667473687901159
0.0828326808976737
0.0677091510884029
0.0788406895394591
0.0648717864227659
0.0744725462399224
0.0696580278689534
0.0813251638423615
0.0691680676635351
0.0832492962038374
0.0690394881713872
0.0901327786944541
0.0676485163703743
0.0837734059216292
0.0724957639369622
0.0725303905506996
0.080735586654025
0.103894868634633
0.0727023025987604
0.0857684918435865
0.0700888446989706
0.0836971686010199
0.0680319265331335
0.0779373387832738
0.0725833232979504
0.0779815602212839
0.0581036124964494
0.129319198301525
0.0668270606694608
0.0987630770903137
0.0554025637156651
0.112764043935489
0.0760595299098786
0.0902814418242711
0.0686277848830482
0.0870717034632552
0.058872509693391
0.0860581934480906
0.105557309899981
0.0982562902555898
0.0614805808125322
0.115005463906464
0.0805578033459336
0.0803199349865576
0.064431563315905
0.0620204230062286
0.161128057210808
0.0974859927429914
0.0522888821369805
0.157792702161153
0.0865723849967932
0.101775858811966
0.077273308576327
0.0560913046286042
0.177728162248823
0.145837423801349
0.0808734367625896
0.0882293919935307
0.0965696989965698
0.0864308590325732
0.0885065174755
0.0827100684583063
0.0839868992645187
0.112536185055225
0.0966607464195693
0.166403529615847
0.0577406603916256
0.128128483954881
0.100009234617668
0.106735131305077
0.0727547288556553
0.0925674328217178
0.0665622978397206
0.118615609189013
0.0872900230660797
0.110174908657388
0.0912991418009704
0.0833496574417474
0.11590346989232
0.0973463593592092
0.0802731881586434
0.0975492509488021
0.0977831739733565
0.0863645065764528
0.0861428292900546
0.0815292202237927
0.0968712133468066
0.0836818342741949
0.0722088768978204
0.153320660445452
0.0943617768882103
0.107622149231345
0.121196629489437
0.101652828208356
0.088487340478035
0.0988581475705489
0.0867406483558976
0.0919839058156086
0.0877171824252234
0.0818306606023868
0.121085842025079
0.101356953679944
0.0889661039389137
0.0937773222657682
0.0876969153333471
0.101396845739535
0.0931909405424379
0.0952710797205784
0.095146023112011
0.103035244878709
0.0795036812072497
0.116893999555879
0.13046029398408
0.0844434049587651
0.140794392443862
0.144922678717971
0.0971049327208528
0.118733772878994
0.0952448413060718
0.114960635417571
0.0971790708265829
0.114547527695193
0.0915585665189606
0.111587400326877
0.115757886869523
0.128514266751607
0.101929788326317
0.120327113743553
0.149609193462084
0.201315925604956
0.1241759884067
0.139220735071525
0.0944914821788118
0.170311721855196
0.136612275134321
0.166572465796497
0.157566372741639
0.128086067294512
0.134826774278325
0.129872521903798
0.141939724193592
0.13534507611026
0.144687169233663
0.143430949786295
0.148404923386587
0.154623289624471
0.15440104485307
0.1453189392259
0.148469764978432
0.205904415174167
0.166944670262992
0.167731486562956
0.165859616749174
0.154689329811338
0.201525066113176
0.181123784698037
0.221947378067211
0.21331762620707
0.192758032633476
0.232644553647289
0.170865189246687
0.197646661883693
0.173599314505246
0.208553453908236
0.192177797919413
0.213575342963627
0.189696212175894
0.205835981197359
0.189190603229861
0.227911955406594
0.199596928172091
0.227152873178871
0.208519676908745
0.248510250712455
0.219002052356731
0.253449041081178
0.217354422944798
0.264700786524819
0.263431027545639
0.307357452084003
0.238800835512727
0.266304949082256
0.241953571880705
0.256299338941436
0.242599794875938
0.272065339147036
0.269388012314524
0.2666385930788
0.302404088270187
0.30068197215631
0.287527781344026
0.31365176468695
0.264466113572317
0.321520472908752
0.290287465496026
0.32102544338158
0.32584563526878
0.321277213407493
0.279566481764945
0.335435325163035
0.328833140250793
0.328529295181641
0.33676969463469
0.332094433110712
0.326347268762456
0.33256275569204
0.333511911252088
0.35250909940499
0.355225774774793
0.364918221504038
0.355913254517808
0.377890636672677
0.351355498651424
0.371220235609532
0.381589126307989
0.383720783301997
0.369108040276298
0.401404161243848
0.369544261570285
0.403657865979779
0.367736820875994
0.409896607490852
0.432295915500923
0.440578776213856
0.412553815842282
0.422565714650635
0.401577144544329
0.416074432377344
0.414797746785339
0.43668329217139
0.425991137344358
0.456928960679361
0.439825239999148
0.469555152319094
0.440282517157343
0.45895920740808
0.43253645118643
0.483276635889498
0.459315541204723
0.476560906193815
0.480676457243547
0.495597173356293
0.472144925135363
0.539422294391956
0.509190368322897
0.530939380239012
0.512538618387231
0.542733867695908
0.49186351131849
0.534852552772506
0.504637032724276
0.519148199796429
0.505081482264374
0.545889013093363
0.534810195449364
0.564136111680671
0.533811051559213
0.564134231088559
0.550427431421661
0.571849040303314
0.556655388069024
0.621606300327365
0.582234276311543
0.627507297170639
0.567977233032653
0.613916923776001
0.602272994982467
0.609742581193854
0.609559887094969
0.631309430722089
0.597241887367692
0.641936627678307
0.634590375215871
0.655797935680079
0.605790962997813
0.634108585349448
0.630516744429878
0.661640551485856
0.633154058967172
0.68115564572701
0.644305400687763
0.676328637377444
0.665072416071678
0.696823229075319
0.678743825441588
0.718098564111182
0.685574236470242
0.735305312070913
0.68129505860824
0.735915387220613
0.679623294304414
0.746323263396334
0.704418794581349
0.74741237140609
0.718320191545928
0.763330060827036
0.72447184795229
0.759961223894833
0.703126085737715
0.813376885660044
0.723470825864644
0.758893290347201
0.744535204151906
0.796914647852664
0.740760308847786
0.852861663045065
0.795118206017587
0.842727595281025
0.73712055382916
0.824747458712226
0.794099198679851
0.8681084476301
0.77630085532863
0.885314218735565
0.789199450068164
0.882633306128517
0.810479987705288
0.897177660709575
0.829435568896485
0.875534312715898
0.847088307811405
0.94532382941719
0.861962565170491
0.911034438391536
0.86799037361651
0.901870409742325
0.824940716228785
0.871323583847797
0.871700741004739
0.955731233886758
0.821151552981296
0.938902533200818
0.936032800367317
0.914080190858945
0.888975979304466
1.00201176914309
0.914796104183214
0.981185800734059
0.917234695705638
1.02532644886337
0.963217827985028
1.02953681210166
0.887460593032709
0.970171941371667
0.992874894556441
1.02368466233558
0.959373591905986
0.985374024276565
0.902376734180774
0.995147532287709
0.937549797512116
1.05428435056509
0.930671204883607
1.02622140277582
0.985476595261217
1.08050485068257
0.966616835851705
1.04837754355497
1.00898070173249
1.04178688211664
0.992013197048741
1.06938321360592
1.02380594224193
1.1216747042173
0.986222300858541
1.07013065638905
1.05921916094241
1.04238355752964
1.00795603932136
1.14393709289088
1.04579073052139
1.1516277079898
1.03865043603672
1.13325644486551
1.12946118432678
1.19829995155102
1.10322768185768
1.12405029631898
1.09929992897385
1.22246810608161
1.1484288986573
1.15433351593012
1.14155913997587
1.06877528714217
1.09684067513197
1.17429230269063
1.10005268631182
1.24626291178249
1.19226513780413
1.31160761107938
1.08642185965385
1.23878950172298
1.21367070493804
1.23740329301414
1.13638572083727
1.2080681077073
1.12397647537459
1.22986808595916
1.19751861476588
1.35316415652355
1.1881079782824
1.30804520746789
1.17948766273561
1.27009232441212
1.20719653035121
1.3470548520037
1.2150722359336
1.39990322328973
1.2102577011547
1.27578204719308
1.14742755958874
1.37495178625795
1.16955153010804
1.23633440769893
1.21237522977445
1.33765186418419
1.27648335976527
1.26857172753996
1.21445278406695
1.46007857352255
1.14839769430718
1.30467034659824
1.21942055738159
1.39560298225477
1.20192081358302
1.40905820246402
1.18866484754012
1.35430358463027
1.27829863632094
1.36186627405051
1.29037264198771
1.36438705064208
1.33966568465153
1.46303618603075
1.37053387442212
1.36595491939158
1.25451283646685
1.43007887517903
1.30497135655782
1.48516067243033
1.33943757494348
1.36301213355492
1.35690450140887
1.42781795398296
1.34872269552436
1.32809552805446
1.33113984637267
1.41133786332888
1.37811958304323
1.47968770811207
1.39699697389983
1.60002255181107
1.43277608711924
1.48399392610358
1.38202943461838
1.36420799501749
1.31327884389689
1.46668395902555
1.52858901215182
1.48896782983821
1.40889073888869
1.46695671929913
1.33115881803535
1.42588746866621
1.36632070610928
1.49817149945521
1.39655878383885
1.4606440957649
1.40430076680004
1.39896467936439
1.33645125102434
1.55035952212375
1.37097999347959
1.40592011376431
1.41682960861509
1.56236037247197
1.28329276200363
1.46158315219774
1.38673211127243
1.57641467534531
1.46692880642295
1.43452623661262
1.42313762965265
1.58638896233764
1.42443831188657
1.5182341970116
1.42687693883347
1.53931368881891
1.50298080920239
1.4900816153137
1.37562773236627
1.46732463667679
1.46469731422769
1.60511535722849
1.43448369792751
1.49248083954117
1.4531187964425
1.53813976715141
1.50443307672611
1.68066417387016
1.38955014787422
1.45735682141064
1.37468412276448
1.43150395065187
1.53126606255541
1.58817116527857
1.5228515244993
1.62908590304578
1.4902558429882
1.76359434989551
1.36870722872997
1.72440058441102
1.51168092231721
1.58668009932107
1.46913300616172
1.40976838657422
1.50457743281866
1.62217980147305
1.48217723203907
1.51191730207695
1.43701434034614
1.54747866055337
1.37564704527804
1.54997036599526
1.49005526700212
1.61014362483632
1.41006835478144
1.63048425417911
1.5015475346671
1.55204237945559
1.492403909719
1.52458412587942
1.48852814370092
1.64131399887387
1.54990592880251
1.49008892358643
1.42723160723373
1.5598696686611
1.49361140846168
1.65259543073968
1.52344063646482
1.48909354704428
1.47269905423944
1.59552872696968
1.43137242483064
1.61838424006454
1.44134135387231
1.52583581376725
1.53694026824799
1.44905396882207
1.41037813296487
1.52039146474419
1.53261702220994
1.70019908407152
1.45219069550069
1.43315626212452
1.49071156720088
1.62298922606601
1.4350402243045
1.48898006114496
1.46106588573039
1.58256702358168
1.46238167521468
1.56556571040934
1.48528412838686
1.51125034876775
1.47503877199244
1.51290917715809
1.40674468851564
1.4747912637709
1.61841659851106
1.66707413813592
1.57319347099463
1.51064435498957
1.41135473794066
1.54491165237088
1.40875485097566
1.37510846298643
1.45025902628475
1.55877748097268
1.48242265346175
1.51251131921963
1.51284922867411
1.47056591757882
1.48249973805026
1.56151498232261
1.46685516960969
1.54403028084211
1.58523470687785
1.5676783500564
1.49201694330948
1.44184756058745
1.46753402581861
1.52922507270069
1.50273093355325
1.5027450944374
1.4078574301485
1.48135007652481
1.45490735545912
1.47894121551554
1.44073889391748
1.48023559538731
1.32775245750014
1.49562721795913
1.51783700385443
1.48535762749997
1.43666693636253
1.48221288505439
1.44422445974207
1.52841968723242
1.50372897435291
1.50381329106483
1.34986314247276
1.44917121985671
1.44355625895955
1.45010865108448
1.37895899986051
1.5143621329475
1.41000376914894
1.46216298568021
1.4672799473558
1.51289937611426
1.30762076260409
1.40290627800112
1.41043624900496
1.41427345831203
1.3889117339355
1.40088549954894
1.37376017955474
1.41875852248208
1.39999812147736
1.44881465029544
1.44497737595521
1.34561423044653
1.32400377274997
1.5372464373371
1.42156534181981
1.38125596151274
1.3904405120304
1.41976818805679
1.29982234149417
1.33051502706482
1.30172995042933
1.36263109625177
1.31185912042745
1.27112344289037
1.30087526540181
1.3833363950983
1.29475862950313
1.34315699853039
1.31873601889097
1.40205061104032
1.35282474237355
1.25841000928711
1.27570904009109
1.31038112607183
1.31697019176937
1.36384421909017
1.27621699989924
1.27658841576566
1.25153333394794
1.26704204970113
1.26810010055677
1.3119625573919
1.24247754644481
1.25349504044412
1.25114366324112
1.28267301160049
1.22086701154842
1.24469209821591
1.25636177849331
1.23334135455404
1.18790485834134
1.2393757976015
1.1861533197264
1.24310308916084
1.21576361318298
1.20751612257667
1.14610271935248
1.17543562425737
1.17482282701704
1.21235041404018
1.18114543074597
1.18020935605099
1.12309864627825
1.15842786309552
1.15810241958378
1.15878103416569
1.1220934794982
1.13767290402842
1.11505482536996
1.1289560852056
1.12726067205208
1.1688515589945
1.14328304409199
1.11615992861515
1.09496354691585
1.10445847240127
1.07051765708608
1.09486088673052
1.07643393837757
1.07576150532959
1.09707097965418
1.07787330074561
1.04876678057502
1.06095360755037
1.04509932977237
1.05279051742697
1.0445714045525
1.06354408655431
1.0330028929685
1.04222118643737
1.01431797866539
1.02098838034537
0.991714010061963
1.01012374651114
1.02024805732369
0.998189777140034
0.959852029627809
0.974861148167497
0.961591154982811
0.982354650423634
0.971217233387672
0.964329241936703
0.943748376282701
0.975368196775671
0.931270508787194
0.964459924118649
0.942352627418942
0.947045335674626
0.921899584147356
0.934383204939264
0.909425012900803
0.924048553172264
0.911832107289481
0.912309736613467
0.911202168531726
0.902018508101777
0.904233191457767
0.903990960703338
0.88168852470379
0.902668653071224
0.867458090928565
0.891927022495906
0.872843044931369
0.873533098945597
0.870972292375068
0.861444136110818
0.832502366625254
0.857089419194294
0.836371892558621
0.836257437756828
0.835764866088619
0.844646572352067
0.820227788883012
0.834421494509698
0.830464917208644
0.806364013554673
0.805112522942731
0.805201987141214
0.799962380509698
0.79647108224823
0.804559859095504
0.803954309307121
0.79293464733871
0.792973042840705
0.772886998309288
0.791841642441463
0.769181132313614
0.756294220447469
0.754241493208321
0.762276471747884
0.754088372473042
0.754640615358054
0.746590037354781
0.750327200007991
0.73076891763245
0.742721341457685
0.734854795013051
0.73385926281082
0.737326009257751
0.727840802818036
0.70900233933693
0.706709962696874
0.697388876174713
0.707575331375198
0.69796132533062
0.693909366482193
0.69387943010991
0.696787211313719
0.686360855643522
0.687441524052045
0.67021403339041
0.67689021593168
0.679708603143514
0.674124636789541
0.665329669805334
0.669272789965872
0.668829360849563
0.664793570733085
0.658345231474875
0.657903819204571
0.64638415277849
0.641182326490291
0.63126366916995
0.632204742467342
0.63485846375813
0.643378643035551
0.624044114307694
0.63094043050929
0.618210398062588
0.626655216413729
0.611228009568557
0.605183610943142
0.6048710611324
0.608169031213312
0.593030958869588
0.604430628773289
0.600591751133295
0.598126180843094
0.591734628134875
0.587895342627775
0.580147759395336
0.587650226885679
0.586585509843425
0.579554687851559
0.570405846945793
0.57250232951033
0.566504258400739
0.574452444733849
0.562305384473595
0.56659138366753
0.563600059955866
0.551424397312353
0.542318102193599
0.546847743287219
0.538043495339015
0.539880882601129
0.542507281472493
0.542741394778906
0.544099222477283
0.539805033387112
0.530588848957078
0.538880579579205
0.533732350516966
0.523830765191943
0.521731626757714
0.523529270700268
0.527637624594265
0.53604069787374
0.524818571558258
0.519811605916856
0.517294363166357
0.520349837007181
0.512387201094151
0.50907561856945
0.50457276733543
0.520784870579068
0.510793656512495
0.50688233594381
0.500295109422914
0.508589839363459
0.509071521520589
0.507253986764059
0.498315981176753
0.505961126173446
0.506078119530835
0.510018103466934
0.503241767734722
0.50988501858738
0.510241024463485
0.50533945388918
0.500325148637355
0.50400278676002
0.510088344438984
0.518742826658314
0.517286003586153
0.510483258283397
0.507919477500589
0.516616925255833
0.509529272030914
0.51949631915615
0.516113992753359
0.5183502503412
0.520740894682765
0.521527990289955
0.517847101697685
0.523843927719444
0.527621958619988
0.530456521266353
0.521273864289458
0.526568181325286
0.534323568746404
0.531334708659917
0.527979992163203
0.539892166619299
0.539996028850548
0.54547540196378
0.545341294913316
0.54443382056079
0.540983161982713
0.554453419051293
0.551000881814533
0.555605492147384
0.561555310676235
0.558183613639818
0.571035901615952
0.572154289867743
0.560998474675066
0.575095533469913
0.571851275806012
0.58035410087901
0.591685113894187
0.584504132670335
0.581527333650184
0.594436090699654
0.591146428546883
0.598856733208411
0.605661418116058
0.611414221078347
0.608377436953204
0.616856017450099
0.621441948319727
0.627226781060544
0.618585187307494
0.627282315084678
0.63132400248757
0.626523002818694
0.629266092895584
0.633630144219989
0.622459118733087
0.613032238239398
0.625634273434679
0.635117374496597
0.627423510198605
0.633566618670168
0.624100710570968
0.630171209651156
0.617389949563744
0.622525382166575
0.611530576054153
0.614939707329692
0.620040851012369
0.617432435951584
0.619114466450462
0.622964363478444
0.620996794010513
0.624805947750214
0.619109347634128
0.606965183842932
0.606998329606511
0.608788879813323
0.606454510110189
0.611384309990007
0.597460539548277
0.603816498626883
0.611993953693064
0.605317576869893
0.611203600532095
0.608063089750795
0.610209368861173
0.61135883020975
0.599701233460693
0.611939320073207
0.607187516956433
0.601194176842133
0.60201175166343
0.615617749507233
0.607248176587682
0.607880400533437
0.612157850684631
0.611344601645044
0.603032870603592
0.594066432863323
0.602686537977066
0.607535021493117
0.594973785756412
0.60344720959898
0.599554491333591
0.593464351436434
0.603735383333444
0.600829872108793
0.597656366280664
0.592290899602126
0.594011545932467
0.585995686800069
0.579710992754637
0.586062657270904
0.575938821096695
0.585680411084898
0.58019552758396
0.574417066401353
0.575291162861944
0.570101936562569
0.559769647552414
0.570280483595182
0.566857909896501
0.553331516578947
0.551527696639229
0.552944532162346
0.548411375287384
0.541166343664096
0.549550369981228
0.536788751082072
0.528181080731471
0.532291585955235
0.524851545706188
0.52507319414172
0.516461396844514
0.509462274445246
0.5139891335947
0.514477122753945
0.504156454674671
0.502479893026973
0.498709826001243
0.4968542773751
0.493926617182527
0.497653882956877
0.491199742434833
0.480398838124577
0.484289886668971
0.47960821150655
0.470238533386471
0.471985916896482
0.473806274163091
0.463056653499583
0.462185634197064
0.463606341477737
0.458507457852265
0.456430856292078
0.456918014546929
0.453951884028534
0.447431606659428
0.449836464197725
0.45336915135009
0.447761370611437
0.437688195363921
0.439363832481329
0.445672849062185
0.439047926531316
0.433777556176738
0.436514268077736
0.433719286431676
0.430157955652548
0.429386723337285
0.425848392885997
0.41841607646548
0.41400260043265
0.415490080415372
0.414358576993819
0.415025195828901
0.413782638595505
0.408101651222296
0.411807021355154
0.410604797480936
0.403324168430116
0.405454102740611
0.403136960558006
0.401576204525901
0.397584720476949
0.399933574501039
0.401239682856554
0.391179314454756
0.389587581040794
0.38898460815106
0.389373156715259
0.391519749807506
0.389325081660853
0.390746964311201
0.390533402898561
0.386172489883267
0.384377125578189
0.382616771348493
0.378075362719686
0.383623420104637
0.384093284340219
0.379434148448296
0.378308497120159
0.375334629922995
0.378565893460276
0.373298825736356
0.371013320114487
0.369828169696111
0.366334231648445
0.367999814299617
0.365972885123701
0.369423611638329
0.361986163913466
0.358781928922106
0.363453297477754
0.360986687157452
0.362694156312159
0.365006814806322
0.360801224360374
0.359448757585209
0.356942154107414
0.35880261693385
0.360325000128309
0.354145474205675
0.348541059003966
0.352221932126722
0.352018826034299
0.350968066262997
0.348806177714289
0.350090452640627
0.34974467522444
0.348916779953584
0.348462102908641
0.34757153053999
0.345800322452057
0.342237662271516
0.344557514024313
0.345804327642764
0.340227337321107
0.3437964155231
0.347744963844331
0.344286390132146
0.335243544573255
0.339799363959096
0.335286864233368
0.334858296780603
0.337672609324358
0.334435007031699
0.331809588198824
0.333658000061228
0.331873913070616
0.32896858974689
0.326580376838305
0.329293452803242
0.326902038681719
0.328140959162718
0.326860306238242
0.327200301313616
0.327326529453796
0.327941570744775
0.329439584393239
0.326287051578084
0.322683555467874
0.328886941235209
0.325626180695161
0.324251074883865
0.326195444320497
0.322886089117433
0.320868779808844
0.324501805345448
0.322459694622826
0.321396767615998
0.320814189891882
0.316430276091183
0.320171733369348
0.322275980919192
0.314162743288223
0.316813056038007
0.317686463253851
0.316568548069835
0.314217043557356
0.316745763226183
0.313190680420737
0.311298143355037
0.312037327996646
0.313416653745817
0.311952494752386
0.314471157372323
0.313001195205385
0.309674186406564
0.307782072373256
0.307668584114706
0.307696636362362
0.308774577496409
0.305602034955015
0.307594569038564
0.306888034851932
0.308677374871855
0.303605927503384
0.303774971611497
0.299577635707433
0.296679830991177
0.297892973326813
0.297967473515335
0.301963966307652
0.300269809733956
0.297639016213843
0.29952493603903
0.296976252813836
0.297593315768246
0.293467047129127
0.291752627388815
0.290108954646682
0.290203394764368
0.288030187219977
0.293398122448457
0.289186853117896
0.286991071548504
0.287904827804102
0.286858938913627
0.28344094080332
0.28386834072354
0.285972685177438
0.286185725401695
0.279262189105469
0.281894961916487
0.282759912024109
0.282396729265253
0.278715721218907
0.278669748495239
0.276269814026977
0.277730960855692
0.276449570865996
0.27673145762359
0.276456454588419
0.275249849489408
0.270397252543903
0.2737384882296
0.272609177624361
0.272130935360065
0.265169964372104
0.266997339606714
0.264810670538519
0.264918653163889
0.267399596083339
0.269913011700822
0.264169921491757
0.263899567610914
0.265304711636565
0.263103333759848
0.259975711526853
0.260994251317876
0.255212790000033
0.259403598678345
0.261036920067968
0.254978740626478
0.253338431730047
0.256496653813704
0.246954176978029
0.250603632208184
0.249392615433602
0.248913815297555
0.245108645026926
0.246383582764963
0.24866177313821
0.24523439501014
0.242190426326572
0.245278705644403
0.241498936089675
0.24360248029472
0.238753541711015
0.239386308507988
0.237547633066765
0.239193666483234
0.237173126254799
0.235209310812558
0.232130118457465
0.232918190328351
0.230875996922273
0.236274191506191
0.230880141791444
0.229995161220261
0.227991144661224
0.225391524435775
0.228609866319341
0.228966206831818
0.223569047571449
0.222531795600591
0.222060148021222
0.223122101179812
0.222089350918349
0.224949344934922
0.221622435285152
0.222179067081017
0.219680837486176
0.223622503918265
0.222150278086946
0.221573432126486
0.216144301789807
0.215065440929764
0.217307387260307
0.217301034554478
0.213904550346426
0.214969842869509
0.212734900669691
0.214685031862672
0.21348066236882
0.214753068162166
0.210209114802919
0.211338582984238
0.210063621224511
0.210748933013517
0.208253590232426
0.211054674592253
0.207658512813483
0.210883651391039
0.2083387914321
0.205794062841728
0.210875314060872
0.207341393881875
0.19814370042018
0.205121507059537
0.205013884434722
0.203151892439484
0.201210284153075
0.199935681544443
0.203918783738607
0.202436803281435
0.198305217492156
0.197422257344769
0.19760901360623
0.201684355872719
0.194770212545654
0.19522320338634
0.196770816893918
0.199573279811765
0.195993197147306
0.195560607627485
0.195144449359259
0.19560779315446
0.192142480998038
0.197152653456598
0.195503361713407
0.195986202951428
0.193180736335335
0.192750246521694
0.19285653786151
0.196737218448258
0.190749230371783
0.192961622214454
0.191271128199183
0.188520645554406
0.193049185848659
0.192712376108295
0.188326364424282
0.192443850508651
0.187213826124481
0.187632384261754
0.188974378699141
0.190065770674194
0.185966446075954
0.188120158614048
0.189140799523263
0.189016801877681
0.186406830032257
0.188293380669379
0.185837435015621
0.187240770202787
0.18578798068089
0.188258594443601
0.185142958487682
0.188572271028724
0.184774608172364
0.184459130460913
0.179805510821841
0.182987915469244
0.181464989539754
0.182328014924895
0.17955913287751
0.182079003241835
0.182098742701466
0.180610370736119
0.181223617176782
0.180460848406263
0.174492448047552
0.181011135697031
0.176800148725268
0.17623481720233
0.175683684243148
0.174863114933869
0.175385911773188
0.175479685160949
0.173608465107374
0.176180279934452
0.174016350996234
0.175866221696804
0.173666868897311
0.171101461163124
0.170409925085873
0.172864158945847
0.17078895388057
0.173733559779537
0.17180452974108
0.174259143170794
0.169846073119826
0.169971514404005
0.170517834423124
0.169832038194737
0.167438688952177
0.172349192246443
0.168322120760946
0.169897850648027
0.167401079690142
0.166085988066898
0.16823833835112
0.170364569650901
0.165600022787545
0.170013974979253
0.165951846864238
0.166503838634159
0.16498930083711
0.169818864844308
0.164534059618559
0.165379484079738
0.162661497684279
0.164403053060487
0.163630580374088
0.165584358790409
0.16198743494004
0.160904332801311
0.159054941761304
0.163728206777302
0.161872924608132
0.161034975641389
0.160803004803308
0.163489754518196
0.157261967025894
0.15874131218937
0.15791618627333
0.158997511049043
0.15588725520712
0.157269270812993
0.159347596700485
0.156700341556588
0.155656041531063
0.15740419801432
0.152317420543285
0.157228649800821
0.150257526834526
0.153253193233457
0.151680153406981
0.15093330644261
0.150662295698652
0.148388075587007
0.14648048877894
0.15223773913802
0.148998383425411
0.149075854263805
0.147055219785068
0.146835363335668
0.145552621620805
0.144928599364136
0.141763154458659
0.144158859585826
0.142900278512797
0.145132769971763
0.145965754313058
0.146073137862643
0.1439762438639
0.144309800702078
0.141236072466244
0.142252205147922
0.139203383832012
0.140425221017535
0.139963960549321
0.14060422552446
0.140336332751118
0.141052859812728
0.138099370595179
0.141151851880597
0.138942964273936
0.138043328225479
0.136257521764894
0.136597852459546
0.137538459356168
0.136841752663036
0.134024737323504
0.134171691875786
0.133452621290149
0.137107016644356
0.134352505367657
0.132108846650631
0.132422819835317
0.137894231574457
0.133191037444295
0.132636615041355
0.128663034305297
0.129987879929099
0.129824234806816
0.129527272251534
0.126349280707967
0.13088498454151
0.128131878446502
0.130704438766118
0.129410743646709
0.128190838320038
0.125682798217461
0.127735861024327
0.12559011467906
0.129166357716916
0.126327451951797
0.125207678283109
0.121677739432983
0.123353516214723
0.120498167771459
0.125388473995566
0.121177057373938
0.122632440828032
0.122447939654162
0.121802428171786
0.121847062797546
0.123106279416319
0.119704901783877
0.119589956537103
0.117935991986075
0.122353540916675
0.11975735965817
0.12081229320749
0.116455932449222
0.119030616292341
0.118764177326343
0.118860300051564
0.116596877498177
0.12432571838021
0.118832178478699
0.119029742963278
0.116812340681403
0.120379170950011
0.118937121484691
0.118590867879313
0.117709217441911
0.116370559886791
0.117030783876558
0.121128871721397
0.117542249414549
0.120102976882333
0.117476170217547
0.117876385043978
0.118528121805957
0.116198025842139
0.116831845605884
0.121519534629015
0.113134355832787
0.11841028942888
0.106360615702828
0.110155961984166
0.111420313868194
0.112586674722831
0.111891102852456
0.116481149158404
0.108693425014721
0.104488540018521
0.105278062946778
0.112805717682738
0.100737888306063
0.102385076006269
0.106569682259337
0.107973070850716
0.102898445102847
0.108791413399159
0.103738325197336
0.11233378412768
0.106838539221122
0.109250680931271
0.110854332856817
0.109573528732498
0.113730093777932
0.110562932137555
0.106244312100265
0.106383032757336
0.10531519887571
0.108087928783137
0.100952941417604
0.107213267763724
0.102849637365989
0.103872065016484
0.100362627134626
0.106294152428913
0.09642162294444
0.107059912508548
0.097541960110821
0.11019012738166
0.098840322395885
0.11158932702059
0.0950165665608527
0.115202356497392
0.0937486644790195
0.121570772182271
0.090275495898741
0.122407857983746
0.0922533052363857
0.12969352575053
0.0859121334424841
0.132342976060276
0.0836697562072845
0.137825220011524
0.0849903023656134
0.140399615751289
0.0820052929319224
0.136817578441778
0.0893842976195267
0.131866009316109
0.0945610671611494
0.126928739185496
0.0988134655443935
0.117773358597784
0.108826561200185
0.109313940752088
0.111617049766446
0.106747424179471
0.114494932559294
0.104384849944829
0.114135305408085
0.110954115501707
0.107452062980206
0.109469668779071
0.106818545575142
0.113095349563561
0.105542349726172
0.110561914684561
0.106555251971963
0.110990147214792
0.10726015667169
0.109824399591276
0.108481028044211
0.108341578962835
0.105124874399102
0.111413696378784
0.105563809157883
0.107144640797277
0.103871815188865
0.107429356173933
0.105556877768863
0.108443701599645
0.104496212315982
0.110664781871557
0.108145544141314
0.107658675593031
0.105168646680679
0.108815543750919
0.108127873974484
0.110242076345187
0.106208524482196
0.111486140855965
0.10851403296962
0.111971209257142
0.108176154625778
0.109326785943967
0.106890739376782
0.109787479179458
0.106683362684001
0.110561858948819
0.108199538305656
0.112033977684243
0.110856175922949
0.113278306424901
0.107106884726378
0.112304212868433
0.106930430201461
0.110629533237941
0.108678460373811
0.112944094060987
0.109146121949323
0.113272865703605
0.110092188866733
0.11412581854068
0.111603205819317
0.112597450509473
0.1113844250605
0.111155135920439
0.108303222060361
0.109567377141562
0.110426515481703
0.11244906009258
0.108650957799945
0.111777653347211
0.10885668334061
0.113148594314094
0.11066324085559
0.112278134133449
0.11193394533134
0.11405665429078
0.10890908454968
0.111546823967461
0.110792677303302
0.113635880642013
0.109710628719399
0.11254729205976
0.110650149991841
0.113985275987583
0.109797604976079
0.115846121476833
0.113026253832518
0.114105393927759
0.112676612771157
0.11726920658134
0.110720100458409
0.113863968421712
0.113862292508633
0.114939278676351
0.113600949899499
0.115472604142589
0.114538067303228
0.115148335562888
0.113335607016153
0.116531692053755
0.114044140234109
0.115048975113309
0.114147672154451
0.116860608344119
0.116947527871622
0.117762505432284
0.116470164523878
0.116461082914408
0.115909403073255
0.117659139203404
0.115683693636093
0.118743531954996
0.11698794799677
0.119497406493341
0.115968644982682
0.119960921285062
0.117707429036187
0.121036554740682
0.120084972314476
0.121413829097613
0.117697257457565
0.122429440863309
0.119611255723971
0.121536098454096
0.122052049151822
0.120674805298578
0.120347707848648
0.123520015137725
0.121522353275991
0.121332448868696
0.118300156268961
0.12252293795224
0.121585500249596
0.122002793481947
0.121030438825245
0.121460434485326
0.120490050823507
0.125106316025998
0.122162150705697
0.125249761990282
0.12040475148938
0.125386110431469
0.122393058936608
0.123925673225003
0.123147166883277
0.124063229576331
0.122734074370223
0.12586191538689
0.121780307396078
0.126452760287197
0.123281270054686
0.126761726984675
0.123191357512531
0.125392061159034
0.123974364987768
0.127762261631225
0.126081379550741
0.127928453988088
0.126222777114354
0.127344383232893
0.124874813062862
0.129299101078733
0.127354863297729
0.130838854247695
0.12801602207353
0.129845641805545
0.127823851725104
0.128698804040927
0.127893392986652
0.12734536350394
0.127592787037262
0.131565234027061
0.126844228903954
0.128459391565919
0.125890793949052
0.127496448820792
0.12783731406096
0.128546317518317
0.128820656960892
0.131773911922527
0.127454011675795
0.133023842041602
0.12809719987628
0.128137082864981
0.127668098818446
0.132482940936724
0.126801811757887
0.129613421145885
0.127207129875289
0.129995757863783
0.125756553675213
0.127204408077731
0.128458274739974
0.127379801225138
0.126394640794408
0.127199559234072
0.123541110058566
0.126446700398827
0.125160002840216
0.129465345611488
0.123137130294713
0.125671456187048
0.123032222679178
0.124344027418654
0.123403674684988
0.126117926539709
0.126109178214971
0.127178343121011
0.126848663199567
0.127332846019165
0.123393189500858
0.127955081665342
0.12291184161747
0.126457673543282
0.122844108468291
0.126159276970615
0.123821634966074
0.126923191849563
0.122793156099995
0.12604384399155
0.122693057205637
0.124613875162119
0.122299190941568
0.123697441219334
0.122100181323896
0.125339880199431
0.121755369267773
0.124109035003099
0.121426621126085
0.123823553340576
0.119024493174944
0.122587533845014
0.122180639395862
0.124733353368247
0.122447079687196
0.12279354858154
0.121816246208732
0.124223475465189
0.119309342058678
0.124599190530619
0.122412493274865
0.123920471979663
0.119400286195821
0.122122328037337
0.121808939866815
0.121131021168192
0.118691977645584
0.123730068115483
0.117546620418163
0.119064807408885
0.119512324420034
0.1241065848963
0.118975307206465
0.120830841932387
0.120173118197108
0.123139936270134
0.121205882305573
0.121665991385083
0.117116301479287
0.122021613235019
0.115552787123062
0.119562858877042
0.117865407396289
0.121466011972175
0.116281994809066
0.117816680133371
0.118232206084041
0.121948532480077
0.117259951857432
0.120109775057553
0.115773605964617
0.118112461191462
0.116456576093322
0.119063289386321
0.113644321024226
0.117403407466437
0.113118718834596
0.117513824251979
0.114273312841765
0.116324907597648
0.114228642387893
0.117653143073511
0.111935163404793
0.118710875305493
0.115068800527549
0.117209707678862
0.114752018677627
0.116696818437374
0.111370843954003
0.114320735063063
0.114201451730864
0.11719397760867
0.116452241810562
0.11725518455892
0.112148262908819
0.109866185389427
0.110549160905549
0.116709016560079
0.110706344420574
0.113764322034718
0.111227174916661
0.11254404849646
0.112348667644377
0.113594344273067
0.107363825481397
0.108976734571384
0.108053199701317
0.11013819432811
0.104991500936172
0.109485445944516
0.105364310662518
0.109112464601536
0.104533742040152
0.1070034304216
0.103475531643726
0.108042339153864
0.105385590121362
0.104478166961592
0.108109003607858
0.106242056957162
0.106375230462505
0.103937675969647
0.102071957971667
0.104304291320945
0.101653026003566
0.102175345681682
0.0995919936492648
0.102030345448384
0.100083404192738
0.102214285794411
0.101797078305478
0.101182787479138
0.099374223045439
0.0994789468486284
0.0988287012439902
0.102131339245862
0.0971245553230304
0.0993204462632182
0.0960466612013532
0.10014134081537
0.0967754209910449
0.0969145001492984
0.0951978141554706
0.0954392188485882
0.102002623958696
0.106548513388833
0.0963193593628067
0.0994630057678611
0.0971833859529268
0.0987155580156901
0.0957255560995772
0.097415040178937
0.0950445983214052
0.099497555626189
0.094406493512345
0.0955461841925428
0.0927350553970982
0.098089421982997
0.0923784046209587
0.0964515494713722
0.0917447766381634
0.095122053218242
0.0915450688933293
0.0963778343855511
0.0930114816167588
0.0959468521717065
0.0928312535315895
0.0950090140762211
0.0929863962160605
0.0944186748930815
0.0916663969372648
0.103291480908713
0.0942740087356597
0.0989991357774736
0.0921010095514153
0.0954579338555791
0.0885965470374073
0.0940027313094482
0.0905535818149668
0.0960967095746822
0.091335000509141
0.0917576499520016
0.0891635144475714
0.0918221627137177
0.088315963105551
0.0925287475122751
0.0870065066761274
0.0932586779833555
0.0860962299328813
0.0932276293772649
0.0861400634801036
0.0929569060468873
0.0859758659566111
0.0908440414147969
0.0879838813066411
0.0953342087336208
0.0825952140606985
0.0962406178489289
0.106532005608052
0.0933138865817263
0.0910130954235392
0.0886110221116702
0.0886089803804223
0.0876886294931094
0.086899731266558
0.0878518644898402
0.0876800751333336
0.0896418421998496
0.0869315889416182
0.0898605577158155
0.0880908131780735
0.0870609556745578
0.0879306318875276
0.0879894023267457
0.0883848097530851
0.087721884594306
0.0893610653611644
0.0870063856803716
0.0889667721443683
0.100451205529231
0.0903540037889392
0.0921733826329775
0.0888697421453267
0.0821795670668037
0.109587089332166
0.0901172239547558
0.0919455648701581
0.0857159762910809
0.0903574401298685
0.0868460605173673
0.0882666176494077
0.0857466756844803
0.0898759306359596
0.0936421145676854
0.086278333305404
0.0927713722168334
0.0886061462939834
0.0880787818719508
0.0856369637607193
0.0870436721897017
0.0854473838627491
0.0874288767473479
0.0863005109266905
0.0873433878485114
0.0859672184374763
0.0836262025487876
0.0873107477411401
0.0850982850289221
0.0908168951168981
0.0912578410351445
0.0860245512011412
0.0859549407528735
0.0892322597939234
0.0826545225727806
0.0914141986538137
0.10365336994799
0.0840978469911335
0.0918858289400077
0.0839689973098899
0.0909505372955409
0.0831407520225311
0.0898013721086804
0.0833057301797146
0.0902778347196361
0.0846949787263024
0.0902223054779398
0.0850498703205463
0.0888522084666947
0.0843662272853125
0.0887787886318023
0.0846960722821644
0.0877974755984077
0.0869664121641899
0.0879788014836759
0.0896708192159473
0.0854778970536238
0.104666295465844
0.110737439430083
0.0994127294306161
0.0995761916262248
0.0919939566362066
0.0896273930339889
0.0880170760551037
0.0901768537033228
0.0853779454114576
0.0896408033492943
0.0857294650422213
0.0902395784588679
0.088423563465233
0.0902012982610079
0.0851386481035575
0.0911589991657182
0.0854057739486299
0.0912655861346695
0.0863040254559941
0.0903115547760816
0.084768258576673
0.0933414920179366
0.0806180258800786
0.0982112182579678
0.0893301197385218
0.100063304063038
0.0718189061923978
0.130294739230972
0.104269925273133
0.0978149714578489
0.0957138428704627
0.0901841500030147
0.0911183953053419
0.0890758860939471
0.0879103437572669
0.0965457829991448
0.0888796673150091
0.0924317581671048
0.0880335610138365
0.0956325554561727
0.0910860866831313
0.0874945541539969
0.0988074372642695
0.121371098988595
0.0935610804895804
0.102342942979767
0.0869814272003486
0.101008454309012
0.116108783424887
0.0954540212272501
0.100693219257138
0.0960982425114349
0.0939025443161446
0.0957982734784961
0.0926710185794056
0.093699448132238
0.0982416831399477
0.0974192647908642
0.0942115452927993
0.0966266390856461
0.092699873154119
0.101827645758327
0.0955652799083382
0.107926591355329
0.102734462078869
0.0934195246373765
0.101521211617198
0.0985247232769443
0.0965364068157665
0.0984686886821591
0.098176374816873
0.0982336060179363
0.110304576719478
0.109468497424966
0.0998142453269924
0.114662439323417
0.106929594500188
0.0995285226338989
0.104335555823031
0.105051293883159
0.116310313718863
0.0900457315128106
0.116824122233834
0.127024711908194
0.113757544883881
0.126551865827778
0.0983576170502174
0.110253526167171
0.0958451093473076
0.108785799749487
0.0947678175731131
0.128080001796914
0.0987505209681614
0.117372660771691
0.0960511351516724
0.121082981187011
0.110528666682366
0.116167527117758
0.104967584231197
0.111667172326622
0.104038495365534
0.124524376742637
0.106723956627156
0.108280843045949
0.132301947819718
0.134134756301495
0.134256415331541
0.121537565538004
0.110881679691326
0.153802362375038
0.114059775939849
0.123003154626818
0.106692634931548
0.120433989891897
0.107792758750104
0.119445736988832
0.145826996226928
0.125849436472597
0.118372881033129
0.12591287886184
0.109834963679772
0.148091207248293
0.128898796503783
0.128347154942965
0.11860847048259
0.134259827941092
0.108792218291642
0.177371017894397
0.133245998120424
0.145936469266417
0.148275710892486
0.149608653141842
0.14212646243618
0.142183657002488
0.137189408364039
0.147950712124964
0.155392592022863
0.149755123492289
0.127520366387038
0.16009955796075
0.165719122411681
0.143033652843862
0.155865987549913
0.145013706830429
0.141861222748772
0.180245451022031
0.198996200182112
0.180933981599622
0.159154820686445
0.157106870218477
0.183043490711565
0.162109041313441
0.157868927441464
0.162951640913204
0.160202477902558
0.165953416138151
0.161773848279749
0.182617453364157
0.164798719647127
0.177799000089567
0.170435374454063
0.17763861239751
0.191267300676007
0.23360150621842
0.221171274625846
0.191595917931036
0.235419975729293
0.206202395326668
0.198572408044405
0.192912136827559
0.199440806602829
0.212071855295597
0.20420699730328
0.209478179272194
0.201921005762095
0.236395815772506
0.224159041582651
0.235314605676153
0.245277587385908
0.233767771042064
0.235373607094672
0.227759323572742
0.420421893526822
0.262515049725128
0.279943138146026
0.257579170048877
0.28035677564512
0.337756824714379
0.290259251616011
0.289668891644889
0.293688790359801
0.297165316873754
0.311474354166705
0.321065800872614
0.326213956212311
0.343726022587692
0.345701848958187
0.33529549426897
0.367465256094483
0.421540949129559
0.431708329840749
0.403460017589437
0.388586390598395
0.415822129473499
0.428206781820634
0.413823843571581
0.433317073726003
0.422879657209517
0.437215457879503
0.51603990539864
0.469706488061684
0.476178968228477
0.478479766134729
0.523337685758806
0.477294341560867
0.579345369081566
0.542063782545623
0.536454654769497
0.534471646155028
0.546326335067368
0.559559098853481
0.556091919701453
0.609515157129298
0.59433850575967
0.591105054314655
0.598619580622365
0.604852525186037
0.609458268891277
0.617373347201119
0.635131487886591
0.621307732803244
0.691226110569434
0.650584813537341
0.808524160885845
0.704898772321152
0.673519591418551
0.661986204519232
0.662633593205965
0.712021026231887
0.706385415216098
0.710288927802659
0.710495045568574
0.670185517196701
0.688607480902295
0.683426934824189
0.696923265738663
0.677409383162486
0.701839717448816
0.672692173052605
0.717687723281129
0.684993576105603
0.713672727141912
0.752914543803905
0.697900469479695
0.684163901156879
0.675505219100404
0.664381835916388
0.68107103067709
0.652715825660997
0.664564072765021
0.691710017392686
0.663955630611266
0.665210656883326
0.637924913898722
0.676710181809944
0.681955102312095
0.615871363123719
0.625363478639542
0.604908386487555
0.623822819923797
0.604531650467251
0.606867951189796
0.655734230519987
0.595092017427033
0.585462589721035
0.575479878375146
0.569916886277242
0.561831868038053
0.561141796391199
0.562446592147513
0.546765653170212
0.535911604339905
0.541943902907107
0.536556870408318
0.526821331578634
0.527176713578797
0.532969025862979
0.515405414882474
0.516459413735135
0.515600948799095
0.508416854046629
0.512100188366548
0.503963200666708
0.509921099798103
0.496037804834305
0.502515157049515
0.505990559726404
0.497382226052837
0.498818345369282
0.492561451219778
0.492268992583308
0.499672989299956
0.49028411989026
0.493414097381754
0.485009760911051
0.491605117777967
0.478440001887255
0.492115905351948
0.488671061912592
0.485416995770579
0.4794022455736
0.480169590651262
0.48276287348873
0.490939160495477
0.467412708425615
0.535060317533509
0.49552454620567
0.478898928643571
0.476312617353878
0.469000878505925
0.473314079812829
0.455034103741033
0.513601329394961
0.489455006551244
0.462465536431777
0.459408445674756
0.448538879024488
0.471104987375566
0.470067616798139
0.453584830629257
0.455380619184705
0.432602466108361
0.493578762791114
0.515542476235641
0.492287347556226
0.525623430950058
0.4599118867743
0.442703761024469
0.443822393358409
0.471780404155359
0.438622545975965
0.437872735982373
0.422762050871589
0.463606401791084
0.437877887899842
0.430276707842749
0.429069177077909
0.412625061332946
0.440456352901973
0.447840768066181
0.421874507848156
0.439998473312247
0.457440613103062
0.430029978634815
0.445867249649077
0.470890065809045
0.432337080867023
0.394244657764444
0.395956364775056
0.384838486816124
0.399098891005212
0.455941389804615
0.38717000134542
0.396170640735085
0.372578816396259
0.369837654428831
0.376489138227041
0.392011494411244
0.380555934427974
0.369876251271765
0.398125191846362
0.357457839022506
0.367197854807167
0.369970263126471
0.396887772979163
0.409765903865228
0.367962808829194
0.344121835855353
0.379129015394074
0.3900676271835
0.35020333321447
0.364291875516666
0.329588295407324
0.336788457284218
0.356847664056355
0.330080498934334
0.345082717943769
0.343747469090602
0.346389688179558
0.377305335288223
0.377830794721776
0.380750581814066
0.334584058534105
0.315800340636966
0.316718321224985
0.313301897736525
0.3177287057028
0.307570113839057
0.334974334610204
0.324412107907147
0.3082307993913
0.361653710158354
0.325824433956023
0.320118954051461
0.319751672922682
0.317894609435423
0.329932061113399
0.353024666537467
0.361155672165064
0.343702365755998
0.3371261748954
0.355700538555472
0.339263069833843
0.345831989268815
0.343181041098115
0.350578532038934
0.351426188003572
0.366759087029145
0.365244948915728
0.370379615913456
0.378414067377447
0.378604116122023
0.405536119568461
0.430927814913186
0.398970485584956
0.432681780879012
0.434891831500281
0.479339026684563
0.449009180746567
0.443494558483288
0.453008188273924
0.454546345446172
0.462996584064264
0.468960824218356
0.476298493383115
0.517591166626022
0.483028684011469
0.498680623738893
0.498516633283962
0.501884071980504
0.505110993877218
0.549493777810347
0.543492642637553
0.586662033907929
0.578511032213217
0.559360506484389
0.540173371996361
0.533270661559841
0.550668073113957
0.545494559950967
0.528579235377493
0.537355028188167
0.544250000857934
0.576332651676914
0.553127757147986
0.558894128717879
0.55616938163532
0.555300567472339
0.55658594855431
0.561954394111813
0.566625103478004
0.571051347035304
0.575957486990074
0.584635219087506
0.571317287217772
0.645234491983146
0.605292819621912
0.59266063946921
0.595619291546714
0.598933720230627
0.602140744633762
0.59840277392001
0.614609250418388
0.62590134243631
0.612340400989394
0.627926914252686
0.627178223177347
0.629834073801198
0.637497187049441
0.661356548372078
0.635252518863968
0.642334167103549
0.640089364540364
0.655930274390437
0.702346328371143
0.673951764566782
0.678732495655025
0.664286432627389
0.65887347454599
0.664063527195676
0.660391453007694
0.666349812405273
0.674770606733295
0.674694481352251
0.671375779812312
0.670010057197555
0.66715653987135
0.664452788857593
0.665888522684991
0.69525987964635
0.670849801429354
0.660590242983598
0.665318310634325
0.662454532640791
0.662682371572442
0.684980698441579
0.677017598569034
0.664491986899241
0.672315838169771
0.670111677638577
0.68390917246029
0.675599698879026
0.652584687475191
0.663423516839918
0.664535756822012
0.668940778203807
0.660075401477904
0.665200121725368
0.691434146380638
0.677402729887706
0.672221588175264
0.666793375277519
0.67219560065814
0.677478489938774
0.685403483774986
0.688445626959395
0.690621443001116
0.69598874303694
0.696323966931198
0.689598839252116
0.697676357247351
0.717766216681146
0.708252667861072
0.714029224361179
0.709548441198122
0.698382149980396
0.697068469731431
0.69794213156611
0.709702324741137
0.697721876592841
0.691545708120208
0.699784195465889
0.69046407322132
0.685498274304186
0.706865415094772
0.67849091432014
0.68373181516277
0.674747881156127
0.66234459374886
0.669406534518223
0.658771870892304
0.655372838032603
0.651978419104672
0.657843682601619
0.645280231100602
0.646447225448742
0.644488691713629
0.64242607677318
0.639285049142034
0.638044588287329
0.635755203835578
0.637482555275128
0.634000413131764
0.628390770073791
0.629138782863292
0.635574322762212
0.639074596278362
0.629152322041452
0.631882990355719
0.644611841416462
0.645582409910969
0.634965354356359
0.627510156888331
0.635673705491215
0.626955536292545
0.628493776431927
0.628648303036891
0.630572159136174
0.622766206505831
0.623268290712827
0.620720812132915
0.617998428092139
0.61511089873909
0.617137435167545
0.611614494674344
0.614185169981873
0.613084784009191
0.610317943634929
0.603149256182839
0.606778018482031
0.606013597399992
0.610085490010475
0.600286461341378
0.598944388944433
0.601863381395954
0.596289088107023
0.599230761268713
0.596711741256017
0.59531014844866
0.599679854512846
0.598804876459501
0.597695961082453
0.598881840249357
0.601147808776381
0.595374931314888
0.595305136630622
0.595463558223186
0.585235016785025
0.585216712002414
0.58272845062962
0.584188412893786
0.585181796733246
0.576178960696622
0.575977180612258
0.573470309160822
0.565179059660712
0.559319831667373
0.561567060318471
0.552232089429277
0.551436039218753
0.548145391504732
0.540718595007772
0.539643144489509
0.536670224499556
0.53507804676547
0.531419090968343
0.531530532050949
0.533607811625947
0.530944157579915
0.53047529489322
0.528360666805668
0.527096388137508
0.525230357415686
0.523232810226716
0.524710938204395
0.526352553749284
0.526884217823816
0.526696615020938
0.529210669694624
0.52639346255167
0.531058236719603
0.530776894877493
0.533682151892119
0.533351110287374
0.532095401330037
0.537892240309017
0.540858815455554
0.542790701698115
0.54341243161841
0.54789178996889
0.54547042629163
0.545817616904716
0.547687448391861
0.549689193091113
0.552764506188518
0.554294045924642
0.551232397692759
0.551064332564094
0.551484407933802
0.552063839663595
0.550754102292046
0.549557382402738
0.545019043836081
0.546998559956044
0.543696618712116
0.54419943910719
0.545713016505084
0.542677886534373
0.543227153432051
0.540401818163887
0.539318923346392
0.539801815069948
0.534671423659615
0.535972286625682
0.535095747428001
0.534420848344506
0.528942485897333
0.528880255441829
0.525817002514586
0.523838232057376
0.520540645314648
0.518397814116613
0.51974464816598
0.518838408219017
0.51544049182564
0.512071344681343
0.508466943205906
0.50774035255418
0.506651848585568
0.50635406304047
0.502111858118147
0.498256445374389
0.49760228668395
0.496038725244906
0.490959933697174
0.488771496105224
0.486668032505489
0.483607965393231
0.482514429231026
0.480181041444241
0.477769243960933
0.471938448785573
0.470178309624328
0.465868576811402
0.465019029519238
0.466097996117842
0.460109483982322
0.455698861222981
0.452521167070886
0.45185422996643
0.448882943415123
0.449712543494656
0.447829324604845
0.449776629570588
0.45107938517986
0.445864395786528
0.444548494629789
0.447962160851764
0.444584851829202
0.440569674051811
0.43767496916561
0.435427563476156
0.430806774135102
0.426324214286357
0.420917916781582
0.418226211295752
0.414264610613658
0.407047702251727
0.400751105524867
0.396288572128069
0.390479774746035
0.386443179565685
0.383844249485437
0.3812440223891
0.379743482660905
0.380551822899729
0.383004934584001
0.386029813120836
0.389412010037447
0.395257710488831
0.398555528291947
0.410352619471871
0.417414209059284
0.427518987793191
0.440292506088941
0.456119730787829
0.469656335230706
0.488843867348063
0.503434674086621
0.520521851781553
0.539020494039095
0.556776134526081
0.574589536737103
0.594713693830898
0.615865602800026
0.636766145019002
0.65445897223674
0.677987119478066
0.700539273328232
0.720851654321519
0.744484446466079
0.773055845500759
0.786369305518404
0.807337038933845
0.828801655288955
0.845876454413583
0.867412444425125
0.879591070529327
0.900841806637431
0.920200005610251
0.923630959482199
0.92939636140091
0.934351392999355
0.928637008636429
0.936546160708784
0.940139354474935
0.938108382056135
0.929999116899715
0.935796063510583
0.932355890684636
0.928161112127655
0.932141990434813
0.924844767011383
0.924157045404367
0.913432352435812
0.903425176021456
0.904939265202962
0.906268071652559
0.909015793426661
0.905244287953469
0.903661721290909
0.912068525384454
0.924216960017086
0.923622344831572
0.923326395068572
0.930420415511943
0.941207034425211
0.950785425818657
0.960336806669704
0.968472073070614
0.985621286682109
0.999439690497544
1.00762494725617
1.02100019657244
1.03771166014511
1.04900040459077
1.05389551371579
1.05000385694756
1.07018595737461
1.07098851008758
1.07405572486137
1.08091929442055
1.07653821209052
1.08573846461539
1.08076088282528
1.07653493282002
1.07834748847709
1.06456175406169
1.07165678751036
1.07282376238081
1.07557734447851
1.08079521840692
1.09427732952369
1.1057236181026
1.10765691566564
1.11464538088288
1.11869647421695
1.12038596113319
1.13117349447839
1.16515379795791
1.17696552301011
1.18996114426143
1.20027924889921
1.20487406448152
1.21830339652826
1.21936290717246
1.2425615472738
1.25642824416638
1.28815782162827
1.28089561966769
1.30794864341884
1.34933597742423
1.37168301491384
1.3902141400372
1.42555792357782
1.43902767441405
1.46573162994041
1.51235633702817
1.53375734272254
1.54806675268569
1.59271087895237
1.64792111644226
1.65946522468484
1.64146956415939
1.6683263979019
1.67875712063891
1.67454173081568
1.68826486771747
1.70362383335043
1.73335868823525
1.66506097774227
1.64993216855614
1.63657472993346
1.629321897125
1.66816165757032
1.66643366954971
1.70859658783277
1.71061326966058
1.67052728807609
1.58550575500019
1.63958567301968
1.63799703925748
1.68044210308914
1.73669073288798
1.7011370652964
1.71974670673899
1.71540060523217
1.74023061621262
1.74698268024715
1.7707748962326
1.76627392382523
1.75396017927418
1.85814923684254
1.85767102436156
1.96159229424123
1.94808280913132
2.02355417385308
2.07025262002453
1.92375263232438
1.96085206979881
2.00998698872651
2.025352203085
2.09891084243235
1.95963251617134
2.17024133782246
2.07635971205232
1.95671430991158
2.0244017478065
2.21113530421739
2.24666969121382
2.27841045307656
2.68245681715217
2.34252803969619
2.23205776353408
2.34449055033488
2.09284107544474
2.18017480274065
2.24325102883685
2.3708828972718
2.49875124117654
2.3687607392508
2.2268546277019
2.18640792954222
2.23074990232369
2.40857112617204
2.2061395182242
2.1256595965813
2.26024850686527
2.49275130145208
2.4121632333466
2.13245362108498
2.14707811959539
2.38960377030225
2.05664271092282
1.95313799243317
2.12843255960549
2.05448922917683
1.99573657375176
1.94603338416523
1.85711898671997
1.92443730042569
1.85445990871586
1.84244284114723
1.89770812541606
1.80979880605539
1.80366770020177
1.84869012461647
1.84889259554809
1.77240121313442
1.72508160922243
1.79136817901129
1.76214966935695
1.70213761362324
1.67357518223918
1.67053321766841
1.60385316343311
1.54027703071086
1.61562140254602
1.5968408518436
1.49826583199262
1.471961011728
1.4589568974522
1.39458897632095
1.34492848256258
1.31766095323237
1.23606393128942
1.22162721646176
1.16037646382724
1.11709151256896
1.07505696637494
1.01615404464945
0.980370006870006
0.947076693972864
0.904102300078385
0.865360579537736
0.840140629191911
0.815061122204727
0.773806938170369
0.750797911249646
0.735776037737401
0.718675409146
0.697358492403736
0.679224137042782
0.665526807983521
0.651696721281275
0.644047406583369
0.630349175647308
0.621938322466136
0.618926589451852
0.62013752253568
0.613713374975949
0.607021331508529
0.604260999361871
0.601774861571315
0.605019727576051
0.60444630412309
0.602353618179995
0.604722676344384
0.609054982006231
0.60110078251331
0.609943576946686
0.617429866670829
0.612449608449532
0.618484765703809
0.621855315286908
0.618294405298926
0.618982632368843
0.624073310982141
0.626461405486928
0.617624051904323
0.61988036864105
0.632435608517177
0.626142924571984
0.612884921319356
0.615428640622163
0.630883012384266
0.624448788459447
0.630309631643046
0.627909530704667
0.622401824791604
0.626129326960226
0.633130862160846
0.637193535485238
0.645137769722909
0.642192850175376
0.645158899655008
0.647150417528536
0.640713585048755
0.6403065352162
0.647132872624763
0.64496584567697
0.640408353921927
0.642859642826285
0.651716424794466
0.639652932377479
0.635881758036717
0.643038139136228
0.640639845503567
0.636163633324593
0.634336517010731
0.639729821719666
0.644073326050993
0.638414848290898
0.631833103927862
0.638173634360144
0.65675966167377
0.653427457279734
0.655631297799688
0.674620318394977
0.674458172274324
0.681876853670553
0.708933844944893
0.722210930810581
0.715235973754785
0.738815530661396
0.759488356192869
0.75337787347132
0.761716069361785
0.756115107556393
0.763613681482018
0.767899077909976
0.76275009790403
0.754568721944145
0.737068016933451
0.744574475157006
0.732647141679259
0.716904848838114
0.716942888500115
0.708459740305886
0.709024524687279
0.708675073079955
0.716104040594903
0.725077156915915
0.704249568794737
0.701095600877698
0.721777409168174
0.72682753219094
0.728335770219594
0.731506084226339
0.718157761125604
0.712098358467606
0.732608657134715
0.717125846977456
0.698625048151412
0.711114831559812
0.713257902743756
0.696779331640375
0.69714810319268
0.709710584804467
0.722277615770173
0.716437050002049
0.717722908738485
0.721259902148697
0.717942634457023
0.704785888537926
0.718969458964275
0.721936367196791
0.723251213577956
0.721800819374495
0.7169966837215
0.718377446163345
0.720391071396993
0.706096331614315
0.70688573321781
0.694579881481138
0.703532500803655
0.718506217095306
0.714097006574933
0.730959178489533
0.73620955599653
0.720434612055737
0.717157427335807
0.713629488491753
0.726490713839893
0.726752820931843
0.695964774102381
0.710683707073165
0.721034283264794
0.69908839661561
0.695261617050853
0.6902453216558
0.705663905635964
0.703943248424784
0.696956380304807
0.708606487056746
0.694400970089517
0.70595169217603
0.705093807514199
0.690019832250773
0.701059292921278
0.696631192889483
0.702420955415137
0.69289224444133
0.677787651858145
0.699462090790281
0.712044206459357
0.709513613188325
0.730153266423006
0.72432491633401
0.70498922964393
0.733990289776172
0.727865875608464
0.701489201034596
0.720254082994271
0.716456484696751
0.706309722598128
0.722414587196899
0.764420040016337
0.769822383398039
0.752287859074901
0.743206546426004
0.766628433724886
0.757764357221689
0.771979241288894
0.788196695456257
0.775543804867681
0.777563469201612
0.810114057875365
0.804607752667417
0.810527271053422
0.821264506965009
0.842690109908718
0.847785157988457
0.864018309331087
0.910337018901831
0.886254704321737
0.89833542963332
0.944288424008155
0.918252302527258
0.924408808956492
0.927067238298261
1.0252267392257
1.03017527652078
0.979115277078033
0.948283095485031
0.987504240147281
1.03666447098248
1.03524533706501
1.03180430130101
1.07056624020289
1.04687476103551
1.10857078952363
1.00387649034468
1.05068950489995
1.10617844947487
1.06431530888799
1.00541143583842
1.04881217590324
1.03922974976566
1.04393477521326
0.96228311469175
1.0241928683078
1.05463515224202
1.16458950987966
1.04426281683697
1.05812651349225
1.08089881599388
1.05467976020188
1.04431794639155
1.17006612020158
1.18720148603936
1.08832820572747
0.958662951158874
1.0828393233843
1.13285237526488
1.07409532994999
1.05981254701221
1.2194243036237
1.02984606767283
1.0447139650001
1.02531633901882
1.07256370728227
1.04574438737829
1.06278320806152
1.06968742896818
1.04094256686934
1.07577336183349
1.0779604583342
1.04115300224526
1.08286668963403
1.14901646666194
1.01053599005719
1.02300459000502
1.13970973702485
1.03333900836502
1.26362353629111
1.10584072507092
1.00059881645188
1.12376918512523
1.10238058194589
1.06211359164477
1.1989705221016
1.05277397147113
0.997839558881628
1.01574982637487
1.09609497192091
1.07438315699336
1.24046743283074
1.12257254668677
1.07055454624268
1.18361570336246
1.12592495018509
1.00175587485461
1.18963949111076
1.17982305424342
1.31209975057338
1.38896534358603
1.348686308631
1.22344028724037
1.15706451931086
1.04730457847773
1.25577435987103
1.16599931255778
1.24202410435193
1.33267853569235
1.24553200946002
1.22015872849666
1.48834913735481
1.2705752823021
1.1549024423447
1.35701596429437
5
1.49450049169049
1.59313190372553
1.14523680231884
1.84509367634559
1.36333844772468
1.21011750826718
1.32978622099725
1.75328334448942
1.39553560916594
1.93505978184388
1.23134946981829
1.32591513797958
1.25304009334057
1.25226723014604
1.54997814320161
1.31820046122546
1.05876550973075
1.01164835995027
1.4245463199897
1.21838219217677
1.17736661546964
2.64754438422269
1.30674168598085
1.38696521020733
1.00753611347131
1.80209244442387
1.47467936199227
1.4452876438973
1.29286543684776
1.1470331695297
1.86414416787924
1.63109449140622
1.30650827507776
5
1.06505423542001
1.20452683933155
1.59239831072899
5
0.56970594336628
1.30937911957797
1.29497149344037
1.44450233802188
1.37608373651732
2.36730861779761
1.1451516722471
1.99750623234793
1.00802889303535
1.42281766942747
1.17838443010224
5
5
0.670458587740956
0.915905169551654
5
0.779342719221386
0.718647810786413
0.673850005604557
5
