3596
4000.36533379555
650.420452594757
1
2
2
0.0981636401886504
0.0803009825983801
0.099478820992189
0.0806381496007361
0.0882772758818659
0.0854819713000715
0.102528168226899
0.0735503186462047
0.0945611053884681
0.0854230355731261
0.0971900801583588
0.0830636967491549
0.0886483434628336
0.0786364108373567
0.0878055111309124
0.082476974864048
0.0879264478130401
0.0706875033294826
0.0909593696690246
0.0742000984315049
0.0924215929979842
0.0793556751471618
0.0891666545535907
0.0765614312482216
0.098277524638417
0.0736690011212821
0.0885728719959665
0.0779937246698951
0.0950634649542433
0.0844908708803356
0.0912871773144027
0.0750048506636714
0.0959420997122928
0.0769922515175221
0.08672319196823
0.0807231767831411
0.0893106066701596
0.0705196785060664
0.0880725633569556
0.0803640495212501
0.0974999840807774
0.0761844697628378
0.0950103726127418
0.0768290073713435
0.0933113403451896
0.0830013742589687
0.101764382549152
0.0755491123933231
0.0951821573562843
0.0757289462126887
0.0849138197053159
0.0790112292854811
0.102323518293292
0.0840897820443295
0.0851146154033328
0.095142292174737
0.0979822106649063
0.0795708769839069
0.0937621513459453
0.0767428672814217
0.102399430104174
0.09378891636724
0.0881769143827097
0.0808638446370578
0.0958538203561258
0.0797265010331639
0.0886429340127785
0.0753977884137586
0.0879137394985764
0.0781854628445413
0.0868865400892287
0.0969505314764751
0.104464885957698
0.0761108784404006
0.0965509274337184
0.0825853907506438
0.0870591613912051
0.0723567267034975
0.0738406918058069
0.0795697990162682
0.0974223418731052
0.0794390498955796
0.085132176355828
0.0705415010045643
0.0874489421269095
0.0872143278671838
0.0739840502185311
0.0805511190588518
0.104316121051632
0.0787647512038405
0.0850868976604055
0.0767608086308696
0.0809978815000052
0.07330907083747
0.0740593687126655
0.0742715522162467
0.0775700058121004
0.0814640817835537
0.0769663697485733
0.0855604152143283
0.0895045361093306
0.0848842590540835
0.118462587575868
0.0581913551663
0.141850278272365
0.0786015303905109
0.10488364112445
0.108141374496232
0.0945698974251974
0.0820415202545607
0.0840557539622104
0.0771676979143496
0.083570856054424
0.0735559399217982
0.0676836198872096
0.104502528701345
0.10445416355742
0.0811879416048861
0.081631929412592
0.0801351436601252
0.0617520381617329
0.0989096953878142
0.116352893090716
0.07703701002572
0.101507575777693
0.0726447841578109
0.0743942212958852
0.108045381362867
0.1131320900317
0.0779495253139657
0.0778484621364539
0.0688828334359394
0.0701313731317176
0.0707076153008782
0.116249719217605
0.0767244935037544
0.0919269934491558
0.057453822256618
0.10433801624383
0.106162354180288
0.0967870732217864
0.0713277625626209
0.0626638025411781
0.0742951894234555
0.114951014318994
0.0829205435776773
0.0780306827145459
0.0895006914491231
0.0833829220413825
0.0725289351814339
0.0809095634415515
0.0681804853651924
0.0980069368068137
0.084967022598875
0.0437590123991736
0.0967729493968199
0.121825013557786
0.0930394087640083
0.146561349013554
0.0660379040604979
0.101754901037628
0.0603860269521763
0.084795080110041
0.0655731744449328
0.0885531744804924
0.0526589897531065
0.0970696016637374
0.0865902950223694
0.0821499512586985
0.0874035596382036
0.102970629461915
0.0737322049595434
0.0763307652753604
0.136142043428615
0.0973361631653329
0.0660582988207421
0.109253715432944
0.0847366260299418
0.0652639542257597
0.0701133582415858
0.10557238581001
0.062310430057452
0.0857186151470077
0.064016808338856
0.0790166646751857
0.0825688409571799
0.0773929298350258
0.0761046179570943
0.0858542727638829
0.0521793634299672
0.102771656583018
0.11923932408047
0.11231582399892
0.065967300657723
0.0878008755452532
0.0408875697972403
0.12554105344401
0.0906425481581354
0.0853122415854837
0.0661889644969809
0.0695626041565745
0.0676112957777474
0.0765728363896968
0.0678886402144358
0.0691704567199537
0.0393826678201848
0.121647335903894
0.0805263192855397
0.0817229746144872
0.0570110590382709
0.088318371648846
0.0521765067323762
0.142508959966599
0.0936533604000171
0.0859582748654937
0.0714603062757916
0.0691981020190225
0.0816702952964752
0.0896860205604195
0.0688822610311673
0.0794989600320988
0.058553277385674
0.0831897737469557
0.0643314646696753
0.0745023811062653
0.0683387463363227
0.0790080083527916
0.0710685597989427
0.0804611071986899
0.0718661237032163
0.0883268100856796
0.0748247267076636
0.0747744241140243
0.0741814900746976
0.0770054453816048
0.0843625459410234
0.0967418481490763
0.0762430094960958
0.0858657721566164
0.0709373220688391
0.0756586371519034
0.066439835693221
0.0847188643745833
0.0731825918054896
0.0770735180643358
0.0579061807788267
0.124680694226657
0.0645132376392066
0.0901747304416045
0.0561916429244335
0.10614073576618
0.0776395355352745
0.0860613135527432
0.0665763627990679
0.0887631422104725
0.0596164856044568
0.08988576897807
0.110016720647149
0.0878203124007495
0.0656395021272023
0.0996173893668458
0.0790883124516927
0.0896589275978104
0.0726005424169453
0.0664072418450505
0.155225761618954
0.0904146365115121
0.0670699701253643
0.155578804601168
0.0796745069848574
0.0988568918092687
0.07243907211188
0.0676436659976811
0.179015826919511
0.139857096986631
0.0824932907090931
0.083576336501373
0.0969543443737653
0.0824397195833321
0.0864988509305251
0.0910557897591109
0.0925102465228771
0.11498514997215
0.115255448413236
0.154718206137135
0.0632816670606398
0.130152089956891
0.101820894884875
0.101767133420977
0.0805128351711586
0.0893551686141316
0.0640391955268413
0.11257162322839
0.0852818652057947
0.115548366848788
0.08897433257074
0.0938055115945239
0.102312598481666
0.108223965578859
0.0805610919760269
0.0961620638973441
0.0942156124524053
0.0878790278689257
0.0823084181841038
0.086778314021553
0.0963184165161155
0.089396751059195
0.0798361330512293
0.154498866401995
0.0910241792458986
0.109941768468323
0.110503532060901
0.104139252469907
0.0870539286312223
0.0962028691850693
0.0913137664607179
0.0980589898605593
0.076974851553819
0.0882191398497464
0.120938697991166
0.101713901144237
0.092702226680824
0.10052197696462
0.0892003105313383
0.0992035758001574
0.0910158202518686
0.099186373869356
0.0921903191792931
0.104074502217062
0.0785016628934754
0.131227522021086
0.12373297979099
0.0858871729587998
0.154065476145113
0.141949538630214
0.104738924909993
0.114554818362571
0.101563250799668
0.114107898762335
0.0965122452631378
0.114710176452115
0.0883529803548748
0.115415841082391
0.123842208319698
0.127621320690492
0.107895709498317
0.116431184547743
0.165117638164653
0.202056515747987
0.127592287841115
0.135417073922504
0.0909883775233956
0.184569851372918
0.132920435042465
0.165459541448198
0.144877822709722
0.129279359731318
0.136149329090579
0.129632358275409
0.131000062437844
0.132549709250619
0.141524079637778
0.139348264793117
0.142290090693859
0.14664800941395
0.150892284718088
0.140248269710012
0.150433647893457
0.198069428397525
0.153616342033501
0.158298962719848
0.156344556172662
0.142168533010305
0.192509991668663
0.179197315290899
0.229479856918559
0.208698852854959
0.201092175120304
0.229939003352032
0.169809913460432
0.189155038547616
0.164061907046921
0.19520085759353
0.178617303510595
0.196664265825988
0.179706757808481
0.199436111489632
0.184186699120917
0.206422449793843
0.193866119845526
0.213076390794877
0.192055423350662
0.246597055372871
0.202554343080058
0.226955401989849
0.199697368747152
0.256966583377328
0.262500461023154
0.284713829007076
0.223101903990657
0.246708686957919
0.217312236807673
0.25092963832401
0.226468554488022
0.246985995789311
0.245346252850869
0.254818160924713
0.282532779433102
0.280215544676778
0.272055749182887
0.296268386338002
0.231458057921588
0.290585158005096
0.267686485668836
0.304895508866982
0.312633493984149
0.305835394201128
0.278501336293866
0.335916942950468
0.303874359500234
0.310884703952306
0.310936413598166
0.323269397353119
0.301825515391146
0.326428283235616
0.303529722507055
0.313915703343929
0.327766060626889
0.347303460274735
0.319309921969375
0.359256046987953
0.340739587394142
0.347587837362645
0.346182622783834
0.36806324805662
0.343759825387637
0.377800729114688
0.330816258603246
0.392752163058847
0.34272358223012
0.418278181760583
0.377231771621747
0.425355047889988
0.412261463800704
0.403571679734454
0.384205036902562
0.411179169129736
0.396452035637249
0.392525638493721
0.396996043477804
0.438505162645887
0.403466120913316
0.438050080120261
0.411826398826729
0.432820986054542
0.420792678665423
0.460674844052836
0.431169024767994
0.469026861515212
0.434608549177124
0.483907951933161
0.446751830840446
0.513256126939572
0.494086799254008
0.526685146165236
0.493833598811572
0.495187107765602
0.461575553964736
0.510886316953197
0.454052626780199
0.519662378796456
0.514854455820631
0.535900111224783
0.504058975697298
0.567556660014165
0.511172998444697
0.562722613897135
0.533642822557746
0.565428556415367
0.536998011697131
0.578000168390088
0.552133272242191
0.560978889920747
0.565610683535759
0.621551355449045
0.572153786905848
0.61690483549952
0.568264819951734
0.610428788444442
0.587074679305355
0.623300743980753
0.592159634750433
0.603950006259249
0.612791079142499
0.650076800361837
0.614017927699959
0.643623318901822
0.613510797665464
0.638927508653865
0.658757780065799
0.655558579595051
0.600884659047566
0.704898106365243
0.644928798566611
0.738419919249466
0.674568246505158
0.705204497786353
0.663049055834437
0.725991035405112
0.67209345674221
0.715951170717704
0.734520181076283
0.740876215096241
0.69657004830007
0.713502098693197
0.716871873234051
0.765658588839043
0.71509059995572
0.790938680190493
0.718078409462754
0.788786488027303
0.721312183377736
0.781309309805933
0.749970189545023
0.807228255239848
0.760341996536932
0.807833583901565
0.787544864646214
0.831805260363999
0.750738883747446
0.830029092942002
0.775204924473624
0.866783220966478
0.76014535551818
0.86308091189631
0.790331830585633
0.912774583338006
0.800623988294068
0.901898503439516
0.809117792825212
0.883346281884592
0.843346451466497
0.888721304621302
0.822681067845031
0.950052586553678
0.876939421814875
0.926058003968779
0.910678010990856
0.890506595679953
0.838101399383737
0.97315255279664
0.873968967471618
0.937771541295502
0.899667474176567
1.00063556795538
0.907497261620407
0.909401435027664
0.913523323424598
0.946613440185966
0.977200793771792
0.963272441365686
0.941830360464918
1.01732049674865
0.943524797400501
1.01909041979788
0.950719061196793
1.06647760674186
0.938419491875674
1.02808980920617
0.917522313464791
1.03406913193635
0.998256882636928
1.06982194971147
1.00155621815615
1.1040912964149
0.98815151733894
1.07784414943181
0.989251951658647
1.0758842212611
1.0528591241485
1.1652556001607
1.00361721286711
1.13696588825977
1.01442109925784
1.1780259816931
1.00715869657916
1.12339525685783
1.0725470840125
1.1861691887408
1.06513771624877
1.1084296820643
1.03486275212493
1.15629182448815
1.05247057565024
1.19082768298388
1.04786110061724
1.33718434152584
1.07473348079588
1.24072128844865
1.02170710089977
1.21450787761882
1.04922777512925
1.16917077190704
1.09419344098769
1.2354017795652
1.11053646474575
1.26822808624271
1.13622135667806
1.37011236307471
1.10337248392644
1.23963309782215
1.16470009391521
1.35959158510938
1.19117889806716
1.31563978217558
1.22780967345485
1.3981588065064
1.16067408040298
1.40212363695127
1.20513348265016
1.33019918923211
1.15729388150028
1.31737158603622
1.30240425765015
1.26866631581136
1.30838980830461
1.33062049326061
1.25292704747671
1.38273191484572
1.17181612580589
1.33675972248208
1.28701330999976
1.40269085094738
1.18824211901082
1.42376766522501
1.22566898590429
1.42418114909502
1.33196257792324
1.49451373691302
1.21708462346538
1.38278047756328
1.18004854879193
1.41411649143535
1.33177567716214
1.41981696725177
1.37217544209067
1.64082787751958
1.33072138508206
1.45554233470875
1.40074605581958
1.42077083673947
1.27842325798562
1.37471517090621
1.3205774482278
1.56934575741093
1.32998049399875
1.52613112824206
1.45134919969569
1.4907057685302
1.31407096399918
1.55812124845372
1.35483104772031
1.50773903403461
1.32467265515712
1.60647924900941
1.23684377766816
1.58588375386724
1.34246108708879
1.49530730789001
1.43472559976287
1.54525212030496
1.43018858011811
1.57039964187991
1.32523044715539
1.69437960787325
1.35718355221356
1.40673227088471
1.45205915836152
1.53609878587324
1.35505796291033
1.51035256709764
1.43333291571114
1.65483717985107
1.44459471075541
1.68094002637446
1.33195748704953
1.56114358188061
1.47672840474199
1.67658157614695
1.49396703646739
1.56723950586056
1.35743412202851
1.85174650927092
1.34766558810956
1.52792961867535
1.42986333226262
1.48813115497198
1.45570741055637
1.68602484778715
1.43837550821989
1.56530259654458
1.49415407026093
1.72148039556163
1.47682669638071
1.5005724106655
1.48774507386066
1.66319694766606
1.48215876547058
1.6621762524464
1.51122556171364
1.6674234422503
1.48886471927658
1.48304802189234
1.4926629483789
1.52505953133608
1.5116878422084
1.44091786015996
1.42685322374147
1.52167102037485
1.40741001388091
1.63867556465747
1.54672958363214
1.61048738024355
1.51180762737892
1.69001857425989
1.49071056745505
1.5452945589798
1.6758501383496
1.4528149783989
1.58515127990818
1.79091078373179
1.43653375753639
1.63336304560102
1.72674033765595
2.24677264700253
1.45690703886495
1.63836581486576
1.45445338897528
1.6986639829161
1.40899760670323
1.51317776700506
1.58387183961085
1.48123688986456
1.55496605123692
1.65890777448984
1.47523638105626
1.72897379041472
1.608358496085
1.68202559378623
1.49317909008999
1.53639367125756
1.54938965661655
1.54034336411893
1.50173183269918
1.78959675617713
1.54191755961733
1.72967321736191
1.40849172462481
1.60108854619326
1.59528627233839
1.57230066884668
1.55007103000139
1.7492472609515
1.55770670241036
1.80904430345041
1.46329329793172
1.62359585083542
1.50760258086663
1.56745593736692
1.38284403013775
1.59473930994581
1.48445854760414
1.59087745578835
1.59964098711524
1.70815836150134
1.41569333678844
1.63957540991149
1.57229943846177
1.7280768106586
1.44188674955172
1.53514043900049
1.53334459128896
1.73962581160422
1.53853320490398
1.6485381513346
1.51020099376445
1.61597206165555
1.47009480439125
1.63528585947479
1.48069096510382
1.55468615780842
1.71612597879535
1.67891291824972
1.46857054442695
1.68121102568949
1.51316379386731
1.58656025186196
1.45821346731994
1.55777091789487
1.55436575346507
1.46857260937801
1.3468641106161
1.4622634945633
1.5541657465789
1.61098719922393
1.46285475643977
1.65061533038003
1.51672296303694
1.46306298224596
1.47342947069946
1.52388322674605
1.44051329945875
1.68357052733624
1.48105472071822
1.55693621009245
1.46607198391532
1.53244247429526
1.48667958473634
1.56836641069578
1.49158692797478
1.52738328810534
1.34455974770414
1.6105863867058
1.48334852641325
1.50619905267039
1.44721834689074
1.50843801469
1.38710924281483
1.50231705431109
1.33601159225161
1.51972974639358
1.45731782782973
1.45379355994017
1.29804916399621
1.40126186280621
1.48311675937974
1.46124761824651
1.39784006988237
1.38264467128239
1.41198449070194
1.54012291677573
1.36211608379914
1.45977897113399
1.46648425773935
1.46355922188233
1.41587771887688
1.41979259884963
1.37675174799023
1.52916845129785
1.48193130925713
1.41329790204516
1.40131013550487
1.41212581030225
1.37524485847626
1.34704252838228
1.3079036055698
1.53579309841971
1.34517096369097
1.40858025374019
1.2916350857126
1.41876756390733
1.36432975634756
1.35020689557669
1.30144557985933
1.31993141705978
1.31188375580027
1.33953279571628
1.32087286465425
1.34056401416846
1.34208456487733
1.37862462479142
1.26975039519145
1.37708435985882
1.35371699344848
1.33268587305849
1.31339411600888
1.29019168481894
1.27132982108001
1.30391937996194
1.2134730536148
1.30211998567881
1.20683950277298
1.21088625952596
1.20665541919845
1.24065857049927
1.23904582557868
1.25259902548501
1.22362737920677
1.25478706952815
1.20155778736471
1.3104391429274
1.21233821894263
1.198141216573
1.17639419450068
1.21937164563938
1.16418704740173
1.19239901365466
1.18304870436231
1.22125449740027
1.21421830856186
1.15596681729286
1.12121521851159
1.15459441508653
1.12373991690058
1.16695732057399
1.12981597845928
1.19723521002849
1.10925134758233
1.11987179372813
1.10806350181328
1.11219381860054
1.10449948457574
1.12673547435779
1.09582394670169
1.14588856813643
1.06605730564376
1.13361244455771
1.06324952124071
1.08578156824952
1.03658389304263
1.06291937387201
1.07304852445956
1.05257180296437
1.05474941987981
1.07584270864195
1.01987976706641
1.044892553085
0.995383196016017
1.04390824718844
1.00128917262957
1.01017835853193
0.979564388957794
1.01536854156925
0.976791592358273
0.992534153148741
0.9446257125618
0.968952232468299
0.97378409435434
0.962174372225368
0.941140108317394
0.962739002303743
0.938525600924256
0.951362810666499
0.937448006931225
0.96422557198779
0.923829910242133
0.942849630819122
0.922359697428672
0.944868137944489
0.905453292732989
0.923203668984603
0.898530423053674
0.9026171985271
0.868786943729299
0.876734239243775
0.872181051036763
0.897357463698842
0.876681069094372
0.897503223116394
0.879338807920148
0.891260573012097
0.854838056658732
0.864895153806988
0.831543143847605
0.844182163714457
0.828080846026527
0.85219606206097
0.826021773015563
0.845304129556489
0.818315977018625
0.833917717339155
0.800842180751477
0.827004481153045
0.797623990169991
0.808086744489946
0.795192753646664
0.789624525883574
0.76528928782175
0.797152708302894
0.793455387713531
0.772237310084436
0.751003018863765
0.76954348311629
0.761674259742904
0.764429262769214
0.747604456133314
0.753699780892644
0.747963081851114
0.747219916018157
0.733645718797391
0.742041407527969
0.723537254442426
0.746306811524433
0.724535154133251
0.7298732439292
0.707875486431496
0.721377428111384
0.711462875788332
0.700616397514274
0.689506604039833
0.701282344821059
0.685690537043645
0.701897576576208
0.687591445252229
0.700152947361881
0.688279741015048
0.679957266283502
0.669387811067355
0.681210486092363
0.662120057782595
0.665122701551532
0.64970454896376
0.669214169724378
0.65285590250836
0.640885133997096
0.642117399069462
0.641557865007978
0.62627181123976
0.63818616915126
0.634851298117853
0.637109551938044
0.62025527658724
0.631161190175017
0.61782079386987
0.614901289353171
0.609509444462569
0.612538465963866
0.614716240566504
0.609842648899282
0.605319424515865
0.616238197587123
0.595717921837544
0.594990992710146
0.589721763734706
0.580546179832528
0.571855488680755
0.580206729947199
0.574570775978561
0.584767310476077
0.570886184127635
0.572052905111254
0.569253076315267
0.568035095161382
0.553064823168854
0.551762510961936
0.554780017006987
0.558160250760497
0.544575025781969
0.551956540467897
0.530199234513288
0.538951136650991
0.544737838765664
0.539454878540596
0.526059936334369
0.532892882120053
0.527343354423622
0.529275784931585
0.517860634537335
0.523686482380784
0.518354855010518
0.530607010265468
0.511521918758109
0.520171886757043
0.514986760690694
0.512824851193487
0.510817907271666
0.505641802026266
0.503783787923739
0.517674902502865
0.508632825348777
0.514717026698025
0.499868932872736
0.509531135662885
0.509643654960037
0.505255463344432
0.491669809804425
0.501777188770181
0.502317470873024
0.507309422717965
0.497680082959788
0.497876134127727
0.490680160354846
0.499888886801681
0.504183951975321
0.50267808726399
0.496178058018052
0.498231353587465
0.496233650468841
0.500127743181827
0.498176758455433
0.505850910268302
0.508860613473646
0.509422728563794
0.505106993761239
0.510670627760854
0.512405680371602
0.516493020668196
0.503828022025759
0.514385015642099
0.514391358796837
0.520286433505485
0.51287319720905
0.526281111151936
0.528468472248498
0.526588574300274
0.516120014947846
0.529916377906755
0.524675846954772
0.526731486918575
0.525189831195751
0.545839707607369
0.549173664799321
0.544431814361794
0.534467641531275
0.537623216089369
0.536468930064694
0.548231269625227
0.549077255201426
0.555250861282334
0.556226397269757
0.562433824380878
0.562023457212798
0.565159540323643
0.569886937829526
0.584881877159435
0.579451957554766
0.583768684749412
0.580832970628573
0.587443734606959
0.592687918065815
0.599277663037471
0.601190616590442
0.610639316850712
0.606464191207255
0.620055096261178
0.627363097003726
0.632033608559477
0.631702287460259
0.64638227389087
0.638103687277123
0.643933000161658
0.656311314045879
0.660495865402255
0.65311776838631
0.663896314522504
0.656699798435397
0.660700051006054
0.657719005280325
0.672414735822561
0.667551088664061
0.662513493156808
0.659994417016037
0.664929171721174
0.651521804421748
0.668794705126563
0.663488432016234
0.663963800958323
0.66567040307415
0.662876998334981
0.655767312317739
0.672446820406046
0.64919735697234
0.648475666211936
0.64915150658303
0.65599679235723
0.660369799993736
0.653700501655979
0.647282060958169
0.64546701920235
0.640351170970665
0.644014401228909
0.639234819365101
0.640283490397031
0.638243186854676
0.637770051929965
0.641153511149749
0.654072007924856
0.642049034818286
0.640119596531459
0.629470889787028
0.640320437387604
0.644123679500345
0.634552310917547
0.631833398085651
0.642820742225707
0.626513452343038
0.632938474779764
0.63620379147408
0.637730495325002
0.638799016316218
0.641801638565286
0.638220797215126
0.633084538070376
0.626858694752251
0.640818634066126
0.633741483715164
0.627603392420139
0.619314437824593
0.623907069629409
0.623083445431203
0.629307339881859
0.626548396254155
0.61824502541018
0.61115520420137
0.615133669621742
0.609435289603215
0.612810062506335
0.610075567947308
0.607194146491442
0.596003944789795
0.598881833857042
0.601196434393186
0.597142125981017
0.588278710458305
0.592339278816785
0.582719088854448
0.578250954217027
0.571248907865608
0.572477285387539
0.5663356304535
0.561250899226776
0.554946171860851
0.553549759432822
0.549849255328918
0.551441571892667
0.545390155007936
0.540293739373961
0.531216916275138
0.523499054455268
0.528840276288855
0.534357788262955
0.521705594253144
0.519447891091267
0.518180423848261
0.517483179681075
0.51101769450967
0.508637068170393
0.503006934536294
0.500418918209917
0.495835034920354
0.499175632835254
0.499052615948496
0.490654786982439
0.484658774723921
0.483351486459916
0.480381915788803
0.480094636301544
0.470442921394684
0.476308077494938
0.474903724215777
0.469508701179529
0.464215341586891
0.462854057920488
0.463841981992776
0.461103992039787
0.457400828871373
0.456916948207476
0.451661964370986
0.451546415353335
0.454321197661716
0.455044663082419
0.44602686264065
0.442545458914399
0.446215948786106
0.44677707702412
0.436451420112325
0.434353379508664
0.43410615824441
0.434209391694649
0.433143787029458
0.433545235997128
0.425215116477305
0.420566158117413
0.419512790001497
0.423671350808979
0.426942490912932
0.42360468356545
0.419271691672802
0.418004657110434
0.409733538806368
0.411568212781947
0.412152758176514
0.408585481676526
0.40630781101223
0.405602025886695
0.411432538695654
0.411450399241649
0.402636868565915
0.403971094260086
0.400404456389008
0.398977863179063
0.39802605595443
0.397070539991393
0.397396043743725
0.397371299743913
0.394729501511621
0.390252651678117
0.387501083078899
0.386628933938894
0.385227106737219
0.390330366789663
0.390119677441192
0.389037443697401
0.388340991494451
0.384390888496846
0.385460657469927
0.383925500174541
0.376458779823356
0.380788131774501
0.378865095587175
0.376180764531045
0.377470187225982
0.377538919164662
0.380506118898395
0.379185307310185
0.376000413517974
0.37399119160201
0.371730138440376
0.370087873262267
0.372987604759092
0.375273635997431
0.370050846876743
0.370134101488274
0.368080751197975
0.365696048007752
0.364460615671077
0.365648032629092
0.365960070082074
0.36540826801701
0.36038568004154
0.36525548885993
0.370162254225729
0.357646250564419
0.356211133324555
0.364542605458669
0.361152345245453
0.359766597221087
0.358706802814839
0.356698201407661
0.358058668840082
0.358140525711676
0.355131159964141
0.357179146871057
0.352870448938105
0.352769410551129
0.351706831218813
0.346802938514425
0.353073746011832
0.350240569178877
0.345802294748125
0.34854886258842
0.347385967616971
0.34478131653314
0.343888554103088
0.346932538262718
0.348872861323548
0.345709000028899
0.34768869687376
0.347006780022512
0.338678994819487
0.343391835404034
0.343738082681193
0.34089304457967
0.342119999773755
0.344488930216559
0.345941278801283
0.340778299841362
0.343110295140716
0.341825776382461
0.341090507447812
0.34062438863693
0.334433035628839
0.334701540468779
0.337291015297428
0.338216115883735
0.341782006975974
0.341278939712913
0.337396672080099
0.339226319425146
0.339013124132467
0.335489101730523
0.338059633720138
0.334480758319711
0.330441300093876
0.330799862996645
0.33138471200984
0.33072195500303
0.332189154544097
0.330178237705899
0.327511320562025
0.32922859557109
0.327436341672963
0.325360628633288
0.325268893594171
0.321468844316031
0.328896108253228
0.326037306936201
0.322596325335475
0.323355063445358
0.321474027287494
0.324326550042514
0.323611289461867
0.319339390793729
0.317695665910829
0.314950686040775
0.314994856249653
0.314765145756447
0.315774783741726
0.314521507002718
0.314609594177744
0.312255991265152
0.310668696286979
0.314156442993488
0.316594633064789
0.310930863594267
0.309129483472862
0.308895644763701
0.307699383319886
0.307289109660599
0.306196446763526
0.308201058091383
0.308846387229815
0.304135381415498
0.307341127108936
0.303727694344795
0.302658511259884
0.306374498357102
0.301498316687866
0.298080950143664
0.301999642972114
0.298580032590659
0.298957024363999
0.302394702010082
0.298914327452023
0.292363783259898
0.295797654312743
0.291979367967804
0.296661449413418
0.29498316925364
0.293888492330029
0.295043761917128
0.289101360523773
0.291384883725306
0.288532328781585
0.281499921696883
0.292479674844687
0.288600343246576
0.281862702306606
0.287161365507061
0.286354792585066
0.280729831451509
0.286779322090886
0.278498378793751
0.277731429113201
0.27964576593369
0.276477499661547
0.275424450089013
0.276068735827442
0.274833315648315
0.274510864230609
0.274625628277064
0.27491676041525
0.270354852328224
0.271088160884962
0.267493115454229
0.269156313494447
0.269164433931901
0.265600127773615
0.262125795513598
0.264216664131582
0.264915696330724
0.26294422426588
0.262363074809304
0.264374793524836
0.25999157526721
0.258210949426884
0.254480103906569
0.255197609925419
0.257437924562528
0.256864902357445
0.254901463516279
0.256608139490249
0.254459006944474
0.255521525245693
0.253382666195867
0.252352172918089
0.252967539045741
0.252524743008768
0.250324851657672
0.251208243122909
0.250125635258579
0.2496100355898
0.245240004470872
0.250774549602374
0.247146246212301
0.245777904526665
0.246425199639951
0.244957578241554
0.245910892575331
0.245911938554678
0.2436210385079
0.248175654612058
0.242992358064865
0.244551294738334
0.245563837983939
0.241741375117641
0.240997184708698
0.245762435952103
0.24022265770084
0.239960238687214
0.238324132077949
0.236910348323267
0.24080773709051
0.239496825438183
0.234362602029819
0.237968041567636
0.23436793786931
0.236474631722087
0.232335541431995
0.234152571046045
0.235983349496315
0.231739539475036
0.231609305490257
0.235758342076263
0.229629737120233
0.229289126774934
0.226827059685464
0.225700391414817
0.228768955662979
0.22947889866056
0.223920890005619
0.227453550958505
0.229360166771583
0.230905096847409
0.225312495133229
0.227898538540281
0.227315026828136
0.226722175056448
0.227848148759436
0.221961922212639
0.225677234418797
0.233692588575634
0.225764425562796
0.22301623348154
0.224018904290383
0.225021439569828
0.223957913585705
0.226014407682213
0.226010462172666
0.229327454789043
0.222566749235171
0.222960631509058
0.222462901467782
0.223406377850257
0.220796277231158
0.222207121368188
0.220204944758282
0.221966890581877
0.218386557958149
0.22004396020228
0.22239926058337
0.220994635152346
0.22195301099444
0.22330771946932
0.2199498512383
0.21955459796218
0.21698279947535
0.218695554499978
0.216112247106544
0.214922409336343
0.214578435599183
0.216990819074609
0.214083901852255
0.21674800950629
0.214867955398343
0.210155929684794
0.209753861297438
0.212429574511629
0.211277195691372
0.211113624130785
0.209741255132065
0.212654981038134
0.211457364788882
0.210109747012243
0.20641206172966
0.21020847757381
0.210589036470952
0.208065431985829
0.204270295661958
0.210649543841051
0.205569593694381
0.205412826640315
0.204241155965716
0.208312204533223
0.206156692040942
0.206738742781417
0.206050040088956
0.206097937786433
0.203247861031217
0.205512255299326
0.20313479927931
0.202576696539582
0.201548514184537
0.204025589026696
0.202476540548052
0.209319139285457
0.199961083149953
0.201052859942808
0.20401833962113
0.202942516227947
0.201185265344475
0.204486722096027
0.202411077014995
0.200492681965866
0.202345218396296
0.201428396853138
0.196920247757666
0.19970497556654
0.195390364905935
0.200396755379423
0.198407230066877
0.196709239638253
0.199061989006027
0.198435047610713
0.196442174323584
0.195932666798808
0.195554126105507
0.195611355606835
0.19687910175981
0.196667720813463
0.190807292090492
0.193330571223153
0.192555236191425
0.193316658362426
0.189712366078991
0.189463675760548
0.191009965257864
0.191262574283476
0.189833069083262
0.190912840036324
0.188611198765542
0.190279106144162
0.186300892578478
0.184959678365389
0.185656816320052
0.187295805960969
0.18608972026766
0.184595908428143
0.184177902020191
0.18410840900705
0.180163044442686
0.18091156643876
0.180400608568906
0.180195677421622
0.179177559385637
0.179313627421569
0.177287371071895
0.180174728963704
0.180410132089377
0.177815299184619
0.176752468316121
0.179519922879107
0.178416652129154
0.176953019785865
0.17560909562228
0.175246131926302
0.174232513611005
0.178005837942221
0.176563817289249
0.174713308110467
0.17434762711678
0.174145339445242
0.171845261294607
0.174488668009425
0.169686086884165
0.17422481587706
0.171310648811092
0.169763883480281
0.170786116086766
0.173805834834129
0.169831097447576
0.169784707599063
0.167813268218223
0.169263774085261
0.166419913329495
0.164504356617565
0.166196804973226
0.170116201227503
0.165827095458435
0.167356072394367
0.164404869487572
0.164575023033992
0.164383801442008
0.163700620673361
0.162123668412239
0.165044747122512
0.160587554626579
0.159946733379364
0.159117888542968
0.159250689749842
0.158229957110469
0.156855691290898
0.15895295834076
0.157490600819208
0.157736750682859
0.158740427132033
0.157891365680566
0.155869066203987
0.156589905385894
0.155227525788118
0.15322255139056
0.154294102029404
0.15239896224917
0.153370395594771
0.153207844405517
0.152536014130043
0.151143873881089
0.151625077134068
0.151568049980105
0.15229152101972
0.151213691937911
0.151040828169993
0.150292520370437
0.149722591927737
0.150038894282893
0.151423352599947
0.148196603298925
0.150325427886633
0.150462074417344
0.150664780924351
0.149583980379643
0.151353622006198
0.150467632365251
0.150674228116175
0.150580411922941
0.148835143155188
0.148325594699396
0.150447167608
0.148953736911835
0.150028558946588
0.147934512739927
0.146276592776697
0.146928637417803
0.149854154773449
0.148594033890192
0.147376623958433
0.144596738871986
0.149625159486741
0.140000709591381
0.13996912330757
0.140613366813048
0.13662720903972
0.135896550650967
0.141133116833144
0.136558378735067
0.133520389453154
0.136629329241736
0.14524895304971
0.132337332725882
0.132140784737542
0.136693728081398
0.134209797147931
0.135184128419543
0.139541010545454
0.134151888409235
0.138473841107191
0.136314386819604
0.134240587730179
0.138693616154079
0.136931221728114
0.142708459613511
0.138762948262113
0.136825081728492
0.131788588545123
0.134791841754224
0.133709363802748
0.13124062529605
0.133893552115572
0.13333394039425
0.134020361174595
0.128879517005004
0.129906412948447
0.130466164343721
0.132325382263381
0.125484572546799
0.134056815621163
0.128342385962267
0.137941466831045
0.125230993292997
0.139059815811947
0.122472286733875
0.14220701393942
0.12190634334765
0.145344601797442
0.12263282046942
0.150728294622741
0.119652495417388
0.152117855963166
0.112909039753735
0.160146364091641
0.116498952503183
0.160177005641568
0.10866586307658
0.165165584655779
0.116528020451726
0.157734505573783
0.119352183196983
0.157015340900357
0.123738315911146
0.145135712651073
0.133816643676599
0.137480491051951
0.134096553845164
0.138422897914149
0.14043445598931
0.133464677042196
0.136430497220353
0.134807970726649
0.133823665413774
0.137832327740338
0.133690213113627
0.139020810317893
0.130604546319716
0.137000650583091
0.12918345457221
0.134749861564231
0.131509018092047
0.135543044603466
0.130393379059054
0.132190444147052
0.127931942287433
0.135012673189554
0.131671190855473
0.135988180885023
0.12950075788511
0.132991238218629
0.128155773280877
0.132209467848537
0.129126360759256
0.135452734000003
0.130401544668066
0.132418020438647
0.129347726695061
0.134797867162613
0.130283989830492
0.135019224716507
0.131214050204178
0.133821018201269
0.129402573784245
0.13410862272947
0.129853165267432
0.131471689688265
0.13134476459995
0.134723246089832
0.130616272045602
0.135677472129778
0.130977709969445
0.134841498305204
0.133846085657918
0.132808460471364
0.131698699571963
0.133672732018561
0.130327860757796
0.135269095969299
0.131329925838876
0.135965522790316
0.133025295365705
0.136696284394903
0.132856048802354
0.133802108496927
0.132637348483527
0.13381713319066
0.131676750060164
0.134295907198509
0.130475435416078
0.130895679671299
0.132790414156742
0.134359079089993
0.134047525608689
0.136578183635399
0.130529298141478
0.13325743539128
0.131954445804111
0.136622826844929
0.131400539328243
0.134359447665522
0.12835102901771
0.133139989004838
0.133064322247767
0.135134696435097
0.131189216929296
0.136052696529976
0.132908649049782
0.135340667285707
0.132062933639765
0.134079646262658
0.129574722635999
0.133942585875068
0.134003386781957
0.135508468347241
0.131595616876093
0.134851558877403
0.132436368760278
0.135569141388016
0.131980140920163
0.136216653240329
0.133325585309637
0.135200817597344
0.130979030949246
0.136750297828607
0.134294021680828
0.138158633459122
0.135251820434422
0.137449800308498
0.135343876220196
0.135786020255555
0.134190319629251
0.135279223487594
0.13545418193481
0.138000180454053
0.134124164047046
0.139070224295062
0.136785302174373
0.138624221212427
0.13587383483519
0.137664872630689
0.137174544244356
0.139969787653922
0.136520999229732
0.138457717304339
0.135221695140373
0.141524682475458
0.137907768176807
0.139850953286249
0.137839908281795
0.140472521358011
0.140188192469649
0.140689497121496
0.137136332452456
0.142384745172679
0.139766598228933
0.138843353660241
0.140280583646969
0.142332604231961
0.139730605749387
0.140071136460528
0.137845328921439
0.142717832581385
0.140589034507922
0.141440599270406
0.141547543593592
0.141777009123644
0.141394419965755
0.143244525223851
0.140421157883979
0.142502534930505
0.140166183544909
0.144590367811892
0.143657023089313
0.14507710277197
0.141116876903045
0.143299980893
0.140445898014494
0.143524422902563
0.140675988792862
0.143949326608539
0.143340702236303
0.147265778841071
0.143491314933049
0.146534679249903
0.141342809857764
0.145332003864148
0.146599644132618
0.147424012480053
0.14524721944048
0.145875883846984
0.145269641056836
0.146591470061982
0.144879065404638
0.146594405024578
0.145379553306619
0.145729378400888
0.144300224550247
0.14520210530511
0.144344290301223
0.148563511576145
0.143678264823569
0.146606941787781
0.144622709106282
0.14864588839611
0.143018322260805
0.145173521655171
0.143129696265907
0.147921326702721
0.146479591909147
0.148640833341178
0.145084070625906
0.147129556191756
0.144981507890818
0.146507775646248
0.143275903518911
0.144980554131068
0.141613424411086
0.144996788836268
0.142826608356231
0.141971642109438
0.140279064582745
0.144098540978786
0.140171734181373
0.144440531272456
0.138288841869965
0.142799866718685
0.140710876685684
0.141974148786287
0.139551421976296
0.143871886607116
0.139631823940615
0.141520602398316
0.142204809614551
0.14305486434373
0.139112832448978
0.14084643883671
0.139393610464591
0.142369983290764
0.137685113391803
0.141255749223861
0.13887641737172
0.141723158088238
0.138516180351939
0.141953110127868
0.136991845824339
0.137982252451424
0.138770691499155
0.13858121571691
0.137641682663515
0.139684748423618
0.136380463445126
0.141067497533714
0.136388537189553
0.140264801177587
0.135276108112559
0.140369408584743
0.13670982390662
0.13843175780978
0.137379580290555
0.138305257295883
0.135177383703324
0.138529631443316
0.132626419755401
0.137342534791779
0.136704990484597
0.13901935199607
0.135698713003366
0.138690521560167
0.135755742648672
0.137866637409829
0.133736715844634
0.137506753915575
0.133242479227679
0.134699441300457
0.132536078398169
0.137395004923731
0.134426341982602
0.135925889687036
0.134555303301415
0.137269234512407
0.133959060768318
0.137171322639171
0.132256466439714
0.134287020988754
0.130365942788589
0.135256225878605
0.1341801704319
0.134734789230292
0.130455139353981
0.13354702834345
0.132904831134423
0.136574883453099
0.130312018312752
0.132606973952121
0.13147977413557
0.134109951213091
0.131083053735904
0.133993494303699
0.129714426183355
0.132864549480031
0.129296128236344
0.132363786698264
0.129261683380782
0.13232307321937
0.130976021753448
0.131049981929877
0.128384337330279
0.132803226368879
0.128167491084164
0.132592611150874
0.127362472569177
0.132898908252118
0.12742831714028
0.130118446436956
0.126579530081934
0.130914874700452
0.131337479902939
0.129284794243044
0.124402840607303
0.127345769270419
0.124783542437636
0.128035748420404
0.123328232178727
0.126934132861975
0.124422293156602
0.126184126644849
0.124773426928879
0.127181147986482
0.122359523618089
0.12143734234944
0.122751444788841
0.124695824261033
0.11796331708868
0.124282357681512
0.118623914052659
0.122896638961104
0.119996648711962
0.12007343272035
0.1162867653126
0.120254782349632
0.117951640115862
0.119322775551542
0.11999933029596
0.118047815035928
0.116278254341278
0.115322071198358
0.115961937010909
0.114659395956848
0.114635144131785
0.113212581599706
0.110306092276854
0.115969419696003
0.108774980216216
0.114848716874027
0.111448330159155
0.113119235377807
0.109269366541555
0.112929831778079
0.112500783378095
0.112171903834393
0.110579981427457
0.109604091179716
0.107108899583835
0.108907851482685
0.108004462590068
0.105315964114134
0.109633523582338
0.107537105620304
0.112501627943899
0.117381574867287
0.109252103294634
0.107027870136737
0.10742802573741
0.111026765308213
0.105999746872644
0.106530224633766
0.102703366213257
0.112102550775747
0.104138132258398
0.1071090025184
0.102747287873535
0.109618667459168
0.104083696819202
0.105508037516317
0.10277724081218
0.103274713784451
0.104356434563076
0.106027336007946
0.101264763140829
0.103290326314412
0.102769550634076
0.104650367598222
0.102419619590889
0.103670629346791
0.10309087805282
0.112176276591739
0.105652944292223
0.107435260334231
0.101570366073297
0.105494681354137
0.100388741258821
0.10486626331542
0.10034995332809
0.104425156321526
0.100287195549576
0.101045620320453
0.0955928456963548
0.101402498130659
0.100683947694445
0.100912446525926
0.0977382822526808
0.100536483242423
0.0956978570072383
0.102622893834843
0.095027302992807
0.0997763492946891
0.0937794872592389
0.100659763101749
0.0974310850761693
0.105132504222852
0.0914030337843123
0.106281995906516
0.112245848936329
0.102324669646815
0.0981877358490618
0.0985822822381694
0.0966466394833832
0.0966242221365989
0.0961922950658741
0.0982033623864503
0.0970774244607512
0.0977799493221575
0.0928877066958431
0.0972528702826359
0.0954826968185423
0.0946972911021857
0.0953391560882789
0.0954577056943293
0.0953732700765423
0.0979103059224309
0.0969956435617038
0.0944193339491517
0.0995332898685909
0.108005006665606
0.0971375692175434
0.0988237999129554
0.0945216998791074
0.0902105548739585
0.119182049475792
0.0986116411022711
0.100757576166382
0.0931787283689605
0.0965533795516491
0.0935573680013313
0.0985643639009842
0.0913498139946074
0.0968691982587015
0.0975102432744115
0.0932999736573715
0.0986780658427217
0.0937076474841132
0.0943761341355016
0.0923738613108299
0.0951340303804596
0.0898490434894054
0.0949306131749298
0.0892748394272623
0.093287522210544
0.0919195223988934
0.0893131978677766
0.0944127326835505
0.0900548383507376
0.0961124155195481
0.0963324258015701
0.0918975098531836
0.0918410601030684
0.0966319577734779
0.0895589483806636
0.0983511600987261
0.10843990523713
0.089224710458775
0.0970763449008133
0.0874752402384233
0.0941816274789775
0.0905886639891866
0.0954634148496861
0.0884573804982292
0.0945690564037738
0.0874760481625854
0.0941293053449531
0.0892880264089444
0.0935944277931564
0.0905262923848622
0.0947703993263848
0.09021827072782
0.0916614885553098
0.0911453145534422
0.0946319586438409
0.0960166739781632
0.089494334768712
0.113224542706849
0.112430489836889
0.104534781174192
0.105059470143111
0.0952016953716353
0.0922603089450099
0.0905031083052469
0.0930467067143938
0.0912634690619692
0.0948772928885445
0.0904320426462137
0.0951162875208048
0.0928478104925989
0.0937341975446144
0.0873865661458366
0.0947167250545329
0.088717042804933
0.0948370068098299
0.0884013536972612
0.0961352098511178
0.0883599678020453
0.0981759186837252
0.0851880421254319
0.102922288167758
0.0928923331876124
0.103308159496821
0.0754276027186988
0.135560775135444
0.103541045833058
0.10353890847988
0.0966101142437706
0.0929965438708842
0.0926729902761175
0.091211195510332
0.0922383107368104
0.102095632286966
0.093349752210183
0.093558831824515
0.0922707993719032
0.0978425654481853
0.0943288659486855
0.0884529667172298
0.103332373051819
0.122616859438094
0.0975993146328035
0.105672785790308
0.0860657470459534
0.102682085098518
0.118042418076445
0.0982887038820203
0.0998790601938363
0.095391780606002
0.0959430885338182
0.096636392398115
0.0957740577578094
0.0944444517906999
0.101415514000813
0.100255707567493
0.0958193057877256
0.09632885492771
0.0950266130979047
0.104235632010373
0.0953252557068516
0.10884421603039
0.103347935010144
0.0962474972492065
0.103242866694056
0.100550723582829
0.0967951102662869
0.0989157849749429
0.100239707381132
0.0979338138502627
0.109090475386481
0.113665904093312
0.0990491085698181
0.114529277006291
0.106432810666079
0.0969846332662972
0.104933728878541
0.107533530008512
0.115886982696861
0.0890433202132511
0.119833001910796
0.124713579309879
0.117256438398346
0.124459879567422
0.0995392314683462
0.108961223639529
0.0970965366973287
0.106171957882268
0.0969187004367211
0.127164094429388
0.0969004866362268
0.116746756479611
0.0919452861621736
0.124647862881079
0.111137858457095
0.116528241804804
0.104329708643673
0.112476761801545
0.102683517682689
0.1249266743159
0.106240779066051
0.107199230148876
0.138600762924971
0.130883186011977
0.13177579818807
0.114898946920635
0.110557940173646
0.153653828207292
0.110918913530937
0.123430947754042
0.103599883474173
0.119923864035296
0.103965851812204
0.119600430541036
0.141075395251732
0.120987545471726
0.117509869650748
0.121906373694994
0.110005246507934
0.147756193514829
0.125625913689184
0.123973227842297
0.114658291967472
0.127305614596842
0.102525818167817
0.175198290572984
0.124963502493059
0.147523642372115
0.143096575083934
0.146456889958893
0.137498344272984
0.141019284427963
0.129514293274758
0.145375773257435
0.149403003662301
0.142218248510026
0.119520705995595
0.16152682333946
0.158015716351893
0.137011422202554
0.150978282653969
0.137831509789808
0.137811209198211
0.178881780350621
0.191842967537764
0.179600442747457
0.148745727490496
0.153791461458338
0.17786218718088
0.15342917255508
0.153125085877517
0.154637624071523
0.153683799563557
0.155745132414194
0.156997868291217
0.176200834314718
0.15570617527668
0.169825202850823
0.156273550714125
0.171715741890141
0.181632154088571
0.227926689476671
0.206539525367333
0.185012054076288
0.219059989041724
0.195651204428057
0.193263386687094
0.180917941521594
0.184029030269225
0.196942311267443
0.189423274028508
0.193631354219788
0.186830604483434
0.229375079721112
0.204457209197252
0.218573565490293
0.225473730067294
0.211037852748981
0.219577711006188
0.218448906373116
0.397350173632951
0.236559392127006
0.256033679072449
0.231979226768534
0.265944402358418
0.31394820896659
0.267175141426524
0.261527338524554
0.263965485071953
0.262773264678925
0.281088197612867
0.288403978438889
0.294132868171204
0.30984926640226
0.308508425816362
0.299471946332697
0.338035236265238
0.37962347013068
0.391682070635804
0.353093536193622
0.344033614297061
0.374590030007684
0.378114433139403
0.360790658541576
0.381200800653225
0.367571738230886
0.391609557642739
0.443639167415527
0.407792205000117
0.412734016339456
0.426643514897151
0.468251085961306
0.416709903394268
0.508262000608255
0.464908554217812
0.475041213025135
0.461654883111544
0.477198116480822
0.478527719114753
0.481033422737151
0.529261417930395
0.526651944352049
0.515469650954528
0.523537004976241
0.5271237940832
0.532952006501404
0.533280368090677
0.548007510720005
0.547475951397111
0.601598653731441
0.563396351672658
0.741077572501676
0.596348200550827
0.573792558568289
0.569847755438849
0.568569741415242
0.602665339762017
0.60365110084329
0.640647737610814
0.613313691725376
0.565713996409558
0.592509858356189
0.591808846087521
0.596787186078637
0.578909227365588
0.595012866233343
0.580229143254716
0.631737844714192
0.588839476438926
0.662550656883624
0.66141139095904
0.590049297652371
0.575189434382446
0.580418378554609
0.575306631497067
0.584492754627855
0.56829694629079
0.574500491664063
0.590073698214627
0.574247783617706
0.562745657284278
0.551855322163884
0.58488102076807
0.572795306806221
0.541159503510106
0.546614606609263
0.521107610888314
0.535789218692967
0.512703340857932
0.534886636967771
0.572784755097768
0.515454172404045
0.51116526131022
0.500185641531906
0.491878400955375
0.492554772691906
0.484608832917834
0.49457070455969
0.493306365563048
0.484293471477108
0.48313775754841
0.474366001286487
0.468704011734195
0.460859850989352
0.477669035789965
0.462313817768991
0.457550668509281
0.46040162092098
0.460802636183344
0.462874021285504
0.451811209284334
0.455527423697299
0.449547778525038
0.46059206237439
0.461418453797606
0.4482876354089
0.448532218121134
0.451050573069056
0.449195442781107
0.445184778229555
0.443652413523735
0.442181511402859
0.436836993667923
0.444476573336085
0.43523555161297
0.445090279359874
0.435859999279575
0.433855589000725
0.430975434078396
0.430761743838113
0.435704924868504
0.435668148368845
0.42281164501174
0.502449447383726
0.449353858986836
0.428786332011865
0.424988693936051
0.424143249671591
0.41822500311146
0.410271019932624
0.468751582445013
0.436298360046851
0.411769318757243
0.407524117480041
0.395395640933164
0.416041799086029
0.406488287130679
0.393820103326193
0.401397995859327
0.379365171417368
0.458763522091266
0.459074849497661
0.462452245796916
0.46527653153995
0.411283541883017
0.378382978511941
0.38931785769682
0.420023293880764
0.37549923161299
0.383889778679141
0.366152299679105
0.419839720761864
0.378520739985161
0.371482500849814
0.368274307439252
0.359750057502837
0.385503253557879
0.392172068024372
0.360015261403636
0.384373353424138
0.396008388439223
0.373306765982375
0.399102205344533
0.416353535037206
0.379291956868533
0.34342739255057
0.345973018226588
0.337646433948965
0.348525518656362
0.401155465638832
0.347632588817592
0.351956965114941
0.327478831723923
0.327647907168461
0.330795644444261
0.354838593843421
0.332390819472264
0.33019777950255
0.360281266772257
0.314470395828073
0.33109204425727
0.33396079572037
0.366211505583756
0.36684597726813
0.32876221761234
0.308281288755673
0.34984122150226
0.345871145644488
0.317695123151501
0.322916671167227
0.298176909467175
0.307888606870165
0.325626118992035
0.299445271617666
0.317933375418901
0.317797667124864
0.319487757140971
0.355070031323224
0.361971080088757
0.355312465974232
0.308881628931091
0.292815238392257
0.296875786732543
0.296544711146768
0.294962682503452
0.281754012139842
0.326550485940066
0.304425768509582
0.294632672034473
0.352208331118849
0.309332335380561
0.305083200738005
0.30774110453452
0.299782074944221
0.31692230807124
0.343781022680715
0.352273593650123
0.335689483496192
0.335979835413835
0.347078718946886
0.326105362788049
0.337104463380737
0.335502110022905
0.345219899949107
0.342903807639654
0.359400149619113
0.358578457421747
0.370239920670507
0.376301011054974
0.375573293998025
0.405233089228904
0.426479653580085
0.391249386419087
0.441827024015043
0.436067936469309
0.486299847410933
0.449960599527031
0.446847976067868
0.451594891887264
0.456554588993321
0.469380387810496
0.471669165920971
0.485710589113402
0.524746953636429
0.496073081911872
0.505138718759417
0.497526936116353
0.518940795557489
0.520941829218031
0.563336778517476
0.543374694537995
0.601754290253537
0.592352366926959
0.565031460695494
0.551140990550615
0.541940660018294
0.557461057685968
0.555650349493901
0.550844017437674
0.550496934459028
0.551423503334525
0.590598528591652
0.562567298697847
0.570956832645898
0.564475617805391
0.564238905545448
0.56992110678517
0.574504298610363
0.572393157956448
0.584440697613366
0.579267903324309
0.584205051448526
0.578923831067191
0.683346502177947
0.617355348978361
0.601252124212676
0.611972988215192
0.613600037596884
0.614560420349428
0.613798689572786
0.633195291032968
0.640240554634755
0.632483788683014
0.645873207912024
0.637273331542268
0.652884583208621
0.662668552677445
0.682075177920299
0.65254578461444
0.666704960583882
0.644543336260384
0.696017812934716
0.717881232642061
0.687038868116733
0.684516953644845
0.68222608177302
0.677441939617823
0.681631579521667
0.681531631468141
0.687831306345893
0.690321426124263
0.689792149802796
0.68368772744615
0.676811329625503
0.690766997416086
0.685896667876133
0.680872951124675
0.708236031984279
0.682938115526475
0.681496054968984
0.680292430017625
0.681216190164395
0.679603215251872
0.699428173765444
0.690874459364655
0.675784882073495
0.674750409951071
0.679837419457315
0.695668184246847
0.689740515818087
0.662765897666549
0.665970965526751
0.671671921285681
0.681858803041411
0.675125043005125
0.681587053122404
0.710320841559564
0.692273394208392
0.685945120785606
0.690121019233788
0.685943898296245
0.69392825646348
0.700739046320568
0.702658271955276
0.709367096190158
0.720224305071849
0.723593151463349
0.720364604438143
0.721097644155618
0.732799280940715
0.740085878625327
0.746503204658991
0.721752258877078
0.725305333608481
0.726909477275089
0.726697578566584
0.734339534419292
0.724745474771009
0.723761199319056
0.724633623001559
0.710590310320767
0.714543088582302
0.741760543149022
0.710307748585419
0.718412605196271
0.715757397046256
0.68855686614045
0.708571784136396
0.694074871896149
0.68591994229859
0.689705943356502
0.692329930172359
0.675823254658332
0.678654652162857
0.673519953397611
0.671461296924732
0.670354267035216
0.674281230423863
0.66654715712358
0.670997571825261
0.662938577017478
0.66367354676534
0.663732116342782
0.66087177011802
0.665049065683978
0.664929447491995
0.673925888596955
0.684181049570538
0.677876370457962
0.668264023774954
0.665048591262634
0.665899994123057
0.660684193698233
0.670416071961362
0.662816977350457
0.659113574453579
0.658553557201174
0.657857822588613
0.652868853772617
0.654041203424537
0.647085025288929
0.652849183289341
0.643338253682745
0.644937460213095
0.635916372643838
0.637939796366554
0.634383775397211
0.635708088729478
0.630054531230234
0.643126075449745
0.628995665175132
0.629944243403058
0.626578860767442
0.62054821450829
0.626104749105461
0.622470501772347
0.623519423135704
0.616344705413053
0.612526388540985
0.617148973568954
0.614879211825735
0.617828441214016
0.620616858772178
0.616040020373378
0.611462214086508
0.614251341717118
0.609812368668252
0.604841328060853
0.604269828918746
0.604776337092111
0.594600021147225
0.597271240116483
0.595678612830112
0.58659364459727
0.582023137512892
0.581134340600693
0.572927393950636
0.568461333531892
0.561516957144072
0.560215200306451
0.559489315152621
0.552706319462463
0.551136930221795
0.554429889793153
0.54978911470542
0.547605102082738
0.53973401914473
0.54153890377778
0.542958649733735
0.541888129033923
0.537043612871313
0.539086255636759
0.537968265147577
0.536680214883063
0.543272973960392
0.541458440401381
0.537071362154859
0.540554031803044
0.542827779693543
0.543717786811302
0.548520894615319
0.548597973753552
0.54918490424398
0.549042673272018
0.550023493186139
0.554783274755887
0.554948035482821
0.554861463174066
0.554571583277712
0.559186018163374
0.560852469770445
0.560473143095133
0.563722811548288
0.566155604273117
0.56666274092125
0.567421238323232
0.561848705876256
0.564030203631121
0.563068094217743
0.564802774517039
0.557461868382128
0.558044638490044
0.561649688457266
0.556400760886732
0.55496020070261
0.556633712827879
0.551720010822823
0.553106671183002
0.552742579782931
0.552098103342536
0.549182076736629
0.545509409710583
0.543710112464183
0.545084722078994
0.541453528776279
0.54093843430016
0.538115857001269
0.537812326950738
0.538336629013471
0.536200082606578
0.534024059874844
0.531589783779878
0.525913541985426
0.528357732212434
0.523816212787037
0.520391743265022
0.518468523267169
0.515103750760895
0.516233012864448
0.512004245383607
0.507162521314016
0.506098904200572
0.50095271412995
0.499332132824297
0.494715432582139
0.494008576686127
0.489854591279965
0.486312979115562
0.483936683084192
0.477331306907121
0.478142671041383
0.476129013240104
0.470380025052211
0.469250274903654
0.465501872610939
0.463349177164698
0.46135343920346
0.459218472526673
0.459153507653356
0.461670945989807
0.460683025375089
0.464047887993539
0.461078942502857
0.460322209928798
0.458706757604146
0.458456165341254
0.456759774517074
0.451265214471304
0.448730506510004
0.445363283545994
0.439581432576894
0.437303011185471
0.431795759516329
0.426885475493955
0.420220866338151
0.414699301644191
0.409192172033741
0.403354236663341
0.396043759100553
0.391403687680206
0.389508455945568
0.387068108811762
0.383533428190138
0.381755807990879
0.383065617947737
0.389337429300739
0.390956357933125
0.391327261077083
0.398453791229095
0.406777703649651
0.418889804792383
0.428892073670422
0.43945460883301
0.450546333174414
0.46760780137766
0.488103649035375
0.502815579507088
0.524165047300647
0.542605811468794
0.561595830393345
0.577478575405617
0.601047327767723
0.621905624200435
0.643731741974864
0.669297643817796
0.697610304776729
0.719439286284113
0.751723905488584
0.782544465746965
0.80388600268882
0.825646533151662
0.856336627620636
0.889190536932478
0.915075111316172
0.934579025410723
0.956519517023451
0.978329369258896
0.987882864880755
1.01160065567931
1.02617929810745
1.02626116062146
1.02194266781392
1.03033119007032
1.03330655345708
1.03663973737702
1.03563710756515
1.03010076910534
1.02492822849397
1.02341817017244
1.01202913434036
1.00265699263455
0.994695545984268
0.988397532353182
0.988921805934389
0.97733994063032
0.970510980599686
0.966560235588032
0.96871334161974
0.97319845268615
0.963051546725009
0.975681931846759
0.97221805396832
0.975094639006976
0.987384870721284
0.991908003544194
0.992595467225542
1.00749127334264
1.03173109373605
1.03359435342504
1.03912427524788
1.05873322689156
1.06428413041803
1.08438130224186
1.08528289060598
1.10596647588033
1.11027525566159
1.11497978013135
1.12236593146401
1.11861177244786
1.12089693546451
1.13258563307973
1.13811693354892
1.12664067828756
1.12933865348211
1.13396094467641
1.14222386500188
1.14520195615645
1.13533290544985
1.16426204565169
1.15606631618676
1.15415119648743
1.14796016498213
1.17072382867746
1.18168818855765
1.18535346132809
1.19256814733177
1.19345981093212
1.22256896408802
1.22238693688165
1.22803144413717
1.22833291046805
1.24433048243578
1.28194924246335
1.28815993592424
1.30126934642165
1.30760544382808
1.32542540214002
1.34953910271151
1.35485971243468
1.39599373325012
1.42899788283284
1.44764695414937
1.47341594217231
1.51431928204245
1.54069060336755
1.57162063907527
1.6179494277822
1.62365813243721
1.72073389473345
1.69862525772653
1.68418266855431
1.7459869934053
1.72722639947465
1.81892477139855
1.81974934654378
1.72168207576866
1.7686468833493
1.74726761061149
1.70199650880329
1.68999858689519
1.72786687776413
1.76064227400667
1.72037878148439
1.70071890282198
1.74584301200163
1.76849645051387
1.76116194471554
1.70582647045711
1.76852600748333
1.79994409177428
1.71672477656112
1.7693401211414
1.78041836125981
1.76460515529309
1.77203303796028
1.79840157519113
1.88886716647795
1.82730375150503
1.87722882933303
1.88198585280996
1.8278459465163
1.92611518026311
1.95925414551716
2.0429253372076
2.0680651236692
1.99330117641122
2.02258276261829
2.0096607996094
2.1291261702655
2.22001183541584
2.28991774111071
2.23090811044075
2.42972225157096
2.14404099126679
2.10920909960501
2.27969717302365
2.49493759454372
2.54112500997052
2.42507349713768
2.28869334379879
2.16063148972046
2.5822536820651
2.64490831031467
2.26188498223682
2.60795863673697
2.64480576143811
2.43758965673155
2.72742228258577
2.59560160863911
2.4895578176531
2.77927334701772
2.66018866436019
2.61825813074656
5
2.29802260188833
2.18110503607676
3.09023384957765
3.2751597772956
2.480431588119
2.63759134675166
2.38935071527985
2.10871412264436
2.26839979906812
2.63059697241594
5
2.4613754420976
2.45017785106896
2.12540703353216
2.13484891886902
2.19092807351408
2.28696307764918
2.31840028684945
2.00200475945347
2.21580283342044
2.50992852010257
2.0784588043435
1.95673798141375
2.05486983307085
2.17078936966368
2.07604429608221
2.03093715198009
1.9836137926096
2.27123727441988
2.08428760114926
1.86418012957507
1.8828353067396
1.82660274191746
1.79779105314749
1.83091647127688
1.69589835114396
1.75863280817961
1.71446692097729
1.61253385980429
1.54531639015628
1.50672244095569
1.49831639097304
1.41297800292191
1.34521920654194
1.29154299758954
1.26054288441117
1.22740920593721
1.15948629460186
1.13302610778424
1.07045110920703
1.01209682513095
0.971126530909354
0.94244509716262
0.907225833931355
0.890978940600781
0.855792605384165
0.831045854171477
0.804724180685562
0.780857335876196
0.772997249354387
0.756646496956708
0.740926837117882
0.726852563039381
0.717598439357058
0.706967556955377
0.699139109720156
0.696001585365915
0.690968728387233
0.689368743229942
0.682173268069394
0.689694789277171
0.694997488336767
0.690908830904515
0.68559619348979
0.69558727979659
0.7031742272099
0.700615279635722
0.717333703468451
0.724055960103311
0.720045700394013
0.722090432986097
0.723670384232401
0.728913417210863
0.72708398947795
0.72876851260517
0.727038131920902
0.729566007339167
0.743788005614562
0.734198679625076
0.729956926918404
0.731829863092795
0.729420448236715
0.740436804548017
0.747013014111865
0.734320009257074
0.738481988726778
0.745207860360062
0.750190467049472
0.748496931265179
0.756864389129529
0.752154141019352
0.750154736322777
0.745897285321854
0.739736067808671
0.735450514717507
0.731668943496896
0.732001307786949
0.731754058335333
0.725858246420607
0.719831113820758
0.715460034619644
0.71621660642194
0.714117385307795
0.703514227590145
0.708684472098121
0.719937458235199
0.715421247432421
0.711695949627354
0.710700701536037
0.712580995221693
0.718661323539177
0.733097711696751
0.732676543294859
0.74029553212291
0.754102486586343
0.764396930660996
0.781258313608501
0.77791609111349
0.791465051428985
0.805398329376506
0.81020206441823
0.805338654452399
0.813734109788864
0.811079604220731
0.794243446602339
0.80633115479958
0.782091155015173
0.776930654488474
0.783772291888377
0.766069094808143
0.755548040627956
0.748933613052693
0.745089172792351
0.74549629476503
0.741228203784287
0.735254832646267
0.742412237371461
0.736133539857336
0.730638564977727
0.738361523806775
0.746721024271152
0.734946018113834
0.745665300289839
0.746512303473154
0.756494595303863
0.75360837140563
0.746273039818776
0.747521250847556
0.73797824801801
0.748034745913768
0.752328033112793
0.747021857040999
0.748008200029215
0.755044614178698
0.747514247228506
0.733511322311623
0.743605250994102
0.746224911563472
0.729860115595772
0.773561047954635
0.770543772714839
0.750876852352612
0.762639503595312
0.76494741556738
0.760650163284934
0.750442629866303
0.745432286400968
0.769279276796738
0.755512105742186
0.75680282850899
0.762330214583602
0.752335006987274
0.751757154153375
0.757042522855222
0.766867848403457
0.751272603754841
0.743348288880531
0.74548912903134
0.725945443995519
0.723001980885825
0.735936116870875
0.748318650949731
0.731966504438989
0.721547168461805
0.704700570010423
0.712649864226591
0.730216233813763
0.726351660537017
0.700249257493316
0.698536488074269
0.711403099945023
0.71525467541456
0.699197682567711
0.695066581913202
0.688213746441609
0.667199624851631
0.693401387683861
0.712640406198166
0.709864987120594
0.710552932344068
0.684076088425267
0.689025633792482
0.727452476726217
0.712753389624332
0.690858856943618
0.722214186165191
0.724576204305234
0.70094382520218
0.714643511547839
0.720091988118818
0.713027480655604
0.72542368723145
0.72212181116102
0.737597503564544
0.770087131653609
0.757790756673876
0.749389425758796
0.755168421447287
0.746928384940132
0.786065734451347
0.800892912992951
0.758875019591162
0.799326222469911
0.815076573166813
0.797772453427133
0.846440525888394
0.827354101518629
0.824143260678259
0.852492879162143
0.886550526261087
0.902073148390889
0.910484721520271
0.897047569324857
0.949855523336937
0.989805656590106
0.988368629044107
1.01065849548081
1.03180392503308
0.985856557640827
0.993629812891034
0.948919058864157
1.03601720721417
1.03369018859701
1.01324940595795
1.02256272938286
1.08010177265923
1.0209706744164
1.06425136385678
1.08746306442695
1.03195645097611
1.00531595531852
1.0683538890873
1.02385976916762
1.10976129687772
1.05809083009841
1.08554354823975
1.05628931471772
1.03165435515456
1.04133043654491
1.10748131895267
1.07746567206451
1.05952273114143
1.07778878663795
1.16734599912862
1.12403744695237
1.18031583349943
1.1161157268559
1.06109094837269
1.02164588474579
1.09740127994115
1.07151976312139
1.02443293052456
1.04757008479054
1.09620949417145
1.07486634210632
1.13556500600759
1.03407727206807
0.982745268265044
1.08350766514409
1.10300303710544
0.904611177686892
0.993522458880947
1.01968831430121
1.06678394011948
0.942230198288252
0.943712986804899
1.08760154866386
1.00667224100447
0.95500074241747
1.11834724669305
1.06002010791073
1.0229870775238
1.15465123519301
1.16173836284864
0.992198168301077
1.03903120177417
1.14308076463631
1.10129900629446
1.01560259742867
1.11980745948478
1.07967698214176
1.03936778288384
1.04858764139767
1.15630225648431
1.00574897327188
1.10472695349448
1.14105815251393
1.20266522367978
1.1440337667855
1.22661905827105
1.29555584233075
1.12354873355209
0.935209296761368
1.06630034105072
1.14758482418814
1.23195903125903
1.18837855029125
1.29374923630882
1.17476497092408
1.17515823801955
1.33408164878915
1.27466307906162
1.41527071888117
1.42486914697538
1.33923756589194
1.32616456899264
1.0908445209241
1.7377436382439
1.6014551182771
1.88035290757165
1.47664103167377
1.45110611780214
1.60155481608854
1.5672858197703
1.05542148379425
1.04033982412077
1.20943468987967
1.41877115906479
1.08597988710898
1.18771242890076
1.08472641201817
1.22010501140809
1.40949959534479
2.02631080113199
1.31292767296804
1.5276993182328
0.959265319639303
1.09922209406379
1.0086699209164
1.81661687293512
1.41356961221049
1.2574528686109
1.2213141162982
1.55978660422346
0.985767517595386
5
0.983173437713285
1.4536789737313
1.08426314651086
0.950216743780696
0.940643067809942
5
1.27948154921967
2.14867230624304
1.22055987191942
1.34354338793012
1.4239963036759
5
1.81315456133429
1.70192260899161
0.737357701391395
1.43665484358646
1.17874834098533
0.930326818650344
1.11385740235046
0.870315229890366
1.01744665115456
5
0.837652990424772
5
5
5
5
5
