3596
4000.36533379555
650.420452594757
1
2
2
0.0974022241289702
0.0769977104076221
0.102989042786943
0.089254030151734
0.0993870395573637
0.0968184668118489
0.106119683013339
0.0874839629885489
0.100611041594176
0.0953387051013871
0.103946093006899
0.0895817195581282
0.0956617792846357
0.0882336335503215
0.0949377211445369
0.0835990085498881
0.101122024630987
0.0835961561176816
0.0976630191488941
0.0854941989686749
0.0979115418600817
0.0868906834542256
0.102357375865269
0.0876684365752444
0.106145651529097
0.0827282638079638
0.0947572973660253
0.0818593447219671
0.0954066046891656
0.0953306245573599
0.0996823017955122
0.0881176676389271
0.105754208756953
0.0776108969197777
0.0928327239087975
0.0899455992031429
0.101475906300438
0.081156033569658
0.0928971041976239
0.086180760589917
0.103582667269774
0.0868336964290877
0.0982843313541636
0.0823247264412375
0.100119172297287
0.0901838882547788
0.102260772167233
0.0778921422323169
0.100195564975365
0.0854446501364656
0.10199006551715
0.0875291765837319
0.107615718670317
0.0956519235738224
0.0994871164173862
0.102320511945591
0.104244596939184
0.0897231926636985
0.102629359979139
0.0834593905363722
0.114281409699658
0.103298309529816
0.0978824689896676
0.0870748372121326
0.101680108804381
0.0888308051759712
0.104594581042504
0.0857665632944311
0.0930523477844294
0.0893096059743112
0.0971317299344619
0.108787986475251
0.114322896708433
0.092977441287598
0.0985478036391034
0.0861817884091605
0.0930100029229656
0.0773257866658357
0.0896836181724804
0.0890972053819108
0.102179536203319
0.0884430759849233
0.0941880045753331
0.081778668411715
0.100257755238051
0.102912375131931
0.0868095990323087
0.0907097863072211
0.115351897529859
0.096753772214125
0.100684499595035
0.0786217991980358
0.0876814494000964
0.0879669013515506
0.086868876481667
0.0855954382507351
0.0906674344827118
0.0886625985878742
0.0939783509951865
0.091923989875856
0.0952152198784694
0.0983420259862812
0.133801932725122
0.0792720765760956
0.145856102116458
0.0936379931198695
0.108647429218514
0.121095510923258
0.107536013609956
0.0938852025298252
0.0932401814589972
0.0872667516702979
0.0983176948826911
0.0913361638260177
0.0853039090860495
0.109274566018225
0.121191243568657
0.0935741525543699
0.0956972375331143
0.0888475647906596
0.0764905713586944
0.111040802557209
0.130872675052498
0.0873108134448958
0.107650173235927
0.0842976208730284
0.0868867467499187
0.123298578859684
0.122341288128235
0.0882099908614112
0.0845254567919227
0.0859639571367099
0.0833895116862822
0.0854555448098978
0.128064167819321
0.0871595723267573
0.0922372286069961
0.0701891059636899
0.118865844933352
0.122890176768914
0.111258224359855
0.0855577325067321
0.0789432033883028
0.0908882449726567
0.129889168358763
0.095797736587992
0.0956226628669854
0.105186469761011
0.101659272716312
0.0797273906591649
0.0888867924453502
0.0757248353209829
0.105591547887835
0.0892616656828643
0.0532669282768793
0.118009612045251
0.146647598492313
0.117179272512361
0.154381132002816
0.0809218137460749
0.102911700797621
0.0789263308825205
0.0919608668317963
0.0765146259175355
0.101973469462991
0.0657539851013597
0.105136916584553
0.101615756081706
0.0937988246558949
0.0875551914582657
0.124963664084318
0.0927472260033666
0.0977993703590783
0.148606050765098
0.105207695532324
0.0760822088383024
0.119584856197537
0.0966921215556452
0.0782262683319409
0.084851651717209
0.117982103195135
0.0768267364367822
0.0952115818340371
0.0727916562598161
0.0926201558477509
0.0985852600559303
0.0882155704201708
0.0832888567163271
0.088881937963643
0.0634374709268721
0.107547744403823
0.139243492345168
0.116091863018622
0.0840994171209813
0.0909695623171026
0.0484059720264634
0.134834305632141
0.109761169205903
0.0945477637578007
0.0741338862584869
0.0776853436090639
0.0773680015808242
0.0831179530371873
0.0809194022854247
0.0749129405276592
0.0560401931941012
0.132175411362279
0.0913075823728645
0.0925338945396682
0.0737152999796138
0.0978978304198326
0.0575447322183295
0.148715734638061
0.103061737375937
0.0921371119148715
0.077632581124356
0.0775651404416695
0.089635155303818
0.102741304087967
0.0795827880409211
0.092467744216831
0.0736419568189864
0.0931185436814045
0.0766302741061083
0.0844544117842045
0.0747043766627941
0.0919548586788278
0.0782959971565255
0.0880451937611053
0.0773630559315053
0.0972495577882786
0.0847754351574084
0.0824623655288428
0.0818192998994683
0.0792831510570226
0.0910084315004887
0.104365603559918
0.084957244419036
0.0896870983370728
0.078979889386224
0.08398353468717
0.0808521486600359
0.0825889981096629
0.0791105453926854
0.086203155698996
0.0710618961288445
0.135147775807195
0.0823297154974169
0.0949946710377527
0.0658293935008853
0.11702655244829
0.0887498784158806
0.101028059808646
0.0788195683671807
0.0906232128500787
0.0648903957392136
0.0952393772412463
0.111868377942166
0.102320669755332
0.0744833168387722
0.115213437465871
0.0854720704016097
0.094089642974226
0.0743484713831985
0.0857345490796594
0.148684932024579
0.105891043712455
0.0761461175838534
0.163565259013771
0.0935394791408622
0.109270978707996
0.0780831089750363
0.0701117782845737
0.179721847800436
0.151123684775725
0.0911155754054183
0.0945282872774323
0.108985708678051
0.0950577626488474
0.0983549387416843
0.0975962262194025
0.114381536609051
0.123078028527707
0.128217319073075
0.154364308226478
0.0745100890377095
0.131736285293568
0.111256158843328
0.113670278205623
0.0828252342768416
0.0989255798411463
0.0705746355196316
0.117869534915657
0.0981705152969738
0.123421132908757
0.0955781248710265
0.103875486693469
0.116297759701506
0.114908243054
0.0841999512645706
0.113660446619721
0.10432737850018
0.099189276103545
0.0915714449764468
0.103470956771391
0.105081181095311
0.0931098104069285
0.0932056775150162
0.16419686451358
0.103855807483553
0.115764391892018
0.125173297772625
0.116193364153544
0.102055363480284
0.109780382140031
0.101415623805664
0.110708462116031
0.0939774102071652
0.101189920309308
0.1290038904615
0.123529639035003
0.0973675859890858
0.111312356346957
0.101498500559213
0.112625066888568
0.10919866682006
0.112583903792101
0.110830135245558
0.115752664181305
0.0967745339140619
0.13620343866914
0.147683357798466
0.105501265047275
0.16673127014165
0.156465149637068
0.13048633412376
0.130323759986366
0.114779286072669
0.131406612625016
0.117395243293145
0.139463679693765
0.116150047109203
0.14311009769326
0.14015481454671
0.150676905767928
0.136112817270515
0.14922831915704
0.176958576800549
0.221535677239974
0.158290666807957
0.157891967813623
0.121051044416228
0.208954030449899
0.171435643213603
0.204658608425603
0.177585245903249
0.16447746198075
0.162073200315849
0.16263502326199
0.163501129161888
0.173571817892744
0.168866538331459
0.173665766378493
0.183290169355827
0.187005941754821
0.186136322810557
0.17846117404345
0.196311149166467
0.239601090144023
0.199366583844423
0.205381462135884
0.19760164615058
0.203540369764636
0.241328214494022
0.227203618419174
0.268931542103972
0.257741633481834
0.248093973316292
0.276122002041168
0.22253770640068
0.237008118368465
0.205593655674051
0.252452050344908
0.234292061300684
0.245593489601342
0.240315657543415
0.252954696611041
0.243862968485313
0.264166571443178
0.251262769395365
0.2697490106878
0.250653543910593
0.306287196813121
0.263279700833479
0.298138826068751
0.270715527939884
0.322417510614075
0.318435909717903
0.369923730550083
0.288100961971664
0.311590688341431
0.292652445214331
0.319687979783585
0.287877707000868
0.33468310139177
0.31213188036667
0.33460285560034
0.344130792065139
0.348655056998289
0.334836446267571
0.357780092549422
0.315546624532751
0.3706958082914
0.336211852549138
0.376065286821919
0.395328385065725
0.384033210633764
0.343644407055152
0.421604380555267
0.366598132468139
0.41103858982572
0.382103819809625
0.394917619614213
0.365228278267512
0.400554724411494
0.390274708651642
0.410395679050635
0.394551489850186
0.409054340708285
0.414148036931923
0.439047899760357
0.403181067211422
0.420855542327516
0.438508814710242
0.441380245635294
0.42521853998484
0.463197497417468
0.434257517631228
0.47818342026639
0.425229111659229
0.512218104245282
0.456285589228325
0.508528232300778
0.46786553396533
0.490289250406539
0.439412582050829
0.498727203011227
0.482206829385192
0.490516584065165
0.483271744254754
0.511122085730158
0.476270104843132
0.534021476308381
0.49906652591384
0.515591523627046
0.503501670222219
0.54387902165192
0.515591032591862
0.544661689362484
0.528002532699748
0.559950276643491
0.534772389343099
0.594841095559193
0.588370039187313
0.647495999324447
0.550769991281506
0.584802283801937
0.554561338201533
0.614496405676557
0.544618452928357
0.617060674104404
0.607392898676827
0.627986427554155
0.60930463558035
0.612042255536049
0.623508586257076
0.633841914951985
0.635646710850985
0.644426042702823
0.624696073916794
0.666066889590348
0.625606675558782
0.650054523982843
0.657096139075977
0.695574837711659
0.633321192609822
0.69388770031451
0.628272902651288
0.685896813876776
0.638887624294683
0.669519066433156
0.662904381297728
0.72413411724597
0.706057388751258
0.722648963128198
0.66452210023536
0.770395734448583
0.688991028014989
0.794109127591201
0.726542240542681
0.781174943188881
0.712126583107387
0.783888812958204
0.716170633622447
0.772837598292675
0.715999525284519
0.789946251971774
0.728999864333625
0.808225104319829
0.734192812761739
0.799198305220639
0.78707899325284
0.798646286409538
0.761033606095337
0.870417237138672
0.779650644737251
0.81949108781703
0.790853400320365
0.815823636603109
0.821122956586008
0.815381530418534
0.782133120986179
0.891987445239714
0.800638335980574
0.853678393470068
0.807911463249584
1.04496465792335
0.845415542107023
0.928967527406514
0.81001434199695
0.90655145267908
0.868502254720993
0.901856952475236
0.869902145713878
0.927307129719177
0.845287418931765
0.920217677066761
0.874457850166094
0.975439556489704
0.911634604988413
0.954558500986679
0.924679908316952
1.00638600968305
0.893083989610048
1.00380235090333
0.958873653351048
1.04476291737659
0.917792250620483
0.971151344577169
0.933628844434835
1.01478882321975
0.931676727797988
0.993923191468471
0.974316850771263
1.04907210606404
0.925101724587085
1.00227837451453
0.958777215072085
1.04995351173351
1.02062461231049
1.07663688510161
1.00731841774414
1.08524558575706
0.967247919492071
1.09645699549156
0.917876761512966
1.05229223773881
0.941902045968726
1.08065579553696
1.0212072968281
1.11131308243662
0.997401415812137
1.23773425077486
1.07442847596999
1.12817167842765
1.03665079274846
1.14494795769748
1.09380248618288
1.11439257845007
1.04857185790319
1.11671018424603
0.983642504183551
1.21983419334763
1.03001665049491
1.19148981622647
1.12392992623727
1.24267064978362
1.08725294847997
1.21945597681342
1.16234052280758
1.2880237483713
1.0681765330818
1.16174250073175
1.08211088054019
1.15353172195243
1.21594436670377
1.2443399476659
1.07359933082608
1.22499119004173
1.16537016406565
1.26187328425864
1.13217887323134
1.16084941576618
1.16885435351087
1.26166111492301
1.11737781397833
1.35219091734192
1.14976136960596
1.41060123440468
1.13320165468622
1.26660039793322
1.2767757313583
1.24267645889414
1.187569878454
1.36790585400864
1.30427259650412
1.31661864666349
1.2004166927386
1.30832898633999
1.24487339147113
1.36102978860575
1.21275496274058
1.42444826774938
1.16706774507325
1.35075745369793
1.25966012245743
1.38423389320816
1.21727697891815
1.33970863676433
1.28142415349701
1.40528870406224
1.2766442707227
1.39005265359912
1.22536666801023
1.43962071564802
1.29150669054537
1.35248019375333
1.31903466515493
1.34008588301397
1.30925252584014
1.41303986329186
1.22099435495354
1.39837055413423
1.26508288690318
1.45974311405999
1.2911053774016
1.70927235897403
1.32285102910997
1.49347543623853
1.2354992057409
1.45181014334114
1.30818470355653
1.52571719591302
1.23537485659239
1.56090786350028
1.49095768744641
1.53264380481995
1.42049031488472
1.59387950605672
1.25273718675186
1.48547052833424
1.27222015579901
1.46826710704354
1.34420937338366
1.59292757445162
1.31675732812358
1.6408373610931
1.39905309413684
1.55054018407879
1.48281992577207
1.64810369507654
1.41509270641
1.47199387897176
1.35520030862922
1.59033294565434
1.3432046563494
1.57024341480158
1.30945160988993
1.40545522387404
1.29782791605542
1.60688947089385
1.42909502293643
1.51031068615421
1.31586202189133
1.47686419307199
1.52898688934983
1.55580380073082
1.42762661070292
1.49868294658339
1.37086431062518
1.52729020324066
1.40722756353638
1.64035386791111
1.44162662222483
1.52551460663668
1.42827326295994
1.60507626001815
1.54159063930687
1.60434453280695
1.46340852815266
1.53659295106725
1.39155010462443
1.39658883847242
1.60778544413477
1.59988468682465
1.44899628745923
1.73171863390864
1.46123561826324
1.44798723991091
1.40343396457165
1.65343016564108
1.47861512923474
1.44184448966088
1.45604263756909
1.5015329668507
1.30375664601736
1.73055671903958
1.62925913812327
1.49588696036314
1.45978501393055
1.7432766466221
1.41933898704713
1.42776266552502
1.49304579220979
1.57406104344917
1.51596558100221
1.68628085138097
1.50282832893184
1.74398654638135
1.46633594669007
1.54443196994074
1.50634311785591
1.52638836561556
1.55130748179661
1.63202576518132
1.33535572407822
1.55205957021363
1.43471753651365
1.67097694987366
1.41069294776687
1.61993340813879
1.50810561334799
1.55834575067905
1.39487630142702
1.47738378385346
1.55544819943996
1.60147651264082
1.53797766797595
1.70777647036496
1.39950026338797
1.60268323682919
1.55243810541967
1.51128592530877
1.42368249618354
1.620280878528
1.52819338334801
1.61584117034765
1.46919475460977
1.61703334924963
1.53990736131565
1.71289318217293
1.46001787644943
1.65447466402359
1.45194634834329
1.47753081448755
1.43958259085561
1.66531939336148
1.44338866110844
1.57883734380024
1.6158650356921
1.66197092097025
1.35099480356828
1.6059374596614
1.51390925642706
1.53728150245495
1.56637571834752
1.61594365605819
1.43821114259778
1.77464910459153
1.46156420057888
1.61652732077835
1.51385817819648
1.58568103176542
1.42400957411949
1.56848858661376
1.65685719419045
1.5035050112943
1.49593232980724
1.52297886373296
1.48723978434876
1.48043190344753
1.4961696446217
1.56855772902938
1.46329076448321
1.57775213628518
1.6254515186986
1.75362154968184
1.59493190705254
1.52094439478213
1.54592388983485
1.53407637447038
1.58132109644932
1.61333517212049
1.54200177254599
1.54670128462836
1.62010385808496
1.61963545745768
1.46179576822217
1.55353027019924
1.44952594431582
1.58752472777003
1.47511479911655
1.62436006654649
1.442220417607
1.52529878871774
1.46614948984014
1.44915988589302
1.46399221862747
1.66242689611788
1.53950931655576
1.56352581083053
1.45409205557195
1.54564446476067
1.38505322850942
1.40752894320126
1.51997839878161
1.76625278077147
1.43487994740337
1.56910727112809
1.56233056846145
1.59582069483562
1.47712717397848
1.52047602993005
1.4655208333595
1.53958169147063
1.40014455855765
1.47760260040471
1.50046444370799
1.59327793589169
1.5090944081727
1.49495922044583
1.41081272734477
1.47796096875665
1.38253343559539
1.45575884656922
1.39492700008383
1.56027612989155
1.44127147413175
1.41785673190858
1.39302350703745
1.48135116100882
1.34779963596801
1.44199948819835
1.33568869969883
1.46902277520721
1.29273972497388
1.41414861670233
1.41398498835074
1.56846052197967
1.35963714594455
1.38140949760477
1.36691552245356
1.39395237711414
1.32361744271225
1.44211843053515
1.38286964388789
1.28388244474121
1.28872784665476
1.38730226033712
1.37381424173721
1.37392166993456
1.32019627676408
1.38852906339922
1.28645843924612
1.41236100619997
1.30916932932405
1.36131593987013
1.30160434180418
1.40235006646996
1.30784937900637
1.37155093271282
1.30476309720091
1.30166315381973
1.28501929010218
1.26272097298696
1.23358474649844
1.26867820369171
1.27681319139973
1.2900953405774
1.22001701663164
1.288173748306
1.2801333200055
1.2679491667193
1.20618808405596
1.20740268674374
1.18431262225184
1.310867541438
1.20864679753677
1.2637603703279
1.22735626771673
1.23145713927149
1.21037536373743
1.25186055427659
1.19046598426736
1.20169124128388
1.16736074274706
1.16843393557531
1.18177759685117
1.16373856879049
1.15727950248302
1.17160758988576
1.13369967740521
1.11577307300081
1.11443379482001
1.15714832603513
1.07918277717148
1.10892698958231
1.1263550491754
1.12463029800436
1.07132188207033
1.10273216963815
1.12940004147453
1.13938155715132
1.05183946701102
1.05395824450024
1.0401937322708
1.09024359356329
1.05798593227764
1.05450060908474
1.0836195292871
1.05971495168048
1.05589981540137
1.06519220300246
1.02598914458093
1.06641674907189
1.00654982983597
1.03255996202365
1.00194914463702
0.998424147900523
1.00050690469859
1.02054726834202
0.989999632979728
0.964075742810364
0.954308899374612
0.971492529150594
0.951484531913956
0.965930044069789
0.948524006069891
0.977646942497281
0.943249007601268
0.957578291216281
0.928328222884375
0.959003275856476
0.915808061940963
0.931637691108514
0.916476200542935
0.914059190171289
0.924689506752568
0.929202681911397
0.874563211853638
0.9161244521215
0.895712726495821
0.899989328256075
0.881771936920012
0.881989804299436
0.86293612871974
0.885481174092811
0.862840885679565
0.863389243257107
0.853178205786817
0.851029008628033
0.841558040999093
0.846263731740884
0.823511425230469
0.830823488382268
0.835576419326913
0.837853259243513
0.79442360323329
0.810490085581437
0.804800062442986
0.820539444630597
0.76380550799161
0.795957416386761
0.77707889310555
0.792927943852848
0.772438465452322
0.794755702137301
0.785503667626443
0.777753643488592
0.760215329288501
0.766297250711063
0.760903766070559
0.767423378251326
0.743650483915947
0.753630903766805
0.733314831834855
0.742350189899626
0.730995844316862
0.726042178414872
0.725730918021025
0.714084219759405
0.710203915668754
0.731642135535591
0.710645688130778
0.714594124363491
0.70093079751129
0.701741334865949
0.675018470883591
0.690161189066269
0.672930948789661
0.684037604250121
0.662850537720952
0.67500225029982
0.677154274133766
0.67689442879359
0.656438465023497
0.664999410020247
0.657768904954265
0.65149519487218
0.646671154042694
0.651675827283251
0.62692861836997
0.630377450386267
0.616851734877618
0.629598504743286
0.623204415659794
0.62431624126921
0.623605158953868
0.615541341653844
0.605729118740379
0.624879876647746
0.607386626450294
0.609792157871761
0.592896582280802
0.603378625626558
0.587531822057284
0.59849932851302
0.586986427641608
0.585535764910117
0.583037950280047
0.584916167042429
0.567758117943904
0.569081733708327
0.569397944374656
0.566950063126647
0.554934187149282
0.563308772520079
0.54937676231813
0.555284518761146
0.543036362033828
0.54766435382165
0.538658976220784
0.540725668056459
0.537637261344242
0.546656132667993
0.543262057396751
0.540603944349221
0.529702620717782
0.533153017294383
0.521880121849855
0.536206072583592
0.523091080017975
0.521255633162252
0.526009398011536
0.520919928377679
0.506227703916635
0.505507762057107
0.508884077325351
0.51977992737372
0.508871648682304
0.504478148906689
0.49787876637313
0.502208897144235
0.495922680887966
0.507697015152303
0.495752226286203
0.497971933136212
0.497175132729614
0.49891827450957
0.494670032646143
0.499844100157976
0.48802614187304
0.495947170546755
0.494371149836878
0.49360466133856
0.491154030993365
0.494855834517864
0.487979049152507
0.496017146161756
0.496324791850559
0.494701333839803
0.488262384573356
0.492847940416039
0.489721547721165
0.49388748389509
0.489359556472488
0.491873051171111
0.479807279627458
0.488155280795463
0.488337740961211
0.496545038573369
0.489882945458393
0.497171234219467
0.495676254398869
0.494412975488784
0.487060496493911
0.498903374795326
0.499827688886333
0.499227135859605
0.500914182804432
0.509840803197514
0.501897105111203
0.506902519683714
0.501880974959545
0.508491663536198
0.506858147314201
0.507029823266962
0.501259157110433
0.51313550779004
0.503626864221676
0.52826671819008
0.508626033707289
0.522676172163378
0.526356006350182
0.522893672472634
0.522808644523096
0.543658594417569
0.530617732692112
0.536489800042498
0.537653457531855
0.547614380832605
0.536893459851936
0.556978095286972
0.546684024877885
0.552987457362879
0.551387041134267
0.560030697667949
0.558443673605459
0.570654387764016
0.565580845844059
0.57121492628974
0.565740884682733
0.584684438071808
0.573065249255557
0.571472199401596
0.572331463925295
0.588011170621747
0.575859859842
0.576121421089593
0.583910698985036
0.575987575265609
0.580467386467159
0.592864265041577
0.585155324772413
0.588110541014424
0.569300513993097
0.575782648681685
0.566761943360626
0.56784613995978
0.56342405754575
0.57202265078756
0.553661582458555
0.555963772161954
0.548551901622755
0.556366404684429
0.558385912619192
0.558376818135496
0.554288142818451
0.564409540367533
0.551319743266762
0.547811083396965
0.546594648322047
0.554006600384916
0.548850803424068
0.549833758638514
0.541401373869585
0.547969304623341
0.542723155106885
0.551199637994487
0.545778881060003
0.546274428444459
0.538928717900432
0.539596128555599
0.535642030817088
0.541366795586746
0.53113427286253
0.548558041582369
0.545273360315168
0.537679568343649
0.532359921864194
0.532020601282424
0.53373670048178
0.535706552923931
0.530948465621743
0.541083904754362
0.530418453552101
0.532204361643369
0.5277921429165
0.525343685955948
0.528102485618304
0.518393421675595
0.522306009215656
0.524568717819696
0.511866884201617
0.521061399172941
0.514384001704882
0.512637079168814
0.500523067458654
0.511180407119848
0.504679718474197
0.501956259684683
0.497005829137223
0.500383139739548
0.49706678535464
0.493896559556604
0.490430658323249
0.49516071207901
0.47675529861085
0.48151752487878
0.476081073312181
0.473545023394939
0.47444130142728
0.472772525713565
0.465132795160294
0.46233748283245
0.454715102349412
0.461245327970432
0.45633327240595
0.456487323605865
0.450205500226381
0.443828171156321
0.437790074933759
0.442143185615472
0.440621118199124
0.438799808592374
0.428675419869955
0.434430262783524
0.43203203326999
0.429392587199105
0.423216723495135
0.423855230700989
0.421822238893444
0.42294139083636
0.418609325322706
0.409458308935067
0.40736715616903
0.417365087591555
0.407546696419305
0.414014690078611
0.405793081168046
0.401470524449161
0.394745333728837
0.402149569935443
0.395793554717023
0.398730587515714
0.389667884815618
0.394194019492278
0.391836872977761
0.390903354716585
0.389161937968878
0.388058077502307
0.381518099013732
0.385627162302023
0.380870054093615
0.383362944512469
0.377410266827558
0.374118572333008
0.377430319726037
0.379296996063262
0.376948610259465
0.375032847622297
0.368963479248864
0.367635333586539
0.360143424126327
0.369799276421576
0.367926587314551
0.362780873101344
0.356526304860413
0.357150465782615
0.355445841118131
0.356281283000588
0.352709802047886
0.352251133319807
0.349111432915205
0.347761749492222
0.344144229595639
0.351332264437416
0.34941263801035
0.344635019474065
0.346604108657629
0.346476382362815
0.337523804748573
0.340235174158112
0.33666261693872
0.338664588127339
0.343009944269034
0.341764953158234
0.337842704372591
0.339937968689374
0.334460808720665
0.333462876718725
0.332039610685223
0.337177080639134
0.331858542562641
0.330569150063083
0.331044622182711
0.331597954259664
0.32470536704083
0.324897767127651
0.323944725711167
0.327705632050595
0.32803082210643
0.323886859028738
0.323401443106045
0.325847202675782
0.326384939458683
0.321457544032757
0.316335544461279
0.320342369944596
0.321226506798558
0.325727844738108
0.318820607228448
0.31611858737949
0.31510787144895
0.316975249093499
0.313690012486024
0.314805336840618
0.315656541862567
0.312424369862894
0.311493561962674
0.317176478288818
0.312758103339304
0.310729791815147
0.309514666162172
0.31010930241945
0.310183600966491
0.311571678596899
0.304259890718923
0.303554108740656
0.303774994248998
0.307735407698007
0.307379503005912
0.307094970384709
0.301305090496033
0.300867758287635
0.30065732708891
0.300035488015987
0.30424025737898
0.299876274836379
0.294680375976272
0.302454888258191
0.300945094574817
0.301157927616208
0.29909059783012
0.3004587694318
0.300283726639336
0.297482257496988
0.296881403259377
0.294236614945158
0.291500429183211
0.291862497313972
0.291060097152965
0.296337989130132
0.293702002808654
0.290619954682189
0.290722631344547
0.294479945465676
0.293368169903058
0.291412818994899
0.289820513813231
0.287914725783787
0.286484080034285
0.292162025034854
0.29006974849359
0.288514908628638
0.285483697733088
0.286578278854931
0.286669455784751
0.286361714444345
0.283923101812061
0.285773600057076
0.285016571622687
0.28363825498205
0.281517529610942
0.280691048554383
0.277666657532716
0.280196882161959
0.278953447572472
0.278139878549085
0.279890101927806
0.280154595722946
0.278664843774482
0.276772810567932
0.276032518437571
0.274873504650559
0.272142827014335
0.274245874240136
0.270627523166614
0.274658836748163
0.275848333058633
0.271383440220538
0.271738687135504
0.270384374617652
0.268245159550331
0.27061703876603
0.267696346932929
0.265536854595237
0.264471661237303
0.261055608737754
0.266391010255034
0.267017718232713
0.260656111476189
0.262967706123539
0.263193421723914
0.265782584536035
0.260578973895525
0.259556201008301
0.261502971156251
0.259900822345481
0.260276360807221
0.260653595799216
0.258508166950443
0.25860347677439
0.259621243107085
0.256228297773294
0.253014594294719
0.258493842427371
0.253879609530712
0.253758084894916
0.253520526045361
0.255737275108537
0.25325875949293
0.247809653135935
0.248977226680875
0.246607526503555
0.247381191712776
0.250817049104363
0.25018914117875
0.248280241980979
0.247526055838255
0.246101938557702
0.246628056018803
0.246648638680357
0.244622580306323
0.243107907297418
0.247006140892737
0.241288187056706
0.235689706804409
0.242672700791521
0.238610179488916
0.235625875589782
0.233660737213484
0.230350737017259
0.235004965075765
0.23636199979957
0.23362010760207
0.23159001963004
0.230057274180099
0.23199240057965
0.231498885470704
0.230715776995697
0.225669338265755
0.227405518606516
0.230902897347406
0.224788558097993
0.224373638919219
0.222471282616894
0.220866775468049
0.222209540618281
0.219052523620691
0.219117174749659
0.219548261118675
0.216400595118084
0.216966894379109
0.21745882663241
0.218443974637696
0.218656457258993
0.214426784966539
0.215872011859755
0.216094841801026
0.211423805736893
0.210379736252355
0.212058845176375
0.213635148792201
0.215699846384994
0.211572916129657
0.207037481303396
0.209523283325326
0.212993145317759
0.211156419695296
0.207660078864314
0.208119135590444
0.208829829268281
0.20711937408498
0.206197270630201
0.203347538304658
0.202126491658017
0.207086179357174
0.206924389669384
0.205381077885254
0.203256887249738
0.204535407579595
0.202562529971321
0.203463639605288
0.202541025517206
0.199448862433606
0.202241670668091
0.200234217487897
0.20146411692667
0.203994896370523
0.201416697814108
0.201788411777526
0.201933922154053
0.19933695452198
0.197500995859866
0.197270773243937
0.193379572487488
0.195515904771353
0.196546920164084
0.193866590362479
0.198059430804189
0.196176818136114
0.19062034652317
0.192487893449837
0.19216403412955
0.193116845677907
0.191714398308348
0.191309089090931
0.191127118585281
0.190013654415896
0.188981074587987
0.189306902695713
0.192655675930302
0.191992243622509
0.190407746910211
0.190094394520829
0.188514759551616
0.190120875827419
0.189493359731774
0.189218871168642
0.189348669731273
0.190833622859713
0.18674016129345
0.188582565010225
0.190396447338821
0.187248754943511
0.187884709696514
0.188928464070254
0.185427331382247
0.185124028185954
0.184548469504639
0.184900427966755
0.186781947032072
0.186539729485721
0.18330023058576
0.185718976545094
0.18573322295559
0.185320923117557
0.184812366063376
0.183642728987541
0.183277588836986
0.180993300965933
0.182613041228203
0.181858417855987
0.181158068472712
0.185961940865242
0.182565040450597
0.179752245511677
0.179668843379346
0.180699114699245
0.18110645014683
0.179373653011041
0.179301175317627
0.180826380603287
0.178924145362102
0.176289246188237
0.176449180534079
0.178554717553733
0.174901827640801
0.174999603666925
0.175397933116529
0.174874245762326
0.174154728393161
0.174022490348061
0.174088639130769
0.173078261427893
0.173729457972684
0.173639656096142
0.170175573689211
0.169862154933412
0.171261482081084
0.172610841654073
0.16688042286386
0.165725613298418
0.16951420869112
0.173455153274712
0.169315115700262
0.169524659134377
0.172129787301606
0.172273955561529
0.171454304029272
0.169437450266237
0.169030275176102
0.168997414728293
0.168527696638954
0.171192927552392
0.167778683364818
0.165991672876169
0.168547448926666
0.167981549487606
0.165377188344003
0.169961875284838
0.170856062681846
0.167704104480105
0.166553314992356
0.168200640312871
0.166135775044062
0.168785987144245
0.167229285007317
0.165921857632568
0.162750878134553
0.16515227313204
0.164998689260645
0.164094295116945
0.162974246723865
0.162665333918566
0.162631240124129
0.163055572281105
0.163288582792851
0.163197014821508
0.163300872225145
0.163068392886343
0.157140766511458
0.159741916793199
0.160413143703153
0.160111869918043
0.159780846231649
0.159732414315946
0.157074063244781
0.159613003269076
0.157044003647735
0.157306249888311
0.15629193370297
0.155605277933873
0.156868796335489
0.156497676537929
0.154113848473897
0.155550651325702
0.153836983802957
0.155972255185716
0.15449970169908
0.152492632150901
0.152251797356032
0.152791836049407
0.150587318010163
0.149714635608432
0.151252997081287
0.152094153681087
0.15028893718081
0.151097394482843
0.152171917143467
0.151111303266164
0.149808601502707
0.150001705471708
0.147041762829905
0.150157306067383
0.146859997209853
0.145665536754905
0.147376888398183
0.146573969021014
0.148546027801311
0.149344230384144
0.145295323584383
0.147512947746574
0.145601216874424
0.147037118471565
0.148005530335812
0.144605006002407
0.144374452907457
0.145145601297804
0.14417084383446
0.144526621188395
0.142937642115238
0.143421158235923
0.141766905296525
0.143470283681945
0.142193876045237
0.144554222782357
0.142647872639564
0.141295696889155
0.139281852485606
0.14055818184793
0.139248180815839
0.138803637071528
0.138906593845286
0.139696174727551
0.137166591719352
0.137981779767525
0.139185804468966
0.134967411858085
0.138021752157985
0.138199410609574
0.134672483309232
0.137395853835641
0.136487601636175
0.135948880994537
0.133412332168773
0.133697183988048
0.134044801558804
0.136469371296892
0.134181832105676
0.134396228315735
0.133242271092602
0.134020595880051
0.134764086429081
0.134042572086199
0.131435956408094
0.132627623253257
0.131958223062366
0.132369853654804
0.131735641901799
0.131894886173573
0.133325269182277
0.132134536075799
0.132140998352743
0.130625116745512
0.130566982003385
0.131787269218976
0.131754074352668
0.131575886609329
0.130700159991907
0.132558198555659
0.133480629636732
0.133024662632739
0.133656049214953
0.131140342843533
0.131874236131328
0.133330692737439
0.131869686175427
0.134344841870594
0.133060176881637
0.130607365050749
0.134553313120495
0.132993458113935
0.137220112866689
0.133273932337887
0.128666798671921
0.130999834741963
0.126094176087562
0.126933213798114
0.130619190253947
0.127661377881432
0.124743301764119
0.126957911506941
0.127940434332871
0.118194057049121
0.124043763533602
0.12886088251392
0.122251597558177
0.117685334701629
0.122689564931753
0.123058686658576
0.121078217263598
0.122256919204367
0.120334580987589
0.126663979500173
0.123817130682531
0.122006004704283
0.128881189539512
0.125555602321304
0.129413624447654
0.123438113087551
0.124767046214332
0.120115900489608
0.124541518845362
0.122566243042079
0.120659180197974
0.122408631219365
0.125885212811142
0.120441422356132
0.123664416425626
0.119757063450093
0.121014359031676
0.117913426907142
0.117495447347772
0.122102437576821
0.118616739751309
0.124600377453193
0.122512655022614
0.125846389278118
0.118939359934465
0.12941024416072
0.116544256174111
0.130854994547852
0.117180764529182
0.136399574455428
0.112441140901364
0.140273143685899
0.111894989149953
0.146873174717142
0.114076844524328
0.148447229728143
0.109384614075895
0.152532819785476
0.110954105445739
0.144533945425252
0.114912096245853
0.145752725864541
0.11730814225242
0.138863632013933
0.124725837382136
0.134084233904952
0.125899202270118
0.131569445201242
0.132344911084994
0.129182865806129
0.130378674595915
0.132185589490321
0.12809708253288
0.129242804573457
0.127343237319208
0.132869714924056
0.124167243811117
0.132354660412775
0.126399339061522
0.130993737140051
0.125594230538066
0.128265154496116
0.126859149147107
0.127611777177131
0.125608980129167
0.131677202597532
0.126658674738182
0.129107579977861
0.126469022135989
0.130441553465033
0.125777089927427
0.129125498100645
0.125553754241175
0.130287571726063
0.127565399002354
0.131802109806726
0.125409827894696
0.129229958346007
0.126743282258745
0.130332974070176
0.127053762292017
0.130288934247838
0.127760066847142
0.13345370233829
0.127889702550444
0.132386257114506
0.127838153437808
0.132125970015821
0.129173207202232
0.132193141332447
0.129498835795385
0.13351083329998
0.132469998279144
0.132518233249586
0.130244400644911
0.13323205137928
0.127167181687171
0.1314382883383
0.128754813251496
0.135208989972351
0.132992357554742
0.136420814964173
0.133452288637785
0.13613698864384
0.131163427620068
0.134241035335253
0.13284224107785
0.13547423305554
0.1301781521904
0.132263615341075
0.131896412586092
0.13595984001087
0.132944552031379
0.134912967846214
0.13169535320548
0.133731323035528
0.133070419595567
0.136937603780073
0.133524294395777
0.136427337790621
0.131253864759602
0.134518420363325
0.133713222765812
0.135630777440321
0.1357535102477
0.136634502484138
0.134912345008936
0.137130483414423
0.133100303955538
0.138605825070121
0.135081680392266
0.13689143724567
0.136449747823309
0.135625298638385
0.133118031464644
0.138381871776921
0.137406180897316
0.140399662940854
0.135379913280168
0.139576103506702
0.13807133294563
0.138348175678468
0.13680115200039
0.140880845560538
0.13848386880735
0.139746787583583
0.138132308732414
0.143295216789928
0.139175501391615
0.140990386598885
0.138846185183045
0.141377180840346
0.138905829047248
0.143055887204808
0.141432664039347
0.143390493595233
0.139635102396075
0.146186418310951
0.139620334871411
0.142579017839344
0.141923608903696
0.145145712287397
0.143769165718325
0.144289023029179
0.142784112778911
0.146288744956619
0.142798700442473
0.146905586360437
0.145145404937477
0.148011501083124
0.144849685169715
0.149541408467051
0.144265595908718
0.145290256082241
0.144442799817325
0.150190729845928
0.147100240437562
0.147326779503467
0.145049832957374
0.147642786568791
0.143548991311469
0.150026363969641
0.146709339932046
0.149867327970479
0.148510267216665
0.149668998424615
0.148923618712462
0.148865279570714
0.147543225890254
0.14823655453119
0.146982222592704
0.151711469743237
0.150312606522149
0.14815179875852
0.148693250734584
0.152628029396653
0.148948371727065
0.15182392469427
0.149670549313677
0.151887879356859
0.149888653350639
0.15259996159842
0.153033893837655
0.154040475261008
0.149933345211554
0.155063725736279
0.153364448351249
0.153746661355195
0.152153038373233
0.155821775959896
0.155741055769879
0.154865895185365
0.15208803580694
0.156014253545913
0.153027327749253
0.156374848825745
0.154649054135136
0.156728910317709
0.15272748820355
0.156556872528487
0.153910149985886
0.155088211886251
0.153766922000229
0.160252775873355
0.154165220812097
0.152214379246352
0.154171431504186
0.157342537224919
0.155305078872929
0.158257527123387
0.153519111287009
0.155526016746765
0.151237959171075
0.154213037633076
0.153861886570264
0.156040912350099
0.153238576796539
0.155198040523409
0.153285290149329
0.15452401579723
0.152211683557761
0.154204479461026
0.151666097569523
0.156131586687262
0.150491647053923
0.153772696600671
0.150400240530276
0.153652458431653
0.14868726929043
0.153152507347189
0.150736884810083
0.150825891351858
0.152072804080722
0.153759166838846
0.150753118608288
0.153821809451982
0.151209874091979
0.154598104781008
0.151232624922248
0.150732787319926
0.152949942186377
0.153475598019325
0.15016921681154
0.152948137426039
0.150500383902489
0.152353488897149
0.150326069624579
0.152321201109286
0.149700162485031
0.149981846095536
0.149878014284493
0.154655101386606
0.1501240933443
0.14987021876171
0.14934997214912
0.154354527003155
0.150068857786468
0.151724452536513
0.149920811553521
0.152305163097939
0.149231555514325
0.151022615858161
0.146493951540035
0.15269077565435
0.149605775629966
0.151453788367016
0.149666273996321
0.151476074628895
0.149045945799411
0.150060143319192
0.146210875752859
0.152115051226412
0.148394085309178
0.146800555972807
0.146077199816796
0.151923698129932
0.148352885415868
0.148333351348936
0.146275685520233
0.150181968772947
0.146829428736921
0.147272267107116
0.147514525335866
0.149226986546947
0.141888828570503
0.147963522914665
0.146021582995548
0.146975199547496
0.142351570168261
0.14567508850883
0.146700235526644
0.14836460233461
0.143499289431067
0.147256363450265
0.141815232755557
0.145485396016877
0.144063832388247
0.147283698878357
0.142397653208426
0.14470604524702
0.141872236918299
0.14494581286334
0.142462831196997
0.145071817617871
0.141133598922514
0.143508322806159
0.140550544723857
0.142930287054538
0.139416955523213
0.142906326938709
0.14042315346081
0.143442307695986
0.139418416717433
0.142453918199558
0.14023757704281
0.142907138459785
0.142294632452103
0.144589682473538
0.139494643253433
0.137059328720443
0.136226830464782
0.142726109451712
0.137736076576394
0.138063963776273
0.136624090579036
0.139320152116477
0.13781989787574
0.1388010366956
0.133264556602952
0.134456626740029
0.132066714777092
0.138589393307279
0.132542571666166
0.134717345505556
0.130688916777656
0.134185100544621
0.131520385048807
0.13156301455468
0.127322304345715
0.132271159164997
0.130425723551056
0.130404231242767
0.135347340680942
0.128965537192889
0.130386748186225
0.126916553469535
0.126502623337174
0.129056511735126
0.126816346230101
0.126465234431697
0.124610250034849
0.127227675035707
0.123741245581476
0.125142888864586
0.122935361705797
0.124463585601812
0.123450415963577
0.123282958510853
0.123638198350261
0.12397082714877
0.122582953450948
0.119921174119899
0.11889670853215
0.122318032750478
0.120799445052911
0.120125795508511
0.120054062413252
0.119942634651599
0.12721109613487
0.128215100040363
0.121288729229749
0.121447382518641
0.120876360661382
0.121800407053556
0.118672481179146
0.12011498310534
0.115072507054538
0.122418038144446
0.1151702531818
0.119521568862439
0.118383402810174
0.120399545497782
0.11700774218741
0.118690690324836
0.116791132473982
0.116597429685316
0.115744304889334
0.119728221572189
0.115287761173752
0.115897960453898
0.114193538111795
0.114877615658417
0.114455877458239
0.115461460368321
0.116071835870097
0.125768162745553
0.115374247205779
0.119543779153142
0.112686575031479
0.11664321440376
0.113005736828223
0.116839540800626
0.112311809873941
0.113555632355301
0.112749982084196
0.112227188453544
0.111593983897135
0.111465667177156
0.110554213679065
0.111845723225225
0.109789169964975
0.113672735034106
0.108424256500182
0.113692493162407
0.107302428472511
0.11360645309032
0.108042197441807
0.114714818600764
0.110615095695601
0.117060683118194
0.10434777273135
0.118989152556899
0.124298861444648
0.114622700551704
0.110505657129667
0.110180858298671
0.108802656255534
0.106965244425167
0.109283843887944
0.109667083813217
0.105127836551543
0.10948111354358
0.107659781442923
0.109800165057899
0.10740093041518
0.108201629895858
0.107564112723622
0.108881362560591
0.10718543329058
0.108293909511561
0.110245110641685
0.107614999912404
0.110847501079136
0.120640618722703
0.109337953934344
0.11242162387818
0.106665769895952
0.103166641580183
0.128681588333234
0.110802704815614
0.112127261911278
0.103319037316173
0.109049564465735
0.104525428303966
0.10908601379688
0.102474002933542
0.111709450214293
0.110381220730877
0.10763921274619
0.1111841809175
0.10628373475399
0.106587905541624
0.103048403705817
0.106249480110293
0.103326751959313
0.105295270494277
0.102282447050875
0.102626023495518
0.102245922916988
0.101736636741943
0.106178129194906
0.102009826165419
0.110192456812216
0.109529611781431
0.104082019604975
0.101553925025596
0.104545784397529
0.0989952296464687
0.109396639091606
0.119483868123886
0.10228433210482
0.108476204471303
0.101747515052212
0.106667397623772
0.0992256238046478
0.108549168381937
0.100090968333732
0.106977296929006
0.101573933978006
0.106960518218837
0.10051978896906
0.106466530751422
0.100214641912599
0.106463070844016
0.0991686663901597
0.105403461509474
0.104509927933213
0.10429281653605
0.10629890909056
0.100937289634805
0.125321782674872
0.127034568164045
0.116795321550829
0.114507375035717
0.108259041579713
0.104445209796044
0.103894129651244
0.104594238001623
0.103754152760377
0.106206740981886
0.10527145789848
0.106764671095579
0.10722904215492
0.104063794433794
0.100898015305737
0.103830170035263
0.101136835070744
0.107298313292817
0.0999911698782364
0.106130873862191
0.101143123203325
0.107477125485935
0.0991250227585059
0.115549388616945
0.106132810736122
0.115845796153697
0.0881436677019621
0.147270264593784
0.113492400801257
0.114654220606792
0.106119348366297
0.10721596348987
0.101734932310861
0.102076870840076
0.105107960341378
0.112013568710864
0.10390066761593
0.106513102554534
0.105118007368179
0.107734033009347
0.107313107021365
0.100604881738954
0.11413600704768
0.139620069482613
0.108561565598338
0.1193583198902
0.0969052430646831
0.121131171724763
0.131844121123486
0.109611549878866
0.113879462312101
0.109288623266849
0.106275044375304
0.109889770793775
0.106815568785636
0.106746987965945
0.115058744397009
0.110729168238136
0.107382332584468
0.109760424508467
0.107831553795714
0.117665562233383
0.106957697877378
0.121305859740644
0.116629430475392
0.11029431141706
0.115408656416362
0.112532643365485
0.112258844212089
0.112512761824354
0.112209768539394
0.111424867939507
0.125832484564493
0.123541892214555
0.113589644829209
0.126455099213774
0.121601339508573
0.111033665922474
0.117635656011221
0.12042113100179
0.12909803040892
0.103694473455666
0.135451637004117
0.135819241565579
0.1343707253339
0.137367357766617
0.112106045338819
0.121151324959293
0.110172253511228
0.122263620481646
0.110514551293017
0.143303327827227
0.110465327402848
0.131350328788127
0.105211525186329
0.140260638480384
0.124049286138356
0.131933941744111
0.117891085714798
0.125472317807571
0.115446143073472
0.143858021287359
0.116879621028004
0.123376746062762
0.153736390909014
0.146103639704639
0.148439132281514
0.130412053818132
0.124476925676905
0.164720250347666
0.126584493133869
0.139202917275866
0.120558864146507
0.140608301906757
0.120481975376399
0.137548234535703
0.158788585054456
0.140660828732629
0.133282817880524
0.139957298273717
0.126342095751784
0.164662638542286
0.143828385298189
0.141681311328332
0.133755410218674
0.145468885148509
0.120976382865427
0.203979495872346
0.142129796813906
0.172150057534799
0.16060034747651
0.167112664175909
0.156631786463461
0.162119361000822
0.14635635713468
0.164907529812759
0.169313961243011
0.162318531163066
0.139205406807107
0.178893993108329
0.17613388662208
0.160518791360032
0.172455129302271
0.157679306012542
0.158012106181857
0.202011609986173
0.215062016805052
0.199991876454351
0.172463916711862
0.175151597628806
0.195978383769817
0.175651786569406
0.173602528976451
0.177343004090877
0.173153238576118
0.178726649111246
0.175523111486019
0.193953437086261
0.178242473001154
0.194479741125684
0.182976783790616
0.198297085747513
0.205519218759783
0.264528936230172
0.23445905963951
0.210791878974936
0.249865894050843
0.224151318119969
0.225393241085916
0.214150865418468
0.214771577909049
0.233512369574343
0.226867710773377
0.22989449084906
0.221213831567648
0.266412779804155
0.242868616689418
0.261896157187253
0.264606224779437
0.25914176871967
0.257193060763843
0.25395108062644
0.454516148573721
0.282241090809281
0.306132034268043
0.275795966670088
0.317516101140902
0.356534600465103
0.313893691413675
0.304497331176481
0.312251304451368
0.312622884664946
0.327315908232108
0.335659130341264
0.347244271309244
0.357817622635348
0.3631764511113
0.346782640082131
0.385004120117188
0.444084084261678
0.438847522983867
0.412693960795893
0.398428613649262
0.426526480627326
0.433157619010308
0.418359022567666
0.438393825470569
0.422607715198239
0.452379932001898
0.499639557152569
0.470140005871915
0.474283789380711
0.481053515070166
0.520726787457098
0.472829557374843
0.56837523167091
0.526844544717402
0.53974019956209
0.520171350779217
0.537625594178697
0.54002914457823
0.546502619393294
0.596239801085049
0.575155063050137
0.58040297996974
0.590242160530404
0.586485001329292
0.60174316508106
0.598529785018747
0.617685576036391
0.611402142874312
0.66034242875296
0.614280032359299
0.852241588531178
0.662557481566169
0.648175709738786
0.644536987327406
0.660136453863892
0.695072612111909
0.681338072985274
0.707595822628817
0.69828647589754
0.665394398848367
0.670943713273115
0.665274547390218
0.668316805850336
0.66631394676526
0.685020065707108
0.649065318182298
0.70465251418342
0.658435046611545
0.717625798492366
0.74535030209356
0.69262188950044
0.663359166336388
0.670509757959448
0.645071522268844
0.665787026548891
0.634373231087056
0.661568388634393
0.670829590691543
0.642531077312106
0.637008439963005
0.616392976600872
0.67130035742688
0.658420709161892
0.611664750987101
0.615455056161186
0.583143280267646
0.60193698536035
0.570329490087424
0.601441162088069
0.632319375965986
0.576463835114563
0.559618882810846
0.553400134058142
0.542135262214253
0.541506073080351
0.52151500108787
0.528770029427595
0.519144092763474
0.518073234888167
0.50188401674222
0.502217526078738
0.507239494480194
0.493769049344431
0.496418155225957
0.479938102435935
0.478005226486824
0.471190162715803
0.469440459002733
0.465536204825002
0.457571697936173
0.465618221621505
0.45748940616156
0.457076518936674
0.45960603802724
0.446272872894018
0.444501394913729
0.44012313190404
0.438531638493204
0.435214884931058
0.435179006458274
0.428268176289798
0.421975418891592
0.431814677196382
0.42102371174184
0.426749229273808
0.414701554831859
0.412509613891009
0.412647534500197
0.416305170987019
0.412631284887577
0.421183858839752
0.392720177969589
0.473442717330452
0.428250037409552
0.412951566163422
0.406058869999784
0.406701843767533
0.401785432921284
0.385991597236172
0.45015599363067
0.418665344031546
0.390994925601275
0.391527196020815
0.386082113804604
0.40332972353463
0.393911828925125
0.385063803382077
0.390210973478056
0.361785890869273
0.436690588019498
0.430289980879848
0.451079193063837
0.475737027277899
0.398927662988207
0.36871453257149
0.384869329638537
0.414636271068337
0.367000727788978
0.375302701466154
0.354750684389842
0.403121169103282
0.367797412381857
0.359076091379803
0.356517717585885
0.35239076695726
0.378300898843765
0.391123186447328
0.355252261831201
0.381191668442223
0.394783309206955
0.364331559684332
0.395381176090613
0.406457123129678
0.370000790951762
0.337988953127363
0.346812167457568
0.333747400646368
0.344536686081611
0.396543022519281
0.334645258726332
0.349233543355838
0.318359526570729
0.322261016267155
0.320658581282782
0.349261479407147
0.332365922848149
0.329734287802479
0.361083584169023
0.312019551679951
0.335760300078208
0.325767762877549
0.360576578050067
0.369114039131727
0.328502421767042
0.303869612007144
0.348330277430699
0.355083730425093
0.319901382598976
0.329668898908611
0.298141319290583
0.310452641995801
0.326479794485682
0.298351440674605
0.322169186334682
0.317091175176319
0.320369182444611
0.359542326333144
0.35633688146803
0.361431642575029
0.311088406767162
0.292909097120076
0.294155629585403
0.295547674848611
0.300266100582565
0.278799476516168
0.326157611176982
0.300185687442404
0.294870593176191
0.346349055954007
0.306999085574177
0.301318014226911
0.299199905153606
0.297426701067183
0.31000598830877
0.331679860310775
0.349497159011864
0.32629991630745
0.323296095349021
0.335173077453303
0.315251697781756
0.320150633066176
0.317441282413921
0.326776634256535
0.325006994522256
0.346329117482
0.336984356272189
0.344154579873569
0.347614590275324
0.347112476067302
0.379935463858553
0.398631153765066
0.362196571763812
0.401918143293348
0.397001703502682
0.447800854153603
0.410350856631685
0.40837230414518
0.411279864303769
0.418720773490243
0.428590956474641
0.425453261774744
0.436098491994536
0.477998049830259
0.447940214638174
0.456798447373146
0.457189347683706
0.471141072952786
0.467561574713044
0.51344566537952
0.490264173414929
0.542144334429899
0.540291291406468
0.513419214505078
0.494557558563327
0.489413868880531
0.50558747506008
0.494871055817192
0.489019395568869
0.494313991664308
0.491726297899428
0.525649784917491
0.500137129864402
0.501437610548933
0.497695706709331
0.502227111558375
0.497961468904962
0.500271596593067
0.506420028629775
0.510072369141247
0.510164567019249
0.520111876843013
0.512855226856497
0.610038341169482
0.545598244450521
0.531136845332553
0.527981253112513
0.538236168169606
0.539027331520224
0.531841723948669
0.548258948065397
0.556621157736252
0.545716947296268
0.552222202185894
0.552602839499388
0.550966710219839
0.56834888057282
0.593360286171619
0.555620838191008
0.579647177199957
0.558327627505985
0.593648703399787
0.628207216144905
0.584901047818988
0.592424929371496
0.585359939422588
0.580910755823602
0.571719404098952
0.578325617587317
0.580088115081139
0.580002575401536
0.581116021712956
0.577632075984181
0.578528190099288
0.579331741186388
0.577785090096451
0.573151566144669
0.597633910663064
0.578937369825211
0.574466827302769
0.577538027255849
0.57730732116675
0.568398754382748
0.588747859771068
0.584276573314183
0.568923284491598
0.574914533578248
0.578030719273722
0.582564643729105
0.588658594162591
0.554118022549012
0.560768972912264
0.55927930807117
0.56515397783205
0.558865944419615
0.568449060230333
0.594992043073045
0.5790792409934
0.571935805362693
0.574363519845476
0.575573182496451
0.584117142655274
0.59211318767261
0.585079217622953
0.595338546801436
0.597146279098754
0.605432069606398
0.605516733144544
0.602723557789695
0.620147002668967
0.620604470003931
0.627020488785137
0.613557674091066
0.611387718428127
0.613836369850497
0.611442291974282
0.623094935189905
0.61676593553561
0.609210616658927
0.620742217949295
0.617955479718474
0.607162851726946
0.638570859975046
0.617209784568826
0.623737649798211
0.614591659962441
0.596624616659838
0.60006121329928
0.600997148436763
0.597010301741493
0.590909547701218
0.604669468641762
0.59569920709956
0.592899236904915
0.584602011907666
0.58892849847783
0.585991614338687
0.589250224777894
0.58608876215014
0.579630562093795
0.572113605917716
0.579734784140547
0.576393410798357
0.576767559907163
0.572140007155122
0.578698802143726
0.585591492673715
0.589690060445566
0.59340404115207
0.583591929439013
0.582038317877861
0.584624546428272
0.573489138751487
0.579448093084847
0.566661161219927
0.576858616706645
0.562265296869648
0.561471852037521
0.564479048196362
0.565221494147428
0.559677263392656
0.564779934619452
0.555973576194297
0.552027711591811
0.547200552484074
0.552806267260976
0.541057364784488
0.545607423543684
0.541343872388817
0.542613265124852
0.53751207714362
0.542599792108494
0.53698029606233
0.52984913508386
0.530363681382768
0.525219827557663
0.531242840800693
0.528932851549153
0.524909838923596
0.519307267259785
0.521144480326159
0.523835918762311
0.52221316513456
0.521270785218845
0.520234923993738
0.522514912530531
0.521816357216548
0.513692000019231
0.515483013834657
0.515941607764939
0.507391647915706
0.505520085283538
0.504804205448073
0.501882971158604
0.50079546025589
0.497068118662181
0.491025017608216
0.492356085562367
0.487604834005251
0.484546535455374
0.482133508386691
0.480365666059161
0.475128228770888
0.476191658496073
0.471548544910355
0.471799040001699
0.472069396403405
0.469204059017713
0.470835430718974
0.469941425947632
0.465982950990313
0.468463273125789
0.466637466177036
0.465935680852918
0.466126447779555
0.464325207328103
0.464565025573375
0.468748642701317
0.470943369996626
0.470187851438398
0.47071242224473
0.474910168764588
0.473174428947223
0.470477039195732
0.472242974509503
0.47954299291517
0.478544405757205
0.475387593281968
0.4763779748565
0.479246413449608
0.47772242920015
0.478583797231022
0.484462748250997
0.485457315218589
0.48087116774189
0.483217980076284
0.48157621011219
0.484058241895998
0.481692329596411
0.479267346871762
0.480648194141822
0.482625007966261
0.47774823998319
0.478361451947468
0.479617611025934
0.477927938869435
0.473816012384582
0.476443466981013
0.474474517725647
0.473740555302996
0.47348358473988
0.472954569133191
0.472317210159986
0.470319397199299
0.467776092941407
0.468228312847347
0.466254469310552
0.466287040033018
0.46080410092147
0.460864494715806
0.459598226396163
0.457830177202769
0.456468355334516
0.453139347052129
0.453712682677879
0.447501451137949
0.444681113885588
0.442748904440348
0.442251140981487
0.439114184337528
0.433904304616616
0.433368124938112
0.430880867029538
0.429032015094687
0.425382457377207
0.420937219861484
0.420970157024692
0.416558926103714
0.413716451180941
0.410123010321175
0.409422045305299
0.410632832845861
0.408219016627763
0.408330248078996
0.405886528566104
0.404476942551698
0.405352006371486
0.406022453925242
0.403394195597793
0.402624315133876
0.405048897589578
0.405583189326964
0.404191652579895
0.403629560748358
0.401880588028899
0.402231081528134
0.399700863047742
0.398441422799264
0.391855467730983
0.390246829540474
0.385368715840153
0.380506847893881
0.378015349120565
0.372325308952248
0.369498302311991
0.364074001718968
0.358964339966535
0.357316278761195
0.351415800792763
0.346911007959249
0.342857412612443
0.343016991444134
0.342725701163653
0.340377416576417
0.339856112199806
0.344216609155164
0.34339133265998
0.347030623610849
0.352004203164679
0.355630323438838
0.358417365064796
0.367042569179333
0.37576348272231
0.384425964024933
0.39327581114279
0.406263657352998
0.41957279138173
0.434590623319127
0.449613863610992
0.464888745204291
0.481877777671524
0.501120660875649
0.520477021410404
0.540652716761275
0.56074488809674
0.588177983766343
0.614476534239828
0.639007213914711
0.667246992858607
0.69033855646799
0.717316331079805
0.739664456681006
0.764281273226047
0.788656404931112
0.814243925569002
0.837246050797898
0.849322687995338
0.867563781777543
0.883792224230369
0.893289284127896
0.89932147610357
0.902373246467977
0.909999810641063
0.911405748932749
0.904188498005292
0.907954548913949
0.904185310525347
0.893960433043179
0.880402215485197
0.875244574016773
0.860567566983417
0.847216772258964
0.837143512026559
0.837003945149531
0.831917755171646
0.822032182842429
0.808567029094058
0.807365933956648
0.807935533637582
0.809312382884744
0.802354898539655
0.807185464360642
0.81102835358467
0.812026464800171
0.820184073645008
0.826745221500928
0.834083096444189
0.840593327987162
0.848407872990427
0.857966558382724
0.865908734696706
0.875479025581605
0.883176253251046
0.88292718017624
0.895140154163144
0.905041702507148
0.912080721133057
0.922360955423817
0.925743826113668
0.926658978759915
0.932970450586272
0.924582811672424
0.929845661115552
0.939327110845857
0.936275489389776
0.933205309065681
0.941411621542187
0.935667112421832
0.948992601212792
0.944573628383467
0.946079039069287
0.960392170160499
0.963960546085331
0.968050735490778
0.965711185595754
0.972812173078522
0.982743864284228
0.988164613521535
0.991133000143587
0.989257375146766
0.998559088420195
0.995293258126482
1.00358191037589
1.02475699955245
1.02872559196333
1.04923242868014
1.06189363452813
1.0778661580969
1.09603721073223
1.11882996311669
1.14083971244282
1.16991286264389
1.20280566323866
1.21416571644765
1.26450359442035
1.30171189056709
1.31792917569181
1.33443310872957
1.37150485427264
1.38503932034626
1.38630998309986
1.39768599212824
1.3943395465715
1.40032783032981
1.37868272517063
1.3577546864898
1.35465522022771
1.34695075642115
1.34073548864188
1.33632771273294
1.32828545156795
1.31197850032214
1.30860353559702
1.31017421239787
1.30761677025139
1.28831095905744
1.31768845297626
1.35211386687862
1.36162510868139
1.3478010808891
1.37535664722373
1.39620987053688
1.39700605813878
1.3962052393612
1.40599042432851
1.43229288932927
1.46647030487657
1.44564145483839
1.45764396929425
1.51267426874532
1.56321014461042
1.54371646026016
1.59539768285655
1.553890571406
1.58005352664757
1.65148047164387
1.64679629075688
1.65162401191574
1.70423705486984
1.69713841822438
1.684681043858
1.71754607280455
1.78495658916346
1.76351968605049
1.88570740819705
1.81480059586709
1.78056053359382
1.86099698195509
1.92591492401849
1.92470649454481
1.89705025559806
1.92941715659741
2.00802424240077
1.88795792016492
1.98850054004413
2.06491439857512
1.93673496377218
2.08904588196138
2.22147455802345
2.08116798017656
2.29681848309101
2.05245856211544
2.07363560863763
2.14665504578842
1.98740119242663
1.92261013965609
2.14671674143303
2.22470450433466
1.99001324247767
1.9045110872107
2.01203923751604
1.96811987319914
1.97224522896558
1.91231724440713
1.95150517859949
1.91366217711782
1.90648002987737
1.83573377507054
1.77644040617137
1.76237358835819
1.83233074095871
1.76754444550634
1.74141061176735
1.74178041057249
1.8047764314152
1.71229457129458
1.69178579406677
1.75340839580728
1.71620167001927
1.65818094832584
1.68116915868138
1.66692929649227
1.65645485465272
1.60163018264659
1.68155229827371
1.58600992171067
1.51378532280071
1.53173615560527
1.50039295521572
1.42395462567942
1.36836692025254
1.33041881391938
1.29462311972642
1.25497450840819
1.20973182416806
1.15318258888811
1.12544243275078
1.08582435790803
1.0315827222935
1.00051511818193
0.963529083507501
0.904480085870399
0.877083349346894
0.853097163819935
0.833777151843024
0.805564823927739
0.783323935577
0.76255383328484
0.742629953294609
0.726421906503839
0.710373434899192
0.696741078605285
0.684507903091128
0.673053182321617
0.666208337939527
0.663987076484209
0.656992839043526
0.646761716986383
0.642677373862068
0.628841336373185
0.62650955087553
0.62785081119982
0.628323057785849
0.617440983735411
0.619058647452423
0.624766638518008
0.623295800016487
0.623141021891664
0.633026866631385
0.634778722909374
0.635992733141361
0.639304623884948
0.643488347345005
0.645473038600713
0.647296199772527
0.657271254562214
0.668610342412189
0.677025008866129
0.670876512294265
0.672878730497319
0.676529538520774
0.680932144749992
0.686920680754181
0.692532873890311
0.69754892404017
0.706352303761321
0.691721490208829
0.690170373342577
0.712720147533456
0.709136679661937
0.699716538977434
0.700370087899594
0.708290279728355
0.704243236446142
0.694514803227823
0.692966906157245
0.704960153865793
0.708894980973689
0.699898824254865
0.689952633643744
0.696377550985331
0.705044926831437
0.696740892921787
0.690921512160463
0.685145969794604
0.683929742777691
0.683859461616036
0.662906283495895
0.670252397741352
0.67418066799102
0.670722812342615
0.685554460973379
0.67148530299698
0.665734582342285
0.679185026957099
0.683298269129694
0.679581946072879
0.684386076941538
0.690216550170436
0.694519696368091
0.7141642906406
0.717286458707506
0.719175997448891
0.722296493414738
0.723304830871972
0.714348241513811
0.733150998026529
0.744073655332852
0.733253658538948
0.722268058619388
0.709846421938227
0.700727907071149
0.708189375865325
0.711146655335782
0.696907130316993
0.693083202638495
0.693881174375379
0.692333804732544
0.694839496352566
0.69131736783366
0.694881925511991
0.685024531685588
0.693523405512848
0.702024465651697
0.697030775373661
0.711079060158937
0.729155563540999
0.715672764299408
0.724907706945227
0.732402219449238
0.718880615718696
0.737006137327773
0.738221096762713
0.740922915435563
0.739896328252057
0.732194468822429
0.734813998351568
0.731807561401722
0.748262703071518
0.757898388097583
0.751262883856328
0.770328471307509
0.774943447051023
0.779328711217512
0.773998232041219
0.773450816122601
0.776767350422594
0.796822914497242
0.79364207194452
0.799976998408338
0.802880633993479
0.784275535498492
0.783490391246087
0.789412438072255
0.782399612050779
0.792295715204126
0.80321899841171
0.79305459296434
0.82076798275157
0.830273733587991
0.791799452679914
0.783583709229754
0.785051983528424
0.797948996839597
0.788427036816589
0.784117249184833
0.811427375021785
0.818047771996592
0.793709127135089
0.785149028930571
0.792035119642821
0.788307491312405
0.800680367710282
0.816301599671903
0.785091247575024
0.800111623072279
0.839849045233746
0.826430962332927
0.794008083586586
0.820938780966548
0.807245555820552
0.806461494020548
0.839894496077863
0.815312863609179
0.815763535681713
0.837393114529886
0.800268361361376
0.785980967176388
0.836672976972623
0.823375159799017
0.836428716469696
0.867129644636081
0.827876648306316
0.808072593393521
0.828670887070418
0.857500358183873
0.842433542407968
0.849209636219545
0.882345963545332
0.86250471138599
0.864874687342061
0.880420136070171
0.871771060871156
0.875924850714329
0.899221987873731
0.904226276059732
0.875236814154437
0.918539535759017
0.891218999234332
0.945099593035521
0.970312438838991
0.950514330546025
0.997692091165741
0.956688664780035
1.00392017474174
1.03897000648523
0.966818989603102
1.07260890705068
1.03310326605076
0.976225585051361
1.04416768826576
1.05794863259337
1.02504916066834
1.09620567716338
1.07340485946282
1.0657762285336
1.13760572792379
1.07509220804725
1.03259959860222
1.07727396897294
1.05778003516616
1.07245476533263
1.07274975715659
1.08641731182753
1.07545885842588
1.12043043671396
1.11985596960302
1.19402996836665
1.11521845155134
1.1467386207083
1.19540606717337
1.09378318841555
1.13791863603684
1.26840842622871
1.11522709210705
1.19275273683765
1.1717353907804
1.21784519919405
1.17676085759367
1.13461162205286
1.17878634858472
1.21336738263561
1.17402067159753
1.15447801058097
1.13462516755708
1.18414812302264
1.12383562507986
1.09914828658454
1.20296987147468
1.21252090256604
1.1690759859571
1.2995979633856
1.18584463352702
1.37849975733622
1.27803390022935
1.12586887068069
1.07698691933916
1.05521133877007
1.03879356300385
1.20371613236802
1.20489835975151
1.1845625930882
1.10165952281516
1.20220012924688
1.14080729456537
1.31168293243285
1.23699169488222
1.2192551921761
1.1382279453398
1.19640792534204
1.27164038590505
1.20828067442202
1.25027390001136
1.35946697754809
1.21150686342649
1.28127394269077
1.15548711266892
1.35123342548897
1.26247862803149
1.07481593537609
1.34422107186656
1.53930862923414
1.40785913961637
1.35847761184979
1.31600590960077
1.70560873214377
1.49337104633723
1.45735162896106
1.0973697868159
1.37130384520469
1.53973787059827
1.68297271267694
1.17463287506549
1.29717558411489
1.18290888550208
1.40231411104322
1.28149469847519
1.14707774062837
1.32349700234509
1.46693089312005
1.4293240047217
1.4924192546933
1.35860324356926
1.66000540939164
1.18017282971254
1.25032264967117
1.3403521978753
5
2.79635124788601
2.31796492855867
1.37261511114333
1.40482402523168
1.2992815552201
1.60648613578396
1.10353478594884
1.44840102312735
1.44137650169608
1.63780167398413
1.82529218388007
5
1.62107692341101
1.66479718970001
1.4069051042566
1.47831012045654
1.09918121369034
1.22363431055678
1.27161408141534
1.3775883431686
5
1.53981833170625
1.1156991710229
1.91784297957515
1.14484699601107
1.75405265430457
1.84926422420191
0.929824189569076
0.965227603971032
1.44171387204372
5
5
5
2.08055602173484
0.793943335590785
5
1.10712719735459
2.53670592125759
5
5
5
5
1.47473863089691
1.19143689538923
0.841757784485209
5
0.851251600481643
5
0.843678791066806
0.858861095011448
