3596
4000.36533379555
650.420452594757
1
2
2
0.107117873357321
0.085002704762159
0.103239582567586
0.0951605567312979
0.103244442407177
0.094628051421189
0.107612187578567
0.0900758321223079
0.109783219587327
0.101427791790875
0.106134045771349
0.0909100356615784
0.104958823727451
0.0977005897163287
0.0981667426092622
0.0860989008922239
0.100181507387192
0.0896325054421967
0.104528949911153
0.0895241175782956
0.0975663288658958
0.0934564163968645
0.102184045624296
0.0922176875566001
0.107795578121878
0.0908040530426784
0.101567240740279
0.089781746623535
0.0996591326789642
0.0938744047863853
0.098247256797743
0.0940151677890896
0.108184145034654
0.0844081043618749
0.105815064935227
0.0853620791447737
0.0932723126805291
0.091525860089544
0.0991070054871104
0.0976087414291557
0.107007592075309
0.086380875837882
0.106618326699654
0.0935457348263542
0.105551751694274
0.0937959597347391
0.108557198122794
0.0916304519986998
0.107015575456366
0.0920311784156327
0.106731374831916
0.0910092661658787
0.111258170412517
0.0960325569489223
0.0999508209908843
0.105721432020359
0.108937481092926
0.0942360667726898
0.109097471370372
0.0905355790901649
0.118224944777981
0.111640071474368
0.10213385902462
0.0956399072923457
0.113201815071941
0.0933450297813578
0.106597025797448
0.0910652725904152
0.0990946448848128
0.0966032888055555
0.100953155002831
0.110222846594239
0.119359738912802
0.0960108495946561
0.107837991510241
0.0916785461282197
0.0993124652189677
0.0830065732569565
0.0865736842821865
0.0928214325806263
0.111922348778397
0.100128895654934
0.102505915550337
0.089946309517942
0.100749024693235
0.105505627635173
0.0913984307339665
0.0921289502552043
0.120173241040967
0.0918479980955003
0.0973526566566466
0.088362381804777
0.0973530318631187
0.0846450967667981
0.0923482249479901
0.089476545377756
0.09424448366878
0.0896681347781135
0.0948782099911204
0.092674183828588
0.102777379744471
0.10752276894915
0.1305217818361
0.0936657507596431
0.150040425266618
0.102704460231176
0.115627552541896
0.129269677275553
0.112707604696921
0.0954484460922389
0.0999960077864932
0.0872049688546652
0.103029615474763
0.0856032227173836
0.0905090574007806
0.113059875937736
0.125331432630255
0.0962969865283731
0.101381710690133
0.0895996868351533
0.0844635942554476
0.111913244420833
0.13512416708659
0.101345735443265
0.110183958942721
0.0886655037447722
0.093146835425934
0.127022964639783
0.125324756514773
0.0926333069187262
0.0962840109139624
0.0889064848879032
0.0862189149496106
0.090447307562313
0.139351020579208
0.0911717175825415
0.10023530726476
0.0808787558067535
0.124289183043768
0.130344952669652
0.109332361785805
0.0889346016366548
0.0864838770525056
0.0954007686983599
0.13800357403005
0.103462575142831
0.0959377763720938
0.117436686522594
0.101820343184912
0.0871750167269338
0.0934698008319414
0.08459413352788
0.114897037558538
0.0946602894325764
0.0674640698689825
0.123292324749602
0.153944725672959
0.122850163820437
0.156379214889483
0.0867707420941968
0.105077486264099
0.0855203694471638
0.0971671409762895
0.0820505705977045
0.0957298299303676
0.0782713086767497
0.112830102791663
0.104918086895242
0.105685176353644
0.0986997084808156
0.131812026736026
0.102074148544895
0.101789930963499
0.145592485332375
0.111582304641951
0.0865020491802581
0.132698396119559
0.104101602908511
0.0858926327427198
0.0934381467047632
0.120459390435911
0.0894937555350254
0.102935833742662
0.0831036683224807
0.100531460150498
0.101858634828753
0.0986007612988322
0.0909318532736215
0.0960359092995303
0.071259296230323
0.108371984557844
0.143771122724952
0.12284670131055
0.0909159344641466
0.0997059836164171
0.0745282427551471
0.143851666216724
0.114463994761034
0.103960365531113
0.0826639386037535
0.084671539123552
0.0843931166884424
0.0977553359989528
0.0857195951767878
0.0811302204894478
0.0663012682603589
0.142758124947119
0.11256423872211
0.0951935737440526
0.0803179992456242
0.108658697644031
0.0795321088138669
0.160561639255314
0.116333119875381
0.098944778171492
0.0854639160122728
0.0988795308155293
0.11166905749227
0.11155173296505
0.0802185247111736
0.0948549579452321
0.0901213435419726
0.0966128027571992
0.0875171874992018
0.0891671706193539
0.0904451115878337
0.0947872177581276
0.0864703106470218
0.1001594637289
0.094388654893311
0.108639422326234
0.0872103281979249
0.0950169404938961
0.0884633136468524
0.0911751020875403
0.106972134815621
0.122492756593885
0.099087484686385
0.102416049305376
0.0925065252949371
0.0945553091190204
0.0908783607916006
0.0956290659319012
0.0930038718161151
0.0996943436229785
0.0873879769427525
0.128352606027435
0.0904310172540448
0.104488442147373
0.0813018506276377
0.129923393955381
0.0948360472405889
0.102653701919801
0.0839529301248608
0.101483025629284
0.0782971382002728
0.111475981676472
0.123830155731851
0.112377237760514
0.0856383142022583
0.121951234103444
0.105672290343782
0.105606293978081
0.0790030221056836
0.099240721883163
0.157990979446133
0.111600825275664
0.10034227065784
0.151557032619822
0.101732760889577
0.116383746609189
0.0844696284497434
0.0992230250848994
0.191265802019889
0.157339339693739
0.0958837867841284
0.106432445297842
0.111397582289093
0.103826896750436
0.104557738948767
0.11253182403735
0.115844187817242
0.135476244255544
0.142855296201338
0.159726769108019
0.0835055432459492
0.145352658765685
0.119948560994831
0.115885561455632
0.0977177592512347
0.109408664945808
0.0946419179939808
0.127834426803478
0.103705737851745
0.134036760905542
0.1043416537625
0.112791940421414
0.127436230459978
0.121440405576356
0.0973369497581101
0.120163028613031
0.111694449065368
0.111266061554052
0.103572687837144
0.107646428861595
0.112315749133144
0.111752309368496
0.11553427444104
0.177132629433988
0.111325568990329
0.129214634315091
0.127127014171185
0.119937359702933
0.102065430930421
0.114587617119564
0.104925700217846
0.109019490132289
0.0932678555076085
0.115309438487832
0.137180309946539
0.120177273735855
0.106220047789031
0.119316196933177
0.109399939493271
0.115434205304918
0.110028524262794
0.115814137151256
0.112426926110004
0.122830487683553
0.102558157887391
0.147624302512485
0.141965014477618
0.113778014837688
0.155847231806836
0.159266625306168
0.130206404729765
0.133867468501118
0.123675643614239
0.132162503221666
0.116811144591496
0.138874523009151
0.119274040162033
0.140120706708876
0.144434085658838
0.147346498544151
0.130483356762482
0.149233126850129
0.189219020963829
0.218450746071174
0.151902600021042
0.152773817504659
0.122138485304941
0.209663377175658
0.169515415074947
0.200564724759186
0.17473199056255
0.165571723126992
0.155473622150472
0.160479807468177
0.16451958923357
0.170037160732173
0.162651844962721
0.174872395638848
0.172083203763821
0.183455950341161
0.188606118205286
0.177347446087495
0.187712625027905
0.23823910868099
0.196827091381511
0.19708012079325
0.191710634084453
0.191766918267457
0.237807726843552
0.222537970680968
0.259901105620837
0.25803812649749
0.244105960685088
0.263027891843804
0.226452454676299
0.230938515186524
0.216741664774982
0.237648268905303
0.235362841904639
0.246603198770151
0.227580062513232
0.251288746298242
0.2413552266154
0.258746195507238
0.252092509322901
0.257418597146894
0.256501425739351
0.293288844414211
0.261885566680258
0.291673606406895
0.260758244105356
0.314099869165844
0.337138143669636
0.36042839146319
0.28527055581379
0.307961460983303
0.286383238177691
0.312931336030968
0.299798213915679
0.320942569625625
0.31448281742469
0.33405956392683
0.353065403628248
0.347131967562904
0.349562321740039
0.356870098942182
0.315999696804687
0.373799509731452
0.338713334041806
0.38015694294638
0.375294764190856
0.380166129065723
0.34967584537587
0.413585717065329
0.367912666854324
0.407394801793322
0.397491193399975
0.398004818068115
0.381375427826693
0.403355563751775
0.385830560469171
0.403171335519738
0.408903694364215
0.415668897892006
0.407263437258205
0.434275291568328
0.412482527040535
0.440710572377061
0.447945820443182
0.457651339271694
0.432874768753347
0.470795106061276
0.425095955496402
0.487976524927522
0.42218940927226
0.518780071682008
0.483565202034175
0.555292228375113
0.484683533962955
0.492125700524145
0.471436075662952
0.494385092796532
0.481642210868757
0.513908666416195
0.506894427657343
0.53437028785181
0.474582842455081
0.536644100743795
0.532422099823413
0.542009647280058
0.513734389371252
0.555703328271708
0.554027660780933
0.580725067566117
0.559538431717643
0.577878898819767
0.559712979550041
0.63857762642976
0.607697223446012
0.62703967266694
0.582808345597414
0.619091078757579
0.578373574709909
0.623856631081604
0.604582530101904
0.636761749760105
0.613966214716414
0.633440030772603
0.620102067115375
0.65442205674456
0.645088478016393
0.669536542800731
0.625720486907803
0.698816627129026
0.636186247175814
0.694184727715602
0.6594162584342
0.682186879158403
0.67362104534411
0.738841627480907
0.687768425711967
0.694195201795728
0.678122285727796
0.759236392054408
0.672170692673413
0.73062270855923
0.707387131399736
0.768221626493332
0.707827023402435
0.771351136449069
0.739432447578448
0.792857884003825
0.788185704325738
0.783352334850575
0.777638339829246
0.777169729380222
0.730606974112978
0.83645297244565
0.791679720247201
0.810611149064221
0.830543310325055
0.785972476386609
0.80408398666797
0.848591292001013
0.78604052506783
0.846855727894909
0.825945525620987
0.857322953835518
0.818717236678101
0.900327692075056
0.844087734283993
0.902677109279156
0.816403338036979
0.923078372101423
0.875504782004812
0.872731277084522
0.873025014218706
0.920982866086086
0.851904848008085
0.959393683569023
0.881889252291578
1.02871887929899
0.844311436833224
0.961133456940028
0.875114141784369
0.958362869472492
0.8878088204789
1.01082946373852
0.8970250402725
0.985372605893269
0.942398895167987
1.0386221150769
0.919654007726159
0.98436289237067
0.961421781672095
1.06132498715412
0.931727747220265
1.02994672865566
0.912277481502558
1.0796545739668
1.00442003354847
1.05621641357189
1.07052035284215
1.02700646716521
1.0152193735572
0.990675081944552
1.01339296251087
1.16849209126755
1.03436746639532
1.07260655927704
0.999692620016295
1.06456290484163
1.00703447627037
1.12042741315856
1.03239126795751
1.15653864870016
1.07236016886637
1.20991385035127
1.07337626199197
1.14753998889306
1.05519367254586
1.13385658615255
1.02083952681744
1.06004782472466
1.08849353543898
1.20478306549381
1.23579327625731
1.21489917562689
1.17413031080519
1.25487457143276
1.08577908623109
1.35168081152729
1.03930081986359
1.15964597320515
1.18718250009783
1.20652490398212
1.13955291344572
1.2847107256021
1.17929028278463
1.15916718275642
1.17981159011122
1.31926481208692
1.19825387840765
1.28460122027126
1.12205197830143
1.40260884983638
1.12886291487
1.28495652645835
1.15824256651862
1.30533977710017
1.13023696488643
1.25987352324562
1.21818488811615
1.30958419061134
1.316185537227
1.33245520618234
1.23109769270712
1.31449329697267
1.13766864087992
1.42630338448233
1.18767988462953
1.46192249120502
1.27009790643237
1.34252631942526
1.17599014923639
1.45865428142358
1.30472126917164
1.3934383719532
1.32989130121228
1.50158341551739
1.25315476301847
1.46667547321463
1.18671701647505
1.62149800252788
1.33903681395331
1.39187179509697
1.26537508566236
1.55801114545649
1.29243905126549
1.57107605952442
1.46959664346514
1.45435325550423
1.2502426642169
1.57307364575162
1.43285549248135
1.526587346118
1.3524721791057
1.53979618270851
1.31928384591515
1.4564611258844
1.26191364030257
1.50069580391082
1.31542125941806
1.58353564388747
1.37950427523583
1.77789268127342
1.23519809821256
1.53553990333938
1.43702267229215
1.46687758334937
1.35543634217583
1.55974586746402
1.36200676660967
2.31440940734199
1.43587986910368
1.52239088314317
1.42595345896915
1.64335310667098
1.56858041716292
1.99916727284151
1.49708839538953
1.73501993881502
1.41928603428617
1.57069689102815
1.42960561992192
1.82602240186656
1.49319095943013
1.64448328762266
1.45845572880638
1.69139782451837
1.51958079669797
1.84088575208839
1.44082069870517
1.72539974490103
1.42904712474122
1.65790754788824
1.48490838880032
1.76808366948491
1.41829828882974
1.92575551967865
1.43606216373637
1.5479290205739
1.43893111410539
2.23083402019437
1.45415500347582
1.85172431817995
1.55997240188256
1.6999643197545
1.45603905025061
1.72162965148775
1.7635328941557
1.75667119434334
1.58760492782208
1.60915631008179
1.55995619936723
1.62416522360627
1.53602825028352
2.15991471256408
1.51986188864365
1.57620262545605
1.54105705525948
2.15871431822027
1.62864030395666
1.94699424418206
1.56077234257836
2.09463155755248
1.51967714790317
1.90725496407772
1.45287000904596
1.55323729183772
1.49273028230615
2.02399462156917
1.59013593881401
2.07041383011089
1.48867870014374
1.80343145181511
1.38442997676725
1.93130111530428
1.54980575288538
1.8602752681955
1.51185881906769
1.80162790461525
1.60333497327924
1.78960749708466
1.58222489280819
1.82862638868284
1.45843101420829
1.72440666121036
1.80968304048666
1.82572413576488
1.5787072169801
1.96146353571425
1.62172114431579
1.66870398145468
1.67520029675698
1.80475978916526
1.56712072361128
1.9060215885665
1.71000476874937
2.01052538561023
1.71316229314447
1.9243542803308
1.71247686635811
1.88622789970029
1.61397943423095
1.56527117828126
1.62610529857674
1.8843526546285
1.5524632764839
1.64342168265582
1.60141897572289
2.05986411374988
1.53584090828816
1.80441551731832
1.64389515014274
1.76524967686895
1.57015913326094
1.87160812496633
1.50963817477165
1.84604894237541
1.66373591846206
1.90344162165276
1.70808803120754
1.77735965030524
1.57603699641049
1.65768323735377
1.61189046003047
1.77232683263216
1.75503514130298
1.70633568477397
1.6928810432158
1.74470043793505
1.72303478737685
1.76610816194761
1.62284492793587
1.83672430483097
1.65185174114131
1.79030188057453
1.53968737507625
1.78732620368663
1.68972544164406
1.54656018951972
1.69590358312554
1.86358487809521
1.57902779191559
1.61233401282857
1.81193600443829
1.71351688714659
1.56475283620417
1.79617034896408
1.68597347409477
2.21573423795537
1.83475423221281
1.81856340536892
1.6901593493312
1.63065320032452
1.66966468118191
1.6767084695641
1.59166031431543
1.91804663964558
1.53431223868105
1.94679018612138
1.71876314243349
1.74883795889178
1.73558239574521
1.6796916931243
1.42459859317917
2.02575437450924
1.69306730249703
1.71542805151302
1.49495335033906
1.61538203335633
1.61591649153755
1.82210317455049
1.66324659934178
1.72315675632107
1.6313714747081
1.76420497099682
1.61481418802526
1.71607223320242
1.49866912575504
1.68605400470038
1.54634674171213
1.66260538562983
1.59498252592155
1.75485626128595
1.52216536066782
1.69319396486431
1.54622225480221
1.8270385054767
1.46540378905379
1.81126578659604
1.67092285671755
1.74163212319143
1.51897902221035
1.72675188941736
1.6660340203301
1.72470945805519
1.45394470700109
1.66852674458802
1.6434989501627
1.73859567320925
1.65005849971517
1.70659872550219
1.74975121175036
1.61051276462692
1.5673273847162
1.6277008707713
1.4581772248211
1.74878648254968
1.52524351459092
1.6273687180308
1.4543759929269
1.50887548620015
1.55270471542369
1.61640939045039
1.46352769834084
1.56963098528658
1.66665334348578
1.74137021217279
1.59255796359988
1.591920810382
1.57272763165489
1.55123838912997
1.38488468281261
1.67364793243053
1.37731203189126
1.48654365399215
1.43456559793436
1.57089292848972
1.37678747417336
1.54029868364361
1.46239885599656
1.5914389809184
1.5291129226587
1.47828351505173
1.36839185528811
1.62282735707767
1.44421140658059
1.38215097187971
1.44822432633339
1.42211649947263
1.42272738395601
1.44280725234987
1.34033358373665
1.55483812208459
1.42295658432726
1.43936757658737
1.30630153857454
1.43146831544452
1.34838265933682
1.45639934366571
1.2883427766413
1.38037651500566
1.30210040877547
1.3876412862514
1.27999892776687
1.34030588882575
1.29498717794894
1.32768345701706
1.33310307656773
1.34284687849162
1.30100635213886
1.30741856289374
1.3052473288248
1.42466944861286
1.29512288690091
1.29909987888492
1.3052507763657
1.31957503349996
1.25541281470742
1.24334589499591
1.20853304104722
1.25804366834462
1.19273730651716
1.28495738760424
1.23998210143059
1.32892329159759
1.24130369224601
1.25545514267982
1.17479496451771
1.20904819265872
1.19492370430798
1.1773664113018
1.14768394221647
1.18534295373695
1.15311511274321
1.17132934019858
1.15806129757636
1.17485621455392
1.13535894645358
1.17326779360859
1.14895382917017
1.15293056451157
1.12247567861011
1.14051825970228
1.09064388835744
1.13983117935499
1.0466015092832
1.12264828160339
1.0878073552277
1.15572624880735
1.07351417602518
1.07470149046988
1.04418337886749
1.10212623766041
1.01001529730807
1.08093840207441
1.00484703765641
1.0695317336446
1.01700378491444
1.01373907767209
0.986719069803886
1.01839890603985
1.00852925181618
1.02288678031553
0.997562288099952
1.02742879999213
0.988038600181834
0.996860289694212
0.960455862033041
0.980106526161603
0.985057277979913
0.993257937553858
0.96480855869432
0.999081855245134
0.946220983740842
0.944370136469074
0.952546635125705
0.947247155761638
0.892258070263759
0.934394059562346
0.901346734026123
0.91784336145936
0.88750209474483
0.920467863388263
0.881545577708158
0.891586541799878
0.884878978401409
0.894912381865368
0.869384542746637
0.876341380220978
0.861231610129716
0.886441047116946
0.842206502562784
0.855055696778712
0.840380575677433
0.852271354023146
0.824251411298176
0.844647567748308
0.823255405999256
0.829236919309577
0.806933727771793
0.833901253197051
0.812800992669963
0.81672030078878
0.788005829016877
0.796368373279254
0.781169136560478
0.785428735799344
0.771034604412007
0.776855128300355
0.763167049752792
0.783540079197062
0.760877534407459
0.773426637246543
0.74901772795311
0.76107396120729
0.74892503126123
0.746946375534369
0.739387415396089
0.758593815879813
0.718525497220587
0.734438401893796
0.713763337444481
0.731813263725779
0.713344948103018
0.728064707862057
0.697395076220298
0.710131885882406
0.704694460890345
0.702299253775243
0.684162541941727
0.69153236178145
0.67981995079448
0.689429807005486
0.679449468971898
0.67810713930287
0.653272615027351
0.662170257065105
0.662270871675203
0.651351814282929
0.651215305032791
0.654314904791468
0.635180222807719
0.648967626642706
0.642342595581135
0.634790943777418
0.625907735225337
0.619454763742603
0.61507066124576
0.641915201513778
0.623231506330114
0.618172184596887
0.605100785691595
0.615983868123401
0.605671178027707
0.611612114231091
0.586902398822537
0.592771460531336
0.589187204378362
0.59331979106935
0.583709968201256
0.594620616305283
0.573459419218931
0.574525128426113
0.568440846350481
0.58555127614747
0.560586719703711
0.570323475284018
0.545534323329395
0.565117965407671
0.549344189246476
0.556530846484939
0.548086662528888
0.564023429315994
0.549956554446886
0.556615977123044
0.544223740908282
0.53747397593954
0.542791468378723
0.549318128670117
0.542675912512785
0.53848804068676
0.527697139637756
0.541059540316125
0.53337386837447
0.544454247068162
0.521331913033719
0.532306331699051
0.534515358968766
0.532094156053834
0.531487189434714
0.534946509500505
0.519611100644899
0.532593093528179
0.513901715423486
0.525071736521039
0.51757527602106
0.528657641476199
0.518110234961645
0.521975767100761
0.527386052610272
0.529467767825983
0.51826114358736
0.523647290787774
0.51777637079044
0.536531190949879
0.529773686078349
0.541817351928759
0.532376385987315
0.531233653797043
0.533210282890553
0.546630183827615
0.534298139664431
0.542297035122252
0.534648106048177
0.546354811840723
0.539096692893857
0.544069213671206
0.539302598427848
0.556886764757565
0.545187871768632
0.5520672848473
0.545127001341157
0.555047394512999
0.556489691990547
0.556064108801519
0.55051154910008
0.561691472123821
0.56384706644329
0.569056893000254
0.562120071264042
0.578432425803459
0.578430138957676
0.584118546735658
0.578749495520765
0.586515957138476
0.584781788819419
0.591780630918902
0.591431213313245
0.607483554991553
0.598641391504249
0.621241228045878
0.616663873498923
0.618728365073982
0.626224157454855
0.642903378036027
0.614583112999425
0.637262464252004
0.637778545135191
0.656787008620987
0.660855620947805
0.662512833561329
0.65192690057366
0.67265785292202
0.660074038782606
0.672050385236556
0.664515916242751
0.675153921501686
0.67399830690445
0.68126528997032
0.671257641114587
0.678634047463821
0.67718764070823
0.679329784319174
0.679113246177408
0.675663045775251
0.677391505232432
0.687112113361388
0.661835108043605
0.671805267698344
0.666562963384091
0.664094339966012
0.65801374066475
0.67976577267043
0.660276857355106
0.667661288296601
0.653531399893916
0.657774197930822
0.637656241301511
0.66215718996554
0.650279357434754
0.658341826811531
0.655583070880168
0.645181521534937
0.630664973938996
0.641085796700176
0.626749866695639
0.639263508849569
0.624121474645869
0.645901024482579
0.635987123870186
0.634070244018306
0.62908210313537
0.637098909081037
0.630879182349126
0.638261460621272
0.618922609004534
0.621960659244065
0.625268406681339
0.636121853339921
0.618241428225022
0.624289203639411
0.626633806353393
0.627398418242217
0.624146906609611
0.625428324585492
0.613880434740945
0.615152704532303
0.606003298701712
0.612959294737589
0.612967382141679
0.614261545332173
0.606393501812679
0.612978770823179
0.597618830569769
0.612254551203977
0.60228025726339
0.597176835167059
0.589293940945639
0.591489370525988
0.582464951500752
0.589914238893328
0.577391782819121
0.572521454394624
0.570501353697928
0.570880943135303
0.558201333529266
0.564355025585077
0.55401737400513
0.554794190423208
0.5424122234317
0.548572231180816
0.542324045538252
0.533245264220007
0.538252526383026
0.543083302386952
0.524111812924173
0.53009219642151
0.516298953567141
0.522192649132293
0.517892551991538
0.512780982306987
0.50171667405508
0.510351212698104
0.4955435295046
0.500633630440287
0.499544735968912
0.494207869587594
0.485235805672483
0.492312421660046
0.484125218254923
0.485116179004693
0.480013129077887
0.478082413250417
0.471663050489407
0.476311820472542
0.467932649971552
0.472983798552552
0.458302994026262
0.465298269753681
0.463222116884011
0.467592595395414
0.459447645901033
0.456494580715518
0.454375300133734
0.45189881175595
0.444181709359711
0.44360769293875
0.439000006245971
0.440686110900188
0.438658116941196
0.446628199419039
0.440690071605503
0.435667813164707
0.433669289173538
0.430890061768046
0.427396580359817
0.428504758038317
0.422092825738732
0.425560205804574
0.422961916986159
0.426144018975673
0.415360035785946
0.409866913021239
0.41139844255377
0.420077814326258
0.412045980108031
0.405884348211706
0.403037403951079
0.412078068004638
0.402202154102092
0.40293690797515
0.399161313826212
0.406440918963232
0.397060977266014
0.401185662320535
0.399946734741801
0.394566727325492
0.389100639781622
0.392451106847557
0.386720682346969
0.38853780246737
0.385266157381868
0.387933733965126
0.387604996515849
0.38674991818406
0.378100644236853
0.378812483352132
0.377584140544611
0.382728615221599
0.377961978775574
0.380613889227055
0.374036873296186
0.372389433778415
0.375689489496166
0.378947048653336
0.372165526201545
0.372731776337542
0.372392934207726
0.378893761378537
0.367008765866461
0.365219416921729
0.365982193268823
0.369853169675068
0.364060320572508
0.364610156014601
0.36422848004143
0.369270789162903
0.360160850706305
0.360555344534963
0.361020148213294
0.359734465249454
0.358407039367643
0.356858403585789
0.354697016102235
0.358350293389173
0.356870536909131
0.354070306677411
0.355657880396724
0.356321332837596
0.350135249307878
0.353435336939562
0.349200856407435
0.354706383677772
0.346642732570801
0.347817409976902
0.345265279763192
0.351605136113673
0.349279576974587
0.3452337075823
0.345821980388785
0.347811575961808
0.340281754985318
0.34804353237728
0.344914632753069
0.343022476200544
0.336907042863137
0.342117070791638
0.337770703146841
0.335655368355178
0.335622106425018
0.336321382824743
0.33281258206053
0.33826417747842
0.334399312346766
0.335337242523907
0.334253495314435
0.337509338941768
0.333180277253623
0.335336306380386
0.335512484536293
0.331783659668413
0.330607388777736
0.330797487538271
0.323684197482352
0.32769620642403
0.328543992759955
0.334982491782256
0.32919260062287
0.325058263652923
0.324651822134174
0.323177739586157
0.323856564176809
0.327703517787082
0.32248597318308
0.323598316531834
0.325142493471466
0.322505311297386
0.322974537613024
0.324183416845069
0.319641646327496
0.316766889326417
0.318944115080915
0.319137032112602
0.318431385193449
0.319323872821916
0.317058973609799
0.315962216207151
0.315301720718817
0.311208194889056
0.308800475825258
0.312808319451865
0.31347905600715
0.315644979673127
0.308650925108536
0.3110489039063
0.310798597255186
0.312102588911685
0.310032390453807
0.305399758810511
0.302171196430373
0.308905007309605
0.309553334749164
0.306454630013709
0.306879228096752
0.30723888957996
0.301800810180008
0.30240477671841
0.296421515710027
0.302241117950398
0.29730943384727
0.295176444739926
0.300662725111711
0.297446730744532
0.294316363543124
0.296487457040013
0.295258679387217
0.293591380413997
0.290917088982754
0.295510079972151
0.294246602056137
0.288228092695596
0.288513848777908
0.292811659466279
0.290343597134668
0.287049892678658
0.287546346057453
0.286737518707123
0.283071274154321
0.291549665341709
0.290946329095806
0.288460212471493
0.282744317965036
0.282099381652196
0.283021586266425
0.281162228123469
0.280383717375648
0.279196408062117
0.277772499123151
0.278542117809517
0.279980486032816
0.277777276226382
0.276405872251193
0.278103523443613
0.274342841789589
0.274828591648813
0.269853275003697
0.271186036012341
0.273223055823225
0.273151705144892
0.269884286715009
0.266846778243718
0.264998641803067
0.265488857435443
0.265602330492046
0.265044662513674
0.26512407560336
0.266889901860176
0.259022288691172
0.257162805013124
0.256709058571751
0.260250044623002
0.258832337582707
0.257731559674758
0.253913337411201
0.255425032936516
0.255871199974096
0.251110816678968
0.247518746678569
0.251779337428577
0.251885366411541
0.248408815130925
0.248207110387956
0.248669622071569
0.243392646660001
0.239113198916245
0.242677481147641
0.242455161133777
0.24252271988056
0.241179325463321
0.237689978531545
0.241329032197016
0.242801316308637
0.241370913643617
0.237537461683974
0.239686363948459
0.238963159520527
0.238933643168134
0.236583151208769
0.237170664631679
0.232864185932931
0.231166772535433
0.236122117622055
0.236321803556434
0.234826074647682
0.231692654798406
0.231836872548959
0.233074525521182
0.233193117966628
0.231371593028384
0.227077342092334
0.232080888869102
0.229552427154235
0.225833723911707
0.230565066364291
0.231042218089033
0.226588688151576
0.227060180778695
0.226468447437041
0.227264933772027
0.228387005238879
0.226232175750202
0.224707362262597
0.226817018143987
0.224696124059622
0.225084205862819
0.225365092964967
0.221053470650758
0.219181008063233
0.219541411251007
0.220667698425521
0.218752658568423
0.219264453722333
0.223820119135656
0.221346178948746
0.21553336242605
0.216688840975354
0.215829474172808
0.215420110769213
0.214450849471992
0.215068258802001
0.219982999131817
0.217343829225831
0.214012046100199
0.212496554651945
0.214241395976247
0.21392833650557
0.214214655978799
0.212934373239317
0.2136245308432
0.215054252644048
0.213503649903366
0.213316259264225
0.211464878897135
0.21265530461538
0.211767452676295
0.210117161355327
0.209477735582447
0.209714459595628
0.212429794392695
0.212269098172517
0.21059793052073
0.212749287020875
0.210781533913699
0.207404636670952
0.208541835745983
0.20846634933715
0.206545283811874
0.208630270214137
0.207950336789918
0.20417513590349
0.204636689502383
0.207221240449768
0.207124893196347
0.209094750427908
0.209278556704804
0.207442796376081
0.205898581390316
0.205871766276652
0.206822489281264
0.204393990784876
0.204904006618922
0.203355440654454
0.204909523866107
0.206280036129289
0.204128523128762
0.203059793734364
0.201482974367894
0.19988806898616
0.197965420579844
0.197884839416648
0.196531884731715
0.200731073756781
0.20062643399242
0.199256529544554
0.197222357407549
0.195931020465694
0.195182522145412
0.195676902463742
0.196788653893262
0.195699661159394
0.197602199849866
0.195027177902814
0.191026266848013
0.194133399965265
0.193478880869205
0.19174343757014
0.193032932692651
0.19405253981263
0.192738635563908
0.194628510102967
0.193733277852239
0.192412726315343
0.192018146728344
0.191649351579131
0.190006732593444
0.192407084199464
0.191133557443108
0.18963584127085
0.187931336565566
0.188450658296141
0.190932491754197
0.190137554904655
0.186680794365643
0.19327113704206
0.193610884395012
0.188925200943887
0.189646690857661
0.1885088845346
0.186167312577098
0.186409657764374
0.186916381001885
0.187807981775913
0.186890954930417
0.186712765142011
0.185489647338953
0.185933169243989
0.185559525958555
0.1846133173466
0.186690785499014
0.186854759690844
0.183634818997224
0.185812869663323
0.183428487052979
0.18512691263974
0.185235320262285
0.182147385032293
0.182750093807289
0.181641304994197
0.180938889789998
0.179410364009476
0.17910548536584
0.181780840043846
0.179321417519418
0.179515778856662
0.176889409889146
0.178231648086041
0.175799078738677
0.176400598213238
0.175448912928975
0.174263861108193
0.173498774736104
0.173573493207393
0.175513363372246
0.174008421342086
0.173216808212783
0.173089158141577
0.17310451178037
0.171260628092902
0.170557017821541
0.171410987445695
0.168798407579936
0.171079752116347
0.171465598650608
0.172461045670092
0.170669106142828
0.168356914299159
0.168877094104358
0.17109192420674
0.168183474743502
0.168144012818913
0.17048467966678
0.169289885093281
0.16563768250971
0.167376799933428
0.165872661012927
0.165187320518078
0.165276200919266
0.165073477992316
0.166914722374907
0.16460831233962
0.163753055273664
0.163831809242549
0.163180045741748
0.162795932997317
0.162695712884117
0.163510998504523
0.162349345826189
0.162076638189719
0.160535924373313
0.163086574430706
0.160317053544037
0.157063738551928
0.158404495257383
0.16076766367329
0.159623403086227
0.160144452906526
0.158266656842001
0.157752757933081
0.156259470500441
0.156763157497485
0.155243242590112
0.153472708374892
0.155144240937451
0.156463271217026
0.155949461897677
0.156383596752106
0.155645237313714
0.152723557639185
0.149783052866568
0.15188802887277
0.154230667839265
0.152335576818426
0.150700572494512
0.152062246287361
0.152889848365999
0.1508577507784
0.152181687810384
0.152022035885376
0.148031690232797
0.147981329889926
0.147892996050941
0.14856317242486
0.148693302383141
0.148314290468257
0.149684761022745
0.151175230113815
0.150180067702666
0.149542736728245
0.149392621721323
0.151522598690918
0.146560513478098
0.147918527472685
0.147399780009731
0.149883232651681
0.149852598399024
0.146949951736936
0.146397836116433
0.147178511446985
0.1474863696807
0.149922075507686
0.147322228031863
0.148686138291947
0.149547428848696
0.147532057488373
0.147900164258315
0.147505744648467
0.15000054004435
0.15061244275871
0.149047700756465
0.146490424462448
0.13762726537533
0.138717877866637
0.141544090855199
0.140941941835392
0.143517042334595
0.143460638581778
0.139905524280355
0.133313663246039
0.14096561550188
0.143147766269045
0.136270596438528
0.132416513216359
0.137167557322832
0.134754560741642
0.132216070690344
0.136506891252543
0.136139992144036
0.140072360078241
0.141140502799016
0.134759533874979
0.141131073113734
0.139163954976267
0.144931993777603
0.137956662399872
0.139025270112018
0.134957912241069
0.139770090521677
0.134138638595955
0.134640929027392
0.135382640785651
0.140096629537707
0.133379451609123
0.1382317728697
0.132824168994932
0.132874074519419
0.133090346146361
0.130643844830903
0.130630909373541
0.136765676418349
0.135658257923392
0.135137153223895
0.136752037456247
0.139414377611608
0.144030639792701
0.129933309603349
0.13918496486264
0.133854462322161
0.146978676289703
0.13005069347725
0.144839527110485
0.12591347915401
0.156584853731032
0.131952946469495
0.156005348597073
0.12283209222612
0.163351433336465
0.129619921865907
0.155751528687297
0.128792075833747
0.160248175792745
0.131282513239659
0.150215006614687
0.136146570450268
0.146460441677061
0.137544478609281
0.147011409812168
0.143936482073429
0.141324729745132
0.142695329573735
0.145905181401422
0.140106396390143
0.14370053502768
0.13965001670962
0.144236428134655
0.138832781694455
0.14335321070259
0.135979067127436
0.143300312445673
0.137074876854387
0.141193381957618
0.137990736121802
0.139816380378716
0.135257457281351
0.140170507583798
0.138269532966951
0.142166758393501
0.137508842114925
0.139919613812159
0.13474390774573
0.13947379437602
0.137374517178198
0.14178237195947
0.138804528086194
0.139977015378161
0.135380314738289
0.141656694720653
0.139738888193979
0.142055536881951
0.141070146904511
0.142247629556323
0.136219086198104
0.142976571783221
0.13955261017811
0.142738610669026
0.140795965438658
0.14047269569129
0.139907618967341
0.143106130006569
0.138422207273049
0.143379174579623
0.142581155239781
0.145932252930169
0.141030838761435
0.144198324197356
0.140421866031543
0.143945449497983
0.141388977822986
0.143920572704542
0.140821320001817
0.147328105113564
0.142291644365455
0.145599773565784
0.141761867253401
0.146574001143812
0.141801273253007
0.144149316721769
0.140498496701221
0.142132638597468
0.141868799884223
0.14696660847486
0.144882720461328
0.145601656632563
0.140294162126318
0.144229519299541
0.145563333858858
0.145034495216359
0.14238767081202
0.147156491365114
0.14198217656946
0.145133773400335
0.144948630074559
0.146125706306776
0.142849166372737
0.147371755947825
0.144275227694078
0.14676401440203
0.143527624103882
0.147840143194515
0.144719067051763
0.146194862267575
0.144037426655951
0.147683084029384
0.146957134763178
0.148484426857874
0.146474348145049
0.148622015990458
0.14531301328872
0.148305473058429
0.147041560669771
0.148192873722039
0.146568836215858
0.14894842415792
0.146262259233409
0.148770517984786
0.147414818351311
0.153027343396416
0.151237067615666
0.148653081383068
0.147205961563359
0.149249528404676
0.1486374433847
0.150940275807588
0.148350609247229
0.153510021112042
0.151460696467098
0.15459227535945
0.150434742727919
0.151693173702088
0.151616029514663
0.156280992327632
0.151891589265531
0.154294043742546
0.152415966448528
0.156809343356706
0.153590289498329
0.156354029775286
0.154349274577708
0.152417108815709
0.153751235407315
0.158222666994822
0.155338585084443
0.154920994407276
0.153390676875923
0.156659228596326
0.154269205203992
0.158050387403146
0.154278936318378
0.155217004823139
0.154926313388639
0.160326921220171
0.155714552395068
0.158513504812533
0.155063858116436
0.159406317710705
0.156754823488136
0.158549366399599
0.157560112572357
0.158646811155834
0.158760865470947
0.16188943093144
0.159763768268364
0.161087300314123
0.157553570865958
0.161719377583355
0.157319058413826
0.160429122623837
0.158861076399641
0.161908594626314
0.159804503581972
0.162529175197538
0.161181334579069
0.163703589136576
0.161939467074231
0.163773609913576
0.163762311186637
0.165192988537195
0.161575928023317
0.163788438871809
0.162909262900313
0.166766162359353
0.163240551600084
0.163950801551975
0.164063524330087
0.167230715002903
0.16207740562363
0.165470467478083
0.164079440633441
0.168388974796271
0.163503580680319
0.163943899937839
0.163777433509198
0.167963041075804
0.163684986703383
0.165236141541711
0.163514112183115
0.168350518410414
0.166777298455634
0.167488759380086
0.163029076324724
0.167668954421315
0.164226396501339
0.165785285816143
0.164362615258055
0.164903837516315
0.162365755482213
0.164712104816032
0.161906453339255
0.163271579704647
0.160130970297708
0.16399815900296
0.162555884803244
0.164017235387778
0.159274820581
0.164372437649187
0.160297209583671
0.163787856867475
0.160183480930205
0.160230950373925
0.161047895286106
0.164559297755621
0.161884398349181
0.163615739820448
0.160664245552567
0.16360416944031
0.160633004039248
0.165069692180553
0.160811121215123
0.163555391551134
0.161536708439607
0.164996734751628
0.160438599658614
0.161642549453329
0.161981001473252
0.162270254339949
0.157480742391953
0.161893155614934
0.159823046786206
0.16160801283208
0.160340860181585
0.162116567589812
0.159616407401724
0.162719063963486
0.159884113027171
0.160673739711627
0.159538885490566
0.161397438416107
0.159165780094761
0.163394026748111
0.158612397100158
0.158287165436779
0.156655017908028
0.161934660526707
0.157424272648499
0.1609349497884
0.158359649779244
0.162726915775474
0.160802905109798
0.158829413832668
0.157291299300361
0.161021976572622
0.15555177284171
0.155778350429338
0.156238171497001
0.159447362120819
0.153404798871288
0.158710874300607
0.156606043541179
0.160932177797631
0.157540247884745
0.157807350725962
0.15764343143308
0.157755147407414
0.154654681062272
0.158506970630529
0.154349682471039
0.15506416482519
0.154398266122943
0.157395589576186
0.155614093010074
0.157942677711372
0.152271666376745
0.1551820542497
0.15459354533824
0.157309867982776
0.155242016804048
0.155133109539757
0.152141517106013
0.154655518230169
0.151320969423164
0.154420760321075
0.150219075459769
0.152821816585725
0.153060781586294
0.152414704012544
0.149857903463567
0.155326416165112
0.151782954267293
0.150883828603489
0.147382055981545
0.154368660428743
0.150069819908005
0.152390836574424
0.15071493675587
0.156117098004739
0.152135205571144
0.152408066460922
0.148410490957242
0.147722801931717
0.147055958565254
0.151210575521059
0.147270311514373
0.148707324456772
0.145299058739039
0.146470130282216
0.147618574175216
0.148127550146165
0.141192240062586
0.144517231108311
0.144491739811668
0.14559390888905
0.139417832219174
0.145156051120032
0.140893218893368
0.144773496842421
0.140869373184239
0.142332197084784
0.137517754394934
0.143373459196211
0.139205271881103
0.142209051420684
0.142240546361956
0.139380954989007
0.135893971333843
0.138075787303866
0.13619862424483
0.137250266783241
0.136322438245932
0.136480504227909
0.1320013513426
0.134615136258697
0.132251930424451
0.133197030206159
0.132416584243697
0.133918517796623
0.132027456715309
0.134666011433992
0.133218814254848
0.132235715662549
0.131134875699416
0.129872803101571
0.127885273650618
0.131384723666216
0.130912962606334
0.129292130408898
0.128360415768049
0.128327619179132
0.136916376792576
0.138165970971361
0.130793324972175
0.129131223712135
0.130120055305038
0.132705137133609
0.127686895549645
0.127570828601928
0.126507444179691
0.129221669277494
0.125835060431184
0.128712087459517
0.124026880966487
0.12777330468754
0.126667654215871
0.129215156482501
0.122560465593677
0.125996715525046
0.125530491271639
0.127767285360406
0.122155083879324
0.126448908879977
0.126403707925186
0.125549288638448
0.124672108788692
0.124354538428776
0.123111241207485
0.134568880374338
0.127579159594147
0.12973441927489
0.121311129827699
0.126090746216925
0.121569519742062
0.12591782082293
0.120598090355721
0.123447083074333
0.120544511354277
0.12289382031191
0.121021987527558
0.121928848525567
0.120367372323727
0.121096538635669
0.118005055668798
0.12268930137752
0.117189402772629
0.123929689161115
0.117834397436204
0.121497449509694
0.117248488784752
0.124804547399808
0.121501607506773
0.126697920134936
0.113781536267408
0.130761958664177
0.133285988383874
0.126843503026995
0.117241630824692
0.117626836582205
0.116794704431
0.118036846394054
0.117582485884364
0.118834340086474
0.116232819886519
0.119826062100199
0.116010251223042
0.1198118498301
0.118900535365509
0.120994398959993
0.116307363230454
0.117012676303257
0.114367541776894
0.117782855705991
0.118962946147024
0.114141908242063
0.121039090571113
0.129730181074399
0.118480894393205
0.12427970169503
0.114621244734871
0.11459701168102
0.139007762581908
0.119440198132907
0.119790488844227
0.111431636639696
0.116862883550725
0.115741140119572
0.11726232128556
0.111044865317028
0.118762438152633
0.11730718542602
0.115582760983651
0.120211797310396
0.114854262313949
0.114036526378361
0.11141227218927
0.114272340920461
0.113051392217172
0.115297420407183
0.113034080128491
0.11231336801366
0.11089937160923
0.110495357148048
0.112703458483577
0.111532710943875
0.116571045738418
0.116603015932332
0.114248018890214
0.112521997208966
0.111931125098423
0.106793448471923
0.118215374196329
0.125315720587129
0.110051050545293
0.11658909882697
0.108716806485075
0.113850801501175
0.111893516839227
0.115927789266505
0.108657959198349
0.112844046501087
0.106176705615994
0.115430215769382
0.110130049705964
0.114408688186669
0.108543039259036
0.113138862020371
0.107492926045421
0.113285913533146
0.109051363400085
0.114358940753949
0.112286153893039
0.111251703692727
0.132170097479165
0.131039115583293
0.12818334061213
0.121405795781701
0.117164580328778
0.110446064528204
0.111593627038926
0.108119929294828
0.110262097028795
0.113322439068577
0.109527857711922
0.113952254000184
0.113868086724064
0.113382435159375
0.110006244378676
0.109881496423516
0.108994452824899
0.113396656211489
0.108953269854812
0.111001564523623
0.109186679336125
0.111976675314889
0.104509173652178
0.122267445776447
0.114536409028994
0.119096409112226
0.0954716474828009
0.156047216528802
0.122142173436085
0.122589321761638
0.112030091010146
0.111929423218153
0.109430936362692
0.108876758669015
0.110730153140408
0.117253290488434
0.110528834664818
0.112328718723881
0.111150298368961
0.116415228667398
0.113458297376124
0.106290601721247
0.121666202624445
0.144628104372661
0.11489642541989
0.124916314417552
0.103485660357224
0.127525589916448
0.135927851244338
0.114412709408541
0.122419632857491
0.113223300234857
0.115520163708449
0.115302586778529
0.11283730428044
0.113950800093886
0.119798696121756
0.116465500440819
0.113439270784984
0.115511545300371
0.11152010473217
0.120310486331106
0.115708450503672
0.125841009166692
0.120107960503337
0.114906375095151
0.122008258106714
0.118039404809021
0.116856238393214
0.116008129593104
0.117634087730109
0.115801652237095
0.13039901111783
0.129208206571817
0.120969336195865
0.135751504860162
0.125229077838884
0.11688529877557
0.122464935240715
0.12452629813056
0.133891839724298
0.104360340775951
0.145592918993204
0.140196339506432
0.140398029375653
0.143310270050644
0.119185312788526
0.125572945326264
0.117664193493226
0.124948034385723
0.116824694056299
0.149537786481583
0.115917703954323
0.135593981513048
0.109952436579145
0.145782707438923
0.129358075709813
0.136733817472561
0.123964777158562
0.12929765245568
0.12098749172578
0.14620417093328
0.121849361458887
0.131905965858598
0.154064389071796
0.154597062425949
0.155525917892204
0.130348807234761
0.132509639898005
0.170417244615492
0.130758568596931
0.14246460178432
0.123826704105192
0.142113102526012
0.124068793808094
0.143504866552504
0.161973994596914
0.142687314670789
0.140018523426355
0.140655818482664
0.128528800737194
0.168516914450514
0.146198563982212
0.143379732256464
0.13452496762774
0.147784610979168
0.128602773699296
0.209091458020255
0.143142129880691
0.17419496924151
0.162503745166311
0.170832034048078
0.156000028556652
0.164408512434669
0.14674412250623
0.170443241456869
0.168903694890192
0.164308686556583
0.139209130172121
0.184705163343817
0.178538795490736
0.162113070311332
0.168188600445096
0.159613259569966
0.160309988478215
0.208068422305062
0.21263608126939
0.200525195404571
0.167290722977959
0.176671554650314
0.195082587762844
0.174269657702718
0.172002897236484
0.174838382293689
0.171650604150297
0.178701789916804
0.177935534329912
0.196301779521617
0.174848444863083
0.192284717490493
0.181261949475636
0.195515407491745
0.207783317387978
0.254241996967508
0.227905753865964
0.209308772776928
0.251316910098323
0.224033800462314
0.22077479911542
0.207152439136222
0.210387036609763
0.224505376991423
0.219361064494899
0.223773281708547
0.215950254582647
0.263051849112547
0.237287847477225
0.261594372526009
0.256529889412864
0.254062577061712
0.248971507278651
0.259377723761453
0.450505798271332
0.275564377747874
0.299046281810178
0.264730947989901
0.309943733869033
0.346407675913809
0.297970709416425
0.299057383568499
0.300886799826331
0.294999383045347
0.318564424290485
0.323196398961847
0.33469683731122
0.350768254542772
0.344362215379141
0.33686132994332
0.386009551970246
0.422421692984907
0.431089530343292
0.396480120490647
0.382543383118626
0.406426324638273
0.417628541535693
0.398079392470531
0.422021893740183
0.403055647368967
0.436908124412742
0.490748911050173
0.45064998603119
0.453512328708509
0.463344831284087
0.50096544587977
0.450055237104438
0.554339301807384
0.505979328025499
0.511803335341978
0.498164537582647
0.514956946899805
0.51518105563115
0.51814847606916
0.571106019388976
0.554005427901735
0.544835106884444
0.554756576332354
0.555113138822554
0.574241065679248
0.570475450045084
0.584966952339562
0.588256970340876
0.648868074332654
0.617072459786042
0.814147561419931
0.635130266381283
0.629629879604506
0.618995714844043
0.631595612322572
0.658437184254423
0.630945968763822
0.684409954360669
0.664289894951457
0.625470735525224
0.630578696859511
0.629287193236226
0.649063461588269
0.631231951632736
0.645949797903469
0.623669717792085
0.682243271485985
0.61659806724181
0.702776277667747
0.70761720472461
0.657559419407071
0.623789459701456
0.638354615411702
0.613792843394816
0.626578618667026
0.591447513351275
0.61882703778738
0.633227595428086
0.610921273885466
0.600718332918077
0.572370020121515
0.621032721320806
0.606865780685589
0.563885882675845
0.568087509161782
0.547920743047754
0.56938169000297
0.526327840097993
0.56125596820046
0.575900101740925
0.524717561891248
0.509661163320584
0.509490374552484
0.499658845954105
0.500259031683999
0.483860330506826
0.493752205338067
0.486864389642064
0.480794541764076
0.474258035685693
0.467159124299414
0.462739391879495
0.45566623327842
0.456146413490773
0.442272655423321
0.44702359982614
0.436625511829025
0.433610080144175
0.431243852347708
0.424287145203078
0.425837117226773
0.422219441924238
0.425071244821213
0.418522494137166
0.414984629928915
0.412800831403094
0.408530832377954
0.414001199975175
0.407283804419889
0.401596517385469
0.398401831574115
0.393542640633111
0.397752287640817
0.39376601092873
0.3921815682554
0.386552789072228
0.386258333002975
0.386646310330333
0.383238828235523
0.381264573828508
0.386068043259768
0.374383906902903
0.455805818487501
0.398182132342204
0.37978637270157
0.370734846881436
0.37752189908886
0.369499422401163
0.359929525476675
0.423983924464509
0.384287866806208
0.368761527695471
0.363351857406317
0.351463585528695
0.37646730831726
0.362871688859069
0.356191355565126
0.362049906757724
0.332797279167839
0.42013031830092
0.407468885195616
0.437244220163176
0.430427312916448
0.369759227741003
0.338314183489261
0.360323643892689
0.378887944437303
0.336172565696631
0.350349045691286
0.324441893421341
0.388310464885138
0.340625881187143
0.335538866397561
0.330023444227717
0.323058678979469
0.352855737435996
0.363769156202109
0.332633824550739
0.358267958063054
0.366610455216721
0.343332115088975
0.370472796818484
0.39397572467995
0.351284619658108
0.314965738662313
0.319478752448056
0.314202415914779
0.32386475186009
0.372045961177546
0.312358904736009
0.330976243888905
0.299425252660552
0.308136059829867
0.304669852941325
0.333527697133302
0.314321725666393
0.316599709116929
0.33974482250825
0.296150370269451
0.325577947927854
0.314590534072349
0.348342417303298
0.359550388253812
0.314275670348878
0.294968608066888
0.342929347124508
0.338157579677504
0.311666796196477
0.320145746772726
0.285801765104883
0.297481693888879
0.318822294292408
0.291485524669828
0.317134654912139
0.3125743276207
0.314814535809282
0.356307961637828
0.358604600551599
0.359184560903775
0.30430199950292
0.292074651856857
0.293366992933458
0.29651294875825
0.297165788538673
0.284413465623261
0.335003434115461
0.300184070397187
0.29886894554852
0.353026731854666
0.306609329287268
0.303518478008679
0.304470087183386
0.305189332563939
0.318715168432135
0.34533431661406
0.362136636488367
0.331268955508699
0.339054794518279
0.349498749273031
0.332123960926149
0.336586220381327
0.334924915128915
0.339187974832431
0.346171331594169
0.368936934256483
0.359322122791693
0.363021053112095
0.370423385309712
0.374025033035135
0.404722414431887
0.422945967779659
0.39126310215384
0.449022568026821
0.4271028084902
0.49094123349701
0.445628847367792
0.448523911210463
0.452765495920678
0.457239693851034
0.469965222910211
0.468946037309222
0.490142770556606
0.530348193369099
0.492588432242421
0.50992863408344
0.503970025136435
0.525012812791736
0.514621170676972
0.574837762209377
0.548816016619681
0.621548416895853
0.593248019015889
0.578027423911745
0.554572174278076
0.543031412450658
0.562182428932857
0.55960377841381
0.544949356251654
0.556749129966717
0.561157977737755
0.597455654274459
0.551142553224285
0.561997937292909
0.549358885485875
0.56333934619851
0.562135904578957
0.566731275311402
0.56452745747029
0.567372052845272
0.573074599162524
0.578400070872471
0.562036054454391
0.6873547753232
0.604485162526292
0.597419542772098
0.595774419199041
0.609110997769859
0.599367961838454
0.601776423109094
0.620768189938663
0.619298602141454
0.612649783799927
0.613597734193063
0.611821567646197
0.618804173293276
0.634466617793183
0.666312511346408
0.623064070189601
0.644440997573303
0.619592356364702
0.678784484840229
0.697983079031458
0.666623600515551
0.672306020309251
0.663856223472222
0.649580080178283
0.64973767464102
0.64895356674316
0.656161829009938
0.656028025763809
0.652841629836177
0.654670023622156
0.653636576386593
0.645223227597566
0.644308985067477
0.645051502793469
0.66375178919011
0.642723648944745
0.638286574253778
0.636466984869341
0.636392148174325
0.62409866753285
0.65087463813796
0.649325168006353
0.636058281551899
0.629592063308635
0.633088075974837
0.646531099029092
0.644955207957242
0.613636670729946
0.624933581444413
0.621882178013024
0.625762363600427
0.614439796128378
0.635521572549647
0.655274938755544
0.645448364174394
0.640748699269429
0.641151125733404
0.639553694986269
0.650719540637274
0.656894453947667
0.657451981508907
0.664278112967052
0.671877905033682
0.677048154183198
0.675228456774329
0.67730082971817
0.694522479520642
0.701115813100161
0.698410152859994
0.692499972137923
0.704185466261325
0.691475387466251
0.707874839980542
0.714261545569907
0.704045698424154
0.706143645446033
0.713226649322944
0.701367888616904
0.703039645758746
0.727939847805293
0.70615437727828
0.717229308869657
0.714099073930538
0.694706362836791
0.700783756161228
0.686577428362626
0.691364004336769
0.687428418975158
0.68882762678095
0.679178902798237
0.681103141707047
0.677406359437886
0.681380299321428
0.679006976044418
0.676432057641297
0.672597399811521
0.672329914220912
0.67169885037473
0.669117212916644
0.666381178336121
0.666457233710152
0.666899538173638
0.660165456567435
0.673445361032527
0.682620868376276
0.682286832527707
0.674408603689574
0.667678072693856
0.667885504044151
0.664532699664401
0.670267553389335
0.660075912241796
0.664025580122379
0.646034424071785
0.650432463318911
0.652010692138012
0.647898171624437
0.641556599448385
0.644487239666478
0.634552776162244
0.628478539543085
0.631377814958988
0.623827364447355
0.622668315232473
0.620444335209156
0.619097218412276
0.624463977344706
0.607926706987955
0.607209220321732
0.607870043029028
0.604549147886049
0.596488622358902
0.594036904794024
0.598421677719085
0.596505164631437
0.590307864449919
0.586629549369053
0.586344132985522
0.591290510427784
0.58534793048902
0.585612678034239
0.580798535980111
0.589156381714802
0.582927206598943
0.575024826212628
0.575424820435914
0.579323390371953
0.571110741577665
0.57209695167242
0.566062462345873
0.56408366210273
0.559283770086714
0.556920249408344
0.552900437537596
0.549570980685641
0.541650646255692
0.541085586496302
0.532522496781299
0.534504934857815
0.535678578552345
0.529595298370323
0.527612450902403
0.525881348735984
0.520080527804339
0.523492068929613
0.519819857311249
0.518792822986692
0.515688160869538
0.515398292292963
0.515481517605985
0.519688448065976
0.519948256800172
0.518791079349323
0.515945921607578
0.518521711075718
0.515301182674413
0.5208514001866
0.521103712313014
0.523453262545925
0.520619430487317
0.524104874543575
0.524875535571694
0.523838177306974
0.529943195890522
0.530317599682439
0.529013029934957
0.527561107444476
0.530084315008858
0.531344042561976
0.53379534301485
0.532430321923193
0.532430071027196
0.532622299138664
0.529780042423362
0.533452531502159
0.529223766750442
0.529072072511557
0.531933475979087
0.529683492854259
0.528218329966113
0.526317753943159
0.527224664972951
0.527030398740813
0.52861314175438
0.529682408573283
0.524636455305737
0.524941344994909
0.523092519644837
0.524452193833739
0.524333422404293
0.523167625312796
0.515452262846197
0.52083053584289
0.518831512410697
0.516322699615035
0.515057931889306
0.515517698964974
0.510224330473835
0.505868732540197
0.502704750052035
0.502244296387995
0.498973140165466
0.500696176659855
0.492448558608966
0.48991474977659
0.485765135475829
0.482099025861546
0.480152146830785
0.474121530500518
0.468068385369387
0.466365611992654
0.460858622056221
0.456222432815946
0.452362475455744
0.451055054543302
0.448525326290936
0.446025051954373
0.44674516060086
0.443547817608297
0.441187195559634
0.444766169829524
0.442938727160722
0.442220878177409
0.442022244488114
0.443658973326705
0.442539243364668
0.447378605457521
0.447864347383254
0.446370073868351
0.44661258473356
0.444101840580771
0.439840317100206
0.443855401147978
0.437420788488321
0.436373691521019
0.427442069982587
0.427599096790058
0.422277328287213
0.417592508596333
0.41189576648466
0.406230311545037
0.400189100964167
0.39152479091277
0.38804459241733
0.382549874516482
0.374850313469319
0.371386577523063
0.372680289428182
0.365324214759465
0.363416624571716
0.362463848468313
0.360931873017482
0.363651928873917
0.362889425542684
0.3676370098177
0.371978622865922
0.376565781424136
0.381592850502884
0.389541116594177
0.398658287434612
0.410639438593173
0.423352699335825
0.435085745950964
0.445623554568998
0.464371416429533
0.482978955180555
0.503665758979323
0.522497535770866
0.547316420315075
0.574460572008559
0.604288505363881
0.631989859306351
0.668279818700521
0.69742671504001
0.734120779897866
0.769839358618735
0.803848867532798
0.840954515502663
0.877692931158847
0.909093555084891
0.940051650460241
0.97162783112496
1.00497772154157
1.02754917880109
1.04790867322255
1.07642448207112
1.09281684932645
1.11256565747862
1.11441326813406
1.11211461994866
1.10325412816969
1.11194798895599
1.10914742453404
1.09472265968359
1.07854878548348
1.07554860995701
1.06535521645994
1.03519423161324
1.01859861220138
1.01577101185416
1.00931128977384
0.987205512986497
0.976268604144189
0.9602271311009
0.952621745617841
0.956025345473725
0.945156251955607
0.942757949053657
0.945647930459342
0.948478818531565
0.944384403194961
0.957316531059653
0.961970721940025
0.978499688817821
0.98514924639839
0.984985724883013
0.997836909513498
1.01216362984654
1.01686361142901
1.02501176627092
1.03614568821284
1.0344795818077
1.03654896998189
1.0499896295248
1.05789549971265
1.0683529184169
1.06559384157732
1.0693979920494
1.07045199708366
1.09117406016348
1.09062247199573
1.10057188396496
1.10313461240379
1.10892198934128
1.11247989722648
1.12157025131001
1.13318496787295
1.11818668139271
1.12269974443132
1.14219657356681
1.15344244663623
1.14523947026345
1.14024349007432
1.14282933993223
1.15420358270551
1.13878171805819
1.13725125379414
1.14538658016593
1.14535565820129
1.1595762244887
1.16202376570021
1.18715363592834
1.19011289486057
1.21557872167737
1.22218692660402
1.27126108388683
1.32168193921187
1.33485164896537
1.33997204391339
1.38528237266418
1.46647738019612
1.49325005258916
1.51935075814749
1.56305798580819
1.58088123982918
1.5879070402594
1.61521154594993
1.64918423308403
1.64433283127153
1.63562763363788
1.60377935114334
1.6326270477823
1.58379898045348
1.55474294596416
1.51435283763026
1.51723584128242
1.51864984016618
1.50761768094989
1.46710063863267
1.49242047688491
1.49290958351396
1.49271403519989
1.51143014848051
1.52713035639967
1.53317936610342
1.52592533392529
1.53184918609105
1.57409973007879
1.56415687927974
1.61401597696064
1.63688125444691
1.67509042859266
1.67628891995233
1.72885513165644
1.76174664945526
1.74216355766766
1.73695047962909
1.7884864661711
1.73864512407088
1.81481047306543
1.91004494102906
1.96936832427612
1.97208458969271
1.93467340604587
1.88813995297642
1.99778420532121
1.99010525160844
2.14582995341651
2.01325041538695
2.01072626165397
2.06954666227835
2.15969293571026
2.35293947602874
2.45096141159669
2.19785179134013
2.20105630163217
2.32514969242416
2.58784754859541
2.37408395383553
2.52801122591126
2.46170663824519
2.15216105856549
2.37324517992917
2.47342985937741
2.6204526792193
3.0001302912247
2.33838469894272
3.60812696994107
3.10564937876005
2.43283064713063
2.49087625635592
2.47697891278563
2.23789461618327
2.50036130874863
2.22991115212268
2.1163966945745
2.68961868707467
2.66109172382694
2.23367592513727
2.24382113662736
2.35205265029509
2.3920433038077
2.17815792266849
2.28395884583039
2.13578610682925
2.21514617417608
2.09559758504284
2.22440734995316
2.11440264810721
2.01681740120719
2.04832680752165
2.14161812652164
2.06632240209388
2.11784515377096
2.11232150882733
2.06729694073225
2.07614439556884
2.11697163993721
1.92362836224238
2.00843795055833
1.92001156525485
1.961171097913
1.87889608639758
1.75940100234989
1.71001919311059
1.65451005689729
1.67914038888944
1.65460621558169
1.52585765428264
1.49191824195796
1.45732993584348
1.45921020546436
1.40112944560896
1.39039597034651
1.33958925735816
1.26391921186039
1.22853897742931
1.18014728901761
1.12544417411321
1.11344996091747
1.05170922344864
1.02162528109014
1.01158509590523
0.973322375285857
0.920349907783842
0.888695822422362
0.876146906855896
0.860544787428659
0.820706600865121
0.807943920645416
0.801286547695282
0.789044745780166
0.773110827724606
0.755627113429165
0.746378300889004
0.746150588247446
0.739910836956362
0.728476964973305
0.714963542280025
0.717885751141248
0.717957910085175
0.709890580513424
0.704635412029152
0.715737230786327
0.717308528929836
0.722224797559109
0.728353575769817
0.741460982578508
0.746500901760473
0.74703199162377
0.751026923930594
0.761483217751604
0.776931101013596
0.782365895529697
0.796634000498673
0.801273077778846
0.817837388077696
0.816139426748373
0.813908692758815
0.821962062670613
0.816252123533584
0.825935992271309
0.835569504910666
0.845626875929629
0.826984550276971
0.837718376210796
0.854288917975156
0.84337288465144
0.842961192717994
0.840634532814943
0.841382910335856
0.843058263867768
0.8278167890985
0.825207026102038
0.834881476994759
0.818147763331485
0.807087184681444
0.814018388157749
0.814603163270482
0.807204948943007
0.804395146156317
0.79496760845936
0.780052560620247
0.782114424123388
0.765348179396317
0.766473899937186
0.766105568062468
0.756394712147109
0.752861002329736
0.760977750489508
0.765895913069782
0.753559726275174
0.760809519866717
0.766759617600565
0.773743787263168
0.776777650648492
0.777744645931226
0.779246683580249
0.775899375434119
0.806650620023649
0.80453143097348
0.795213902687773
0.811496470868831
0.805113788938348
0.787101456120161
0.793302008233369
0.778518174102054
0.770473829448678
0.770435059407766
0.762948580080716
0.755328682371397
0.74202038881726
0.741363306529212
0.743597981866984
0.728278252933519
0.742158603524791
0.736154293796743
0.739109352244323
0.746329894501878
0.7421384259654
0.746993905060223
0.752187269857595
0.745528053304269
0.760455645039472
0.748025138174258
0.757828641612901
0.773282052978598
0.782513610379123
0.790496689533741
0.788445677712851
0.794419946983984
0.810161678776193
0.82435008982098
0.814170445732408
0.823462322777635
0.836208378174049
0.829317901808359
0.82709535508851
0.855631513283808
0.853364847297518
0.838919263051126
0.856994685266757
0.843349741762767
0.825395165729414
0.871771013596838
0.890137822921883
0.885740904693771
0.877788669622795
0.868366641955828
0.856841568816411
0.860487303208652
0.878188248547604
0.899850610252213
0.899390419901045
0.873617532389407
0.887203857607442
0.896683432035031
0.877613665600938
0.85580450882498
0.887076895987906
0.870214488725628
0.87125448178963
0.89040273565137
0.859379128752409
0.870087964975883
0.879818202649949
0.88456956167351
0.871211667287368
0.856048464654468
0.85448539339042
0.86603115106529
0.853784428868874
0.838588668192052
0.82788921588947
0.842676446627217
0.851799158624722
0.844044285484967
0.838449703611439
0.85943306864441
0.879784932916347
0.842295476384823
0.8399066762185
0.856331708251015
0.870379844667809
0.887326049926059
0.869675099239234
0.866330334197839
0.905546994865197
0.869897184410486
0.864607208706319
0.885660940154343
0.885385168467616
0.910350176562998
0.880335698418455
0.874324824562023
0.887950438074235
0.893991076633548
0.902301187085609
0.90448606099388
0.931418795581683
0.985375817979761
0.962118984288598
0.940876876571126
0.959041308152139
0.967158250240647
0.967290409428299
0.985978448343428
0.955273973042451
0.969891657311146
1.01956747659236
1.05293459582128
1.01944445043875
0.971468198823682
1.04153901374026
1.1065253470694
1.05412730118782
1.09099585684258
1.07992453286045
1.05818575446447
1.06339470873141
1.13506266653047
1.12382791358917
1.07814923986824
1.09199613685697
1.17695068704025
1.11043203772157
1.09354922584542
1.08281903989283
1.18485980148429
1.27902231950533
1.19310782091376
1.16300850115969
1.20836777085795
1.11866689189503
1.13835294672834
1.16910895467086
1.14406074588631
1.21306429191466
1.18536421774605
1.17534449412528
1.17291449082668
1.16956123712501
1.31308987589756
1.32308182176678
1.26145882866668
1.12594622642426
1.3415626239231
1.28519061915132
1.27765915006224
1.38292606448842
1.26057978559621
1.12317400525199
1.29532805787211
1.46695762684902
1.30803453782682
1.317406131985
1.39025899630929
1.24354377243022
1.38102187219879
1.29066114008199
1.18396187354359
1.12940234597018
1.22438193597986
1.19757748732528
1.29864453660003
1.31817178522367
1.29310406547363
1.37962791290431
1.30650641885229
1.07788276783807
1.21726282968318
1.40353093305858
1.42281063087128
1.29282139226341
1.15080672980778
1.25459005455931
1.37174857170839
1.26232556776835
1.20933137364609
1.14906414796587
1.34420352281758
1.09588010441506
1.20502675810541
1.29894897931793
1.39911085072426
1.38560709799866
1.35850745721107
1.3549967863573
1.2749261584248
1.50449102478202
1.32556593233107
1.19355132249046
1.4610992457545
1.53598834633046
1.57337735901944
1.20464360933409
1.50412227610573
1.36868778187048
1.3711373463592
1.43811206534158
1.60163022024149
1.84317786032155
1.96748515325559
1.42748062744766
1.81972111882368
1.42639755185998
1.44158761388605
1.21307980165874
1.48170066583397
1.95535730418184
1.57702920632207
1.32441268787706
1.55167155883333
1.57198694790653
1.67083394796174
1.45516216249201
1.81708401789054
1.58973881950584
1.83365876348483
1.07287495995985
1.60066832443983
5
2.97570623008579
1.2288180987273
1.34961892535321
0.987213001240877
2.35840218371479
1.33895926754938
1.35221445725398
1.80110614794697
2.59197073346854
5
5
1.23160108210904
1.66454648200523
1.65115161259541
5
1.46717136347907
1.19201491504251
1.36382363995003
5
1.04780308621004
5
1.76299035356272
0.987210374950476
1.11869611323426
5
5
5
1.29187170473183
1.56708590197386
1.1744853574797
1.39988757817082
0.9281389115572
0.961047479285051
0.864216994780905
0.990229899614704
5
5
1.75928057668521
5
5
5
1.58056327361078
1.18654233941436
