3596
4000.36533379555
650.420452594757
1
2
2
0.0646917317103572
0.0445072273370934
0.0638984822463765
0.0509344945325511
0.0599689039788064
0.0557454267690759
0.0665282228415357
0.0478028143942912
0.0637090285646502
0.0500818961017105
0.0600739629159494
0.0500274240862226
0.0578318070099983
0.0512417290969758
0.0485825207727182
0.0463559406252312
0.0615152025005327
0.0470982788693652
0.0630330813146114
0.0486325097358603
0.0586160846954531
0.0486652751610999
0.0644824727585804
0.0494933163476716
0.0605564043027448
0.0475759734247964
0.0561728759092515
0.0494732250448664
0.0538899825674777
0.0518329786342464
0.0605106842020532
0.0490637363180006
0.0686823101738858
0.0484134224785018
0.0571520391807899
0.0495366729290803
0.0602678269951787
0.0433829660589776
0.056794697277486
0.052584106015321
0.0660390063635765
0.0472616000671433
0.0614632906707258
0.0494071621496992
0.0597353261043758
0.0493998448108168
0.0704045886108963
0.045788284973872
0.06319783219547
0.0473626175993727
0.0601230605887797
0.0563466352589071
0.0703712575803717
0.0564009973222904
0.053841885111719
0.0568645504624157
0.069030164141102
0.0537880850381675
0.0658640420933267
0.0512310215869034
0.065887369477667
0.0676499442387936
0.0537061339980624
0.0562677106283758
0.0613997594981231
0.0501990834587445
0.0610512444768522
0.0506271434970081
0.048843110484621
0.0532165949834762
0.056921692725422
0.0624311972614312
0.072836377275451
0.0459860692061722
0.0634892854022626
0.0507112320565338
0.0514221974651632
0.0449985428349744
0.0452817650461677
0.0558749392488669
0.0659289661612396
0.0508359662426036
0.0564754248019063
0.0438661800003246
0.0514096553862905
0.057755102864642
0.0462328313185505
0.0400871147001572
0.0765650557609851
0.0563641766711621
0.0584676243955286
0.0459676648402773
0.050354895353341
0.0478902883898593
0.0518471504358291
0.0484282314045089
0.0605996564323065
0.05079566777116
0.0547675609825229
0.040015100529625
0.0628992143085216
0.0287552446620527
0.102703457686775
0.0430460007826988
0.104055397160367
0.072607203541461
0.0444796819694291
0.0875536657438602
0.0644538277796485
0.0612406604424031
0.0557509746620169
0.0604067326026904
0.0596776097454945
0.0517278406666858
0.0467113732228626
0.0648238580975581
0.0867939191980294
0.0560706326343249
0.0646645755829137
0.0519858936683794
0.039201235333252
0.0421724802294241
0.100900512238218
0.0434014417946223
0.0708959554352862
0.0501534709164104
0.0487500565051175
0.067469990439914
0.0935020491088718
0.0479320787293807
0.0613649226315659
0.045697957675433
0.0560918249967183
0.0327135179283741
0.0992860075511945
0.0546135610238277
0.0594796387626872
0.0377175930532816
0.0710299683786438
0.0921872041851997
0.0604384635311363
0.0485760039031893
0.0465519895942245
0.0339986641285512
0.0859772371640587
0.0652694545933853
0.0526932207766779
0.0567855393851883
0.073530854512686
0.042513067245731
0.0586221145113521
0.039513842076188
0.063329191298516
0.0574366991177875
0.0185394233236758
0.033681103707525
0.145672465624405
0.0338934331160794
0.121735549397183
0.0449246414321379
0.0741660658321577
0.046583568232281
0.0568408504539381
0.0413354309283007
0.0569182503604153
0.0374581900163206
0.0558423528885582
0.0749474852489429
0.0574243592738226
0.0461461711549397
0.075720092339997
0.0632052822312562
0.0448088242435972
0.103296401008908
0.0814191899519634
0.0287376398533377
0.0845665995832198
0.0582439769284216
0.0510430194898536
0.0459668112154377
0.0912512142565213
0.043827695073113
0.0640772326460857
0.0390197180371221
0.0613690223860124
0.0542239181495277
0.0583666962443994
0.0470467113816228
0.0658261816969174
0.0259280222479525
0.0635982325763267
0.0821297741745243
0.0910252796510907
0.0397697471227367
0.0649634398646385
0.0210190415671302
0.0858390810083657
0.0826864951162247
0.0532475907692754
0.0493842537096393
0.049791579601223
0.0482928734514293
0.0551022577158561
0.0438938637640201
0.0531948986945445
0.0141858846440132
0.088718540114306
0.0694184134176847
0.0581686881088591
0.0404953825918136
0.0592042052961963
0.0349457807193744
0.0871098080749297
0.0848332076593324
0.0505622002994302
0.0508491273022786
0.0432543126437969
0.0575841314170003
0.0725833849101295
0.0454430351982053
0.055641803079635
0.0474270540359958
0.0538608599239245
0.0457049801584979
0.0480096912228272
0.0503973490600709
0.0541824335366472
0.0481490213218772
0.053847239451365
0.0459074798556794
0.0582971881130942
0.0514558210633403
0.0520928397731946
0.0465685669153547
0.0535403505431315
0.0489750373454309
0.0817903202678182
0.0512994119609727
0.0580382259956589
0.0469734751314486
0.0586564316857749
0.0458467986965517
0.0573942085861429
0.0437270248403798
0.0600043057191543
0.0338933823889776
0.089384565423904
0.0549151679799751
0.063707081302252
0.0418689112417579
0.0656695909718149
0.0635238612276765
0.0594895883023016
0.0517588733571828
0.045352672824396
0.0441927423105773
0.0496486986401255
0.0825755369811083
0.0651442771004149
0.0457947930295769
0.0699814413256762
0.0623069497101119
0.0518322765862242
0.0499052432551848
0.0265920058614183
0.117892742769703
0.073502991292545
0.031352475435164
0.118320974322339
0.0696785096078513
0.0664695739756962
0.0586515328889648
0.0198841435994205
0.13987413263397
0.117413872107472
0.060940180482754
0.0583135885945332
0.069010562909302
0.0606096532228089
0.0577612336651973
0.0620442361449213
0.044605446350003
0.0825802557971734
0.0755558590361746
0.128074423928713
0.0419868454445828
0.0743421068477435
0.0918397218259894
0.0632427937122407
0.0598016372451959
0.0588545643297795
0.0471103768366457
0.0682132475586874
0.0735807053748845
0.0737404209874599
0.0694333390433165
0.051076389371023
0.0863727157369892
0.0694945241600875
0.0551229023361474
0.0628060341250408
0.066691509697532
0.0519724498760435
0.0592401095884245
0.0567311041565751
0.0660336608449984
0.0549453824210931
0.0385129234706498
0.111284221405074
0.0747438796635872
0.0600777784566626
0.090008338023648
0.0695278170218984
0.0570691438858101
0.0609440631277882
0.0606930178765478
0.053437580827036
0.0500479856174639
0.0468415042162237
0.0772751208559537
0.0706913818433678
0.0526685571931668
0.0638793423293988
0.0569263032805997
0.0643037888645754
0.05934599092709
0.0624838111288792
0.0584425778452459
0.0657318793901275
0.0533449555882899
0.0791379004460116
0.0918787318522509
0.0505822643324043
0.0816481576013676
0.108367512530551
0.0659924193722994
0.0794037081741745
0.061607580130875
0.0766800842317677
0.0644344986278903
0.0741628706292093
0.0575961675085739
0.0712350917438065
0.0789509053413711
0.0898720279768862
0.0605283371554308
0.0682580542199265
0.109785375725787
0.14381698370444
0.0909580369755687
0.0877908803860011
0.0591330958814848
0.097603366407438
0.113206997040949
0.0975137136026245
0.115945919167486
0.0841371275570789
0.0885215951554717
0.0837500194105849
0.0857674184864581
0.0854849176903324
0.0836165097836259
0.0906073962104128
0.0942102417977347
0.0995461662091299
0.0958152964659612
0.0909076525777099
0.0847493714425038
0.132126077101575
0.105191116694302
0.0970613242542517
0.10223143717911
0.0872829753122651
0.114729623775008
0.127407430169471
0.129455262391075
0.154108174852914
0.11185262246712
0.150407544537901
0.113408809559652
0.116114951100397
0.104354691267819
0.12338224390321
0.116101155063954
0.12437220381006
0.114622814977229
0.121643125233048
0.117486635907422
0.136788373712696
0.120705386553454
0.130939009779511
0.116940150217461
0.148876837424796
0.130567215181189
0.146344959358759
0.128213016867355
0.137629843361556
0.171792953263103
0.194134217798032
0.155071938906487
0.148757865790626
0.153822092276651
0.148828792016693
0.154513524314152
0.152688131309157
0.156546760497488
0.154651595781386
0.176865324214601
0.180904840207253
0.169316079939451
0.189847300178637
0.155365106349994
0.17911071158408
0.168944022684721
0.172783045410965
0.206810323734837
0.194888195252917
0.17111712239436
0.193119947600437
0.203135075723129
0.197178466231185
0.221080862169934
0.195991186266601
0.191239097684309
0.201832967109294
0.201826865585358
0.208219292902341
0.210644436277759
0.223824434012105
0.201655634624763
0.208554565562226
0.213044281908745
0.217349592939795
0.233546620885429
0.227902561011981
0.212535171284893
0.239864101228558
0.218803147944255
0.239133217090626
0.218910784600725
0.244646462325026
0.26276129734497
0.259000173190371
0.273955482919558
0.2503392097306
0.252575574974935
0.253001769088667
0.245684802428076
0.247158046033096
0.251678927179557
0.264679717393017
0.26019952558031
0.265395233167484
0.259124442436346
0.27078015150112
0.263568841636304
0.27087891842507
0.27067207096555
0.289441797597845
0.279909829912728
0.285750159676217
0.281495493780957
0.309030895465879
0.323249963840758
0.329235325599577
0.333246253281446
0.317199516096884
0.299564833865033
0.308341101332424
0.3136107114216
0.313324902954755
0.332059461728813
0.325928417898338
0.322596351477388
0.339887816667552
0.333619616266116
0.341218933360517
0.33639724347929
0.355730945476407
0.355454122037686
0.362384535796351
0.367005481425002
0.363695904684235
0.352539342823962
0.374842574572802
0.391694725581433
0.376196785335861
0.376585478185388
0.390935579773723
0.362840698303279
0.372891228338542
0.386176277596188
0.398686181770441
0.390527589306666
0.394105740148238
0.406991105876097
0.410214867676454
0.408838846841139
0.426700507094581
0.419000585878321
0.420888274916011
0.422123176335053
0.451860898286817
0.438452930278704
0.440450287074117
0.441568608262112
0.444805329411728
0.435141541381182
0.449593464199761
0.470097584727763
0.468886407748933
0.479100459145919
0.475081280836584
0.463309977550859
0.48275130205449
0.490596350388391
0.487367166789781
0.481228404786931
0.495499710752507
0.48429306558136
0.507093773315418
0.499692491296426
0.503518334216711
0.513765815477681
0.506957853572431
0.512409736616274
0.527208390191389
0.493610961258967
0.516786343211723
0.535897553172227
0.537300535717193
0.530062822213143
0.543553510901517
0.539743551851417
0.541981312265279
0.545284163854256
0.561466114828063
0.553020605421707
0.559199376251032
0.54785914934982
0.546687493126183
0.568668971455469
0.576240594049044
0.597421762398411
0.606733613399869
0.576457863195308
0.594066278640475
0.609746628451318
0.606250517010263
0.5894414946905
0.58355545175756
0.606296424325415
0.606196467126449
0.595141171041172
0.613793754437761
0.617792599439454
0.637699187868583
0.620796197399356
0.610858573858541
0.634772941576103
0.653822841519655
0.627838285185977
0.62298841821638
0.664662080383231
0.664710333908189
0.645940360597822
0.657249008502791
0.680879131592233
0.654309249687381
0.632308806335473
0.685069518668647
0.70429923688266
0.711039941684014
0.69481188127494
0.700577026992105
0.713519175675943
0.711341464081078
0.720776435030499
0.715181575580335
0.732223447300486
0.717155759445588
0.734776008179328
0.746554284043673
0.735218026787081
0.735951160748676
0.7366727061694
0.723758478721454
0.758144245352985
0.766671508868165
0.738542447763856
0.73398155889955
0.74016146461507
0.763683329406622
0.759300677709069
0.783788484046298
0.772731481413466
0.754839237429267
0.768283419760972
0.76453422084876
0.776721656566329
0.794637798508872
0.768582763052477
0.770421492534046
0.782529771841732
0.795173147398395
0.786993819900191
0.807001070856044
0.830228493083659
0.795519047138484
0.801460621712533
0.810873364907877
0.816861161809605
0.836189806663858
0.829563340552334
0.812049273590972
0.845428860747224
0.840499937876744
0.836362200723016
0.8774211603062
0.859369621549971
0.84554595459849
0.858053424654916
0.883814587034493
0.858502394328104
0.850560195200422
0.930107517646308
0.901925595447452
0.885488570153922
0.854351378306891
0.837232167977338
0.866260701985145
0.90245756575575
0.862205081125652
0.842162962756398
0.863541506436249
0.899591798652538
0.915584276173922
0.904933797598224
0.892888953671648
0.91905471419938
0.90568610521011
0.902434826879596
0.903579427014446
0.926472408865637
0.951846128196622
0.968707055245186
0.965605772631109
0.980190971378221
0.936041540765714
0.903480851309556
0.917833916519782
0.953951550326777
0.953090101799251
0.960032351288373
0.966746098501117
0.982355266909958
0.946606562066695
0.97991186537165
0.992045431931002
0.95845441362644
1.00038614176148
1.03144404302422
0.936069839589511
0.961131706871772
1.00676896006582
0.983085030877982
0.987165172388642
0.985533049700471
0.972999718376139
0.993742507269236
0.969384756332347
1.00727685096614
0.997123726463022
0.951465410376214
0.963750890225744
0.973382805475678
0.983184950746605
1.01227007952706
1.01940764070969
1.0179118106404
1.01734333403631
1.03484334770136
1.0290468692502
1.06393797748265
1.0473441291288
1.0083513916381
0.981427565089947
0.995518793234093
0.977966715808038
1.01466433534222
1.02436789063474
1.06093360893933
1.02422978677456
1.03411728843106
1.01126618180044
1.03677074749228
1.02563753484866
1.05163164379689
1.04470458985416
1.05347609281297
1.04294916756508
1.03323431908489
0.997183486236723
1.03705493367577
1.03612076617669
1.03323159624464
0.998569372274526
1.00583354371776
1.01641970775039
1.03643331410671
1.01146181169493
1.04503508562927
1.0468814642838
1.07409391643419
1.06262916058744
1.06057293497409
1.0682206456759
1.07385238435533
1.06185161125979
1.08733804525886
1.05850909045192
1.03149651517679
1.01614287276754
1.09685455609478
1.05506149787967
1.05547485076224
1.07003323466962
1.06636989687412
1.04286318654746
1.07051167954276
1.03190575186735
1.07428662230693
1.03686407032264
1.05010462360684
1.03755813039366
1.02130746109041
1.03966650973361
1.0568776156446
1.05490503915248
1.06894653885997
1.03152166399739
1.08507014018029
1.08988098110558
1.10235464428644
1.05945717206275
1.09010160713617
1.04765625959015
1.06297021574129
1.05355512613743
1.06660188159116
1.10754639230237
1.07257265213485
1.05099400047031
1.10108961977753
1.06808921345461
1.02443804649421
1.04296783880994
1.05354900650793
1.05468207310492
1.05332078577406
1.04689131844748
1.07683548979386
1.05903658535564
1.09791701248222
1.05268791978959
1.03042671887634
1.01617636475463
1.0484459141813
1.0385630328047
1.06269592888494
1.06690014093166
1.0351656428616
1.0322470997036
1.05956484869582
1.04671936849228
1.04034728772331
1.03674101677164
1.11330016002166
1.05345354869756
1.03700143258216
1.01844705998548
1.0293479498026
1.06672844818002
1.10599061504313
1.04630619081449
1.03655643717836
1.02758321792227
1.04145081072926
1.01089355018344
1.03660339109581
1.00568008746279
1.05350290016746
1.0435721960123
1.05457138124537
1.04976385261326
1.06179802559195
1.03500604825195
1.05065991103491
1.06188640634413
1.00581706701653
0.981070693479646
1.05774353984867
1.00976181040963
0.993830930210895
1.01569669620925
1.00940981617069
0.97506911314019
1.00908917529023
0.992776331212203
1.01737227695491
0.994747067912853
1.01444578505628
1.01305399289022
1.03591008189954
0.986883857089345
1.03099056910428
1.01454088970009
1.00129312353986
1.00179485228075
1.02206909530298
0.973165897201053
1.01851628068294
0.991264907037909
1.00287098662007
1.00282662460716
0.979231173576074
0.986626509180967
0.999463095020939
1.01506267539218
0.973264889067368
0.958629437688334
0.984121835437815
0.973748217494976
0.957512155789425
0.975073294312557
0.972434236704333
0.954962520432513
0.983009074555831
0.955710370877116
0.95465029787228
0.939715550823447
0.955614575683361
0.903708391845162
0.953387134009158
0.950588410661267
0.923618151118507
0.939729279424035
0.936457509241056
0.897807367374484
0.941288737324763
0.911204045206104
0.928766281709558
0.91134647584366
0.923140755836083
0.918944447667029
0.918922829186635
0.892276337976469
0.924213743539716
0.912497279230685
0.908525033661786
0.891952968575129
0.898501506152413
0.878465709744834
0.891179265565082
0.868997034449198
0.88172223831335
0.868479971951245
0.849322882329112
0.860536660120958
0.893315714884273
0.849466787923124
0.886049913685388
0.86252758410389
0.845548723455861
0.846158537938569
0.876365153762999
0.848347951808086
0.842372015038631
0.836665101866454
0.862128799952208
0.834993582632479
0.830789205879556
0.824726045826721
0.849612256054904
0.810911129144225
0.814642512680515
0.811944021050293
0.821398521976744
0.817117771771508
0.828417204882242
0.800893963846252
0.813976378300668
0.808974207389169
0.813871885164461
0.799510655589815
0.808246223348422
0.777680280939069
0.785908014423566
0.77099232918908
0.769490560212501
0.759152910182311
0.761090288268554
0.775982152611084
0.776283984893328
0.757855750065133
0.749791723502998
0.746721096749655
0.741791651232536
0.738353876602651
0.756577451005762
0.738246758141178
0.739672477365541
0.723278746513503
0.728903333269512
0.708156083768433
0.709541119394346
0.708082624702517
0.715647393155991
0.710234496386753
0.71515841060361
0.715740190428738
0.69683398151393
0.680663361050629
0.684689954187378
0.672454933052731
0.692370477513656
0.673396382768494
0.682894417247195
0.677132888434336
0.678843749564654
0.669247433319122
0.677448086070666
0.663557477137339
0.657240306304665
0.643814127761042
0.666853479151504
0.644829431861336
0.652054554692093
0.639449229214002
0.637980544658852
0.636927831421464
0.641603595441436
0.621504437999925
0.631985466690005
0.623167764863951
0.627874125977184
0.610221317892989
0.620591974440381
0.616856766923548
0.623255790459168
0.616103942202842
0.609844264174827
0.597879647033169
0.596109006899266
0.597992303254399
0.587538052015753
0.579302290900306
0.587248805152561
0.573810637693374
0.58769454263528
0.577298891931625
0.579418342451611
0.582041433422679
0.578099497364409
0.565598206739964
0.566205359990241
0.561523464755003
0.566498583657601
0.55336355249145
0.559926398249653
0.552136006001011
0.561652010329107
0.547800082733915
0.531087166063755
0.527442958844552
0.530783326056799
0.529757390210483
0.534098337159991
0.526554238063219
0.530110483963632
0.528886990928529
0.524483356509075
0.517705867047855
0.515147518527109
0.504560036603666
0.512013511179321
0.504585002852486
0.506952716010524
0.495100846207672
0.505920414986776
0.504361041694836
0.501303827660999
0.483585722084957
0.499143652950402
0.480155523241835
0.486486053636487
0.474471478871891
0.477776520421233
0.470385606423801
0.46864835173301
0.464212057204764
0.478185833759651
0.46839071942869
0.462877661770785
0.461405213349224
0.465363566401112
0.455341058252616
0.465635344075612
0.452685915337823
0.447499490926218
0.445943390914581
0.445252092755141
0.443848056307249
0.44948451449894
0.438561363626243
0.436667663165064
0.429282175396017
0.435974481506877
0.427297772857935
0.439047536765032
0.428589290510136
0.429243987832044
0.419576240638886
0.420442923072359
0.415299262330441
0.418484571367595
0.41878102969669
0.417467849949174
0.409987380109272
0.412736320085953
0.413067939773415
0.417093980306532
0.401010820652102
0.396628850087002
0.398240005744224
0.403319233951946
0.392990969460894
0.394957483022837
0.387300796798871
0.392139022119445
0.385778690408241
0.37990522499326
0.38673324024607
0.384178943626913
0.374794739664497
0.378319146707809
0.368887468451815
0.379185359879853
0.373175020855343
0.371308392271634
0.361056533906118
0.371744535643122
0.362849687454487
0.357866738838016
0.358904585609981
0.361736783144407
0.354587523625995
0.356536566813709
0.348466011616307
0.361568368797807
0.354599225004687
0.352856599154788
0.349379627891524
0.350005861347802
0.33719562107824
0.34815457897026
0.342018605947801
0.350604972434375
0.345969956298521
0.347509059299149
0.341651568532599
0.33932340945049
0.333597419066284
0.343594493125649
0.333125110205369
0.33653824042761
0.337619505554618
0.34275514503559
0.330492461575328
0.336677144894921
0.330044197468806
0.333852231274694
0.3321691465219
0.344092083370034
0.333142673977275
0.336371367616176
0.33370782583007
0.336147840086843
0.336587228252174
0.338246259704533
0.337909411583855
0.340421002404832
0.340729300294905
0.343908800614708
0.337991254201146
0.342534249138012
0.344835572651064
0.344395746123862
0.344452378918086
0.351337357245741
0.353106675689084
0.353776873552031
0.346874743249805
0.356051426937015
0.352435989166271
0.360155028709017
0.356530752761106
0.367000416600923
0.354142532373291
0.368787117761393
0.365781070274516
0.365449078535735
0.358837976596821
0.37140571606024
0.365338415567575
0.368109929646253
0.369631936737743
0.381329410758967
0.377038939663063
0.386532353000284
0.382181573625878
0.384065275778466
0.38042404619444
0.389693382012928
0.391600570000312
0.403617401856229
0.395020917254823
0.402037599120763
0.399272366708145
0.39885284297627
0.405593104592036
0.41477295272898
0.408630931029731
0.415654494681731
0.408253823989339
0.427073880608532
0.425799479106729
0.424872524840631
0.424214199687683
0.438953888156535
0.431194573704767
0.442331905543112
0.440458865067777
0.448845158737612
0.441478738114559
0.456821330620694
0.441367596247696
0.454194467915116
0.459610046181159
0.455736985260381
0.442862152302051
0.455060249317498
0.449469737577284
0.456442516630018
0.445450028160021
0.447495364823701
0.448980396854788
0.447636123530281
0.443008112696253
0.446447097864097
0.445679655287763
0.447770169090008
0.441141941856204
0.449295387816674
0.447903211233622
0.444315693762737
0.442316267907712
0.454098468357959
0.446839803646646
0.453684230220403
0.4393884233686
0.445248099486591
0.441733181009395
0.451542255307887
0.438105606701387
0.448034609015366
0.438779214256572
0.444547998939127
0.432972174246466
0.450031433033053
0.440839429212901
0.4507413833491
0.444961351514485
0.443501745059388
0.439574059230127
0.453434447641746
0.447149072469631
0.450049488867927
0.43880228509231
0.44855089446027
0.449143010696583
0.453105692015185
0.445832583882419
0.452308269412493
0.442863344326412
0.454537727859786
0.440990055301724
0.43334154190269
0.43530293166194
0.444167829097099
0.442143301262933
0.445748778749393
0.437211826457369
0.443367022805951
0.428861018653896
0.438023295360858
0.431876994967874
0.431617379099002
0.424253267860573
0.440742639638098
0.422548621585384
0.42228310640256
0.417512173203357
0.426673172204508
0.412319820703107
0.412676342325224
0.407193899832177
0.40985972514013
0.402493428973154
0.408618351579947
0.390393340437469
0.400713852740529
0.395683080810534
0.399516044501883
0.389362636234524
0.388966510139259
0.375334304137109
0.38533249907141
0.370561775907883
0.378850233101346
0.372026943130102
0.373086931176569
0.367471522174968
0.362764408650201
0.360047043844985
0.362380900686053
0.347017370824783
0.357879049575526
0.344101481271853
0.350582094470587
0.348777245758179
0.346374814647041
0.339064773074314
0.342185680993407
0.334602945240469
0.342309635146089
0.328229125200168
0.32872373035927
0.331654613148544
0.331704280690526
0.31672311633379
0.327380125846329
0.322262521464257
0.324352839512148
0.315902609491052
0.31928744590571
0.311942694942869
0.317913360726018
0.313290594055443
0.31411121520311
0.309829702850784
0.308898427580483
0.304769672395196
0.311029308581032
0.303850816024063
0.307567302684345
0.297769557752289
0.29958737981851
0.301181692012032
0.299753276673709
0.291965630102438
0.295811303595807
0.293074248507189
0.295554458379411
0.292284329990916
0.293775793290043
0.28574737736866
0.289662661443833
0.280523588916078
0.286493471191406
0.288933396323902
0.279918733509105
0.280734887830572
0.276590024203621
0.268226731586728
0.28124062491473
0.273856634872244
0.277966529568262
0.274137486555173
0.278048537114668
0.270093082373748
0.271649078908286
0.267977175511561
0.266794373944532
0.262607271078021
0.263289311101967
0.263575095863605
0.263637170835595
0.257133755835299
0.258223547119695
0.257747851428592
0.261909463231711
0.257720558493834
0.263329399091734
0.250870772441258
0.258372497026285
0.254980058690025
0.255124066565238
0.251946182585627
0.253542284489364
0.250621881384707
0.256575546441141
0.250464360018494
0.254706992843992
0.24868154117098
0.25073817061003
0.247224839609164
0.250925947070987
0.245862490837218
0.250237140156079
0.247615732848973
0.250095204968849
0.242387953846074
0.245046982690575
0.242091148470054
0.244649284742078
0.240340258300646
0.24187697443123
0.241574491701733
0.2424371219219
0.241142512847161
0.246022865655246
0.237620115671981
0.243979334282831
0.236443632802761
0.240713700943495
0.230826046741941
0.238846506372306
0.229765998264516
0.236301355461583
0.234696417706952
0.235711745763119
0.227923456545384
0.236553242045623
0.232457755773668
0.234046166589411
0.227894043532215
0.2365213326488
0.227085011026503
0.231079788566872
0.226844523708418
0.23215304216136
0.225991643421137
0.229062587514334
0.226341598967039
0.231999458530474
0.227154800815859
0.227748350971045
0.225086782083997
0.22603825317804
0.225037989156266
0.227875865331567
0.22261478931922
0.228893259856337
0.223371344791535
0.225521914745673
0.225494115857453
0.226304404165272
0.216477006600009
0.223267937302292
0.217496189151146
0.225088175654232
0.222200251433218
0.224970521383947
0.219288499138797
0.223896703937314
0.216506255572101
0.221000669699732
0.216535254520217
0.224541372340397
0.214816674156676
0.220185486777087
0.216130068150763
0.217648468770419
0.209393232594436
0.215431386510741
0.211824489158366
0.209463802726325
0.209332299808179
0.213236909443928
0.20742437595874
0.214694052225724
0.20990728766394
0.215151155453027
0.207071831867282
0.209748609376705
0.207100444079585
0.211531609707464
0.208112850980414
0.209960953706221
0.205241618659124
0.208091202377661
0.204211617210863
0.206641730874595
0.200924429722503
0.202131893567828
0.19861437974067
0.203728218643196
0.197939780267569
0.200641919913583
0.197917588881353
0.199706655115198
0.197015919959544
0.201930331866842
0.200760831633111
0.196042907112822
0.195185362907492
0.196521105862807
0.191917217941205
0.19715050496304
0.19433697032052
0.199080937683237
0.189463211413101
0.194100958061628
0.190175681944904
0.193765030827077
0.191470643923343
0.192239829934543
0.187588453485902
0.197118491089827
0.18523551273388
0.190324716231645
0.18896154189013
0.188219774039991
0.182475063304826
0.187637040154485
0.181631115263352
0.18746894620753
0.180275181136068
0.185615253879028
0.178476820884159
0.185699131812946
0.180366254712961
0.186654382181088
0.179560946489866
0.180781121063083
0.180149543517138
0.179739611271372
0.173397677522077
0.177236689515514
0.169755291296459
0.171908324664551
0.170190714686303
0.171956472319152
0.171393517984833
0.168680514459971
0.166406666327868
0.17040233279635
0.164528534896988
0.16829715582293
0.166003190180967
0.16976164630832
0.16059079925545
0.166509136038991
0.16131783702571
0.16493389890849
0.160355570993301
0.162725203276722
0.157750600729714
0.156900007696141
0.156103188429502
0.157230645600958
0.153338890840231
0.157619704453318
0.152349086747415
0.155551568147623
0.154364769326528
0.152687936010799
0.153693594706304
0.153814659304494
0.14900430063867
0.149526375068534
0.150399066289098
0.149195117732717
0.15155840264253
0.150785184976802
0.147551473915162
0.150619393654972
0.150678264539908
0.149618741526206
0.147997646212011
0.153633664869548
0.146381529358542
0.150704678927659
0.147368175339853
0.145775224961549
0.141980778631839
0.145329103064459
0.138865318792759
0.142048010504725
0.143778838477561
0.143523089788009
0.139953848791545
0.14477230599816
0.138522597270784
0.143347499989301
0.141555263747024
0.142216153471302
0.137501506342337
0.142613893147148
0.138061152021493
0.142603014704636
0.139682515402976
0.140699448083118
0.13443084214936
0.137860699244696
0.134489161265907
0.136089249519451
0.133383701199311
0.136799987524191
0.135617734949273
0.138645348487065
0.12814307608744
0.133191398123055
0.132867613933164
0.134439045583985
0.12639574528187
0.131276800861755
0.130856883258381
0.130134544487589
0.127091434645541
0.129951226573403
0.130341053957958
0.131458542703787
0.12649466975971
0.129250001906707
0.124410832664719
0.129298125885797
0.12576342697278
0.130463977923014
0.124710853044998
0.130384488790614
0.126227413663983
0.128015339342827
0.122270924148207
0.124755280248621
0.124649353179373
0.12672702340044
0.123126319838034
0.129446568913218
0.120624955807929
0.125529688347978
0.122642418827832
0.128671330168417
0.124277039331736
0.124241923377473
0.121166321666418
0.12715551750654
0.120529183133743
0.127840023916948
0.123232845606411
0.123744224906876
0.122811875826912
0.125447447975026
0.120167128093903
0.127100879248775
0.122025474491944
0.123885478953603
0.115663232009939
0.12431293951945
0.118211144213023
0.122221893402768
0.122395567981802
0.122689513298947
0.117470207884029
0.12210864475369
0.113295485211639
0.119078485302593
0.114581846045551
0.121380473344094
0.117062104959911
0.118759234215782
0.117592000528793
0.118496589261261
0.113400540331999
0.116834872142041
0.1132715747939
0.116479387254316
0.11226559474445
0.11990642960923
0.111584281207148
0.1128455206206
0.109399711563458
0.114625205405863
0.110003871993604
0.116460895227778
0.110605087875178
0.114223507616186
0.111324247372654
0.113569278573711
0.10996491988281
0.110477022221071
0.110421772697748
0.112363121662491
0.109774256446131
0.110886032140816
0.107210594286136
0.108985832833473
0.108798876185838
0.111395099325411
0.106097153025576
0.112135105039862
0.106595906739771
0.110490591241238
0.110049952654256
0.110503395445018
0.106674349995978
0.109182277038254
0.103784198114467
0.110759549084346
0.105687016624973
0.109661385560014
0.106406825800854
0.105910529643612
0.102184747003374
0.10661666693768
0.103941513096586
0.105695835908788
0.103187442733326
0.106898718101061
0.101128377167649
0.106001899643931
0.0986655699177455
0.105287710882022
0.10074954290242
0.102543714608186
0.101900998089672
0.102559670581677
0.0965475138427422
0.105398921798403
0.0996855946024547
0.0998458676121865
0.0960850323167606
0.0987438102102027
0.0965188669623053
0.102568028442496
0.0953636806806059
0.0976464964047912
0.0920334980360037
0.100078636872779
0.0949169190529977
0.0972037225503462
0.0920685085228921
0.0975066138485577
0.0924201890519249
0.095362124932669
0.0914848486191634
0.0957919948319105
0.089320157605835
0.095697160637613
0.0926582304574296
0.0968021960659431
0.0897773424315485
0.0920973413981776
0.0880771630654624
0.0937444060328766
0.089335998759971
0.090898950848398
0.0892121325470795
0.0911626737595852
0.0894606800218136
0.0925901360895356
0.0864242011916766
0.0903320718170968
0.0882002450806571
0.0919795513242166
0.083814870152374
0.0872023020724918
0.0842520656470398
0.0879662722096715
0.0852732996989434
0.0855180714834265
0.0822856127433882
0.0890297095854982
0.0833250088496268
0.0857965986282651
0.0827700747748552
0.0878491165532819
0.0848448524014873
0.0828272532863468
0.0794332663713616
0.0872160225761991
0.0803783533865939
0.0836242271106159
0.0799079441509051
0.0837597109352227
0.0773524637457295
0.0817719860552375
0.077418541349092
0.0809807055373777
0.0769363593948554
0.0802689333081351
0.0761352805682324
0.0820263804142401
0.075082903997709
0.0794517433669636
0.0727882774666729
0.0792136183655679
0.0755995486123517
0.0808996976518576
0.0744219630874743
0.0804540010231008
0.073639121499929
0.07786693561163
0.0758164382785372
0.0800519957012715
0.0716844799382393
0.0762411794947835
0.0712317998900694
0.0779205680259439
0.0734926766203111
0.0780449263950877
0.0721547686512341
0.0762929987132116
0.071690388674543
0.0760314574779974
0.0694728928553573
0.0783092501317423
0.0720773514727841
0.0769635763881426
0.0715181743072653
0.077117747563632
0.0747909829988148
0.0769472822439757
0.0725289228109984
0.074850637051349
0.0712146559623318
0.0774176458197152
0.070584346935657
0.0749512092446765
0.0748399746913321
0.0762771317998518
0.0712560527830451
0.0757148041475199
0.0720815907307551
0.0762068211142816
0.0710170355965238
0.0753665090172335
0.0652595818226135
0.0667575359990952
0.0601677850286279
0.069460562284133
0.0646659598440575
0.0784491255388246
0.063212371329474
0.0622258970699183
0.0610775377506978
0.0738184109244427
0.0580092389786124
0.0694726310050858
0.0625224395266106
0.066568171244133
0.0573049293910752
0.0668841332082007
0.0541570650012148
0.071490148245709
0.0582645612867659
0.0743312902347364
0.0619211480262655
0.0709905412173606
0.0666697878384873
0.073460865740379
0.0568638638944669
0.0722240448972556
0.0563533218964741
0.0701946889975383
0.0508282605117496
0.0725311111543008
0.0475333435996751
0.0692047231306983
0.0454881242773558
0.0740813886195609
0.0465194821531463
0.0777612218854083
0.0464811970213109
0.0828067847829999
0.0422325417319113
0.0800938289911467
0.0399115887135043
0.0809715954845981
0.0409099686840533
0.0945829938423693
0.0393445289812508
0.0944709011178204
0.035531603145938
0.0926043425488624
0.0392389213206342
0.101963419797702
0.0357184378192986
0.0920389239506224
0.0415927640190288
0.0947364571454989
0.0434060708780376
0.0842252118536922
0.0572886458622917
0.0763231448001917
0.064941558642097
0.0686563298119635
0.0739979028092175
0.0561869745513762
0.0816784401703703
0.0543177093787441
0.082850625566726
0.0531427879740087
0.0791499853045205
0.0572689289175196
0.0730006684658033
0.0681413188540067
0.0638944194107965
0.0681035838201471
0.0645958539960177
0.0673986038718368
0.0649407322339036
0.0641861991756979
0.0666877947572378
0.0642491402750448
0.0680830198024333
0.0629749134043898
0.0652465913624298
0.0624244566876315
0.0633111576784583
0.0651487272319543
0.0657304053235856
0.0634505142566527
0.0626282667580463
0.062354124806256
0.0613324151623025
0.0631986537992702
0.0630147609715221
0.0627957544568406
0.0646105731398523
0.0617505809226218
0.062368625157671
0.0620179678517753
0.0641665740110788
0.063798614306071
0.0646695326604373
0.0628544028032196
0.0628060558396531
0.0657590588439342
0.0659013549253381
0.0627602847192387
0.0618941836922432
0.0631928886502326
0.0606797074239668
0.0647185605663804
0.0633651565391233
0.0642769236874456
0.0632463491894071
0.0647890288939248
0.0649279954763642
0.0639345428141491
0.0640816018433032
0.0650182536015166
0.0626708939805837
0.0637747857550278
0.0639482228828501
0.0635037265346419
0.0655487575995598
0.0637603585130991
0.0658944746218804
0.0653496675787201
0.0635925518428352
0.0682986589095656
0.0639865429943395
0.0625044806904752
0.0636308596032156
0.0648033520882665
0.0628904346189989
0.0665531231763393
0.0653515872617179
0.0648765202320129
0.064211981809544
0.0657222325770094
0.0641145769188708
0.0661465058398048
0.0636636710623401
0.0649880783037924
0.0647035007272725
0.0634746755481445
0.0617071170298004
0.0641424766817793
0.064171010192465
0.0649638785631344
0.0622271343647352
0.0672711230309685
0.0641259292286944
0.0654261038162784
0.0650459430598331
0.0659838071509083
0.0619515064924958
0.0669058286697204
0.0651082059036176
0.0655602269721374
0.0639750507162466
0.0671934428766775
0.0642994746940719
0.0678958861272639
0.0626766852174347
0.0663385961044988
0.0657792417267775
0.0646347438852181
0.0644023006186808
0.0682429442837649
0.0674535934830125
0.0658550653257009
0.0645288585571921
0.0674698876748471
0.0645431747044415
0.0662958127590959
0.0661105430673207
0.0678004115531265
0.0655288624181237
0.0685089152955475
0.0641004014612163
0.0670510733976003
0.0686013735080416
0.0698402549118347
0.0688411381769372
0.0680617757443714
0.0659376833541174
0.0686013211440992
0.0680688838919985
0.0694199709549983
0.0673183467875164
0.065353612393943
0.068177303934048
0.069759688934309
0.0691064181941032
0.0676071528404619
0.0659819380171929
0.0699739074106613
0.0677280243186687
0.0694537310898032
0.0673003902408705
0.0685379420064085
0.0658233799046849
0.0716279478326748
0.0689804184987401
0.0676111265685796
0.0686965160548294
0.0698462088099339
0.0679475351386157
0.0697183446963836
0.0670562808735812
0.0686327846500188
0.068547890685057
0.0715144503857697
0.0679385752473421
0.0725020184222444
0.0689182331391656
0.0713487991683047
0.0687711274729691
0.0718760128268273
0.0696199202167334
0.0714997455526736
0.0704340341712509
0.0725030611431986
0.0721924698761716
0.0727062930331619
0.0700693446184486
0.0736730851992915
0.0726576454163663
0.0744677203206144
0.0710161013714829
0.0728115682879059
0.0702623980031019
0.0704172875743938
0.0710985845135699
0.0723006941205871
0.0721156051263511
0.0726779381196031
0.0695278547763984
0.074126552385365
0.0709176204898944
0.0734600909947305
0.0707156162183931
0.0722960906875592
0.0734786837251836
0.0746527709756632
0.0701494016062106
0.0718697910817791
0.0703651531296601
0.0716866931146906
0.0722865981346675
0.0753911512780082
0.0723855035031908
0.0721071295324077
0.070849846668826
0.0703997542628328
0.0708019044708612
0.0703742600369971
0.0691644357918794
0.0708480683325045
0.0689946294070945
0.0700152780462143
0.0672865149691148
0.0683860455154044
0.0680868086695554
0.0720188625200449
0.0652563293456267
0.0698836470040672
0.0670345820202216
0.069403642477729
0.0675907558676682
0.067898090883359
0.0667238578809575
0.0693378820235241
0.0686006028377893
0.0721592505208129
0.0673367322592484
0.0700948345099315
0.0665990201741172
0.0686486303281263
0.0677369987092948
0.070030916994985
0.0675088507886833
0.0694392252947702
0.0670606247065157
0.0689298791194484
0.0675924285731172
0.068522278667628
0.0676802212067082
0.0685482115985634
0.068670360614572
0.0668683821063104
0.0658598607844831
0.0681478296086288
0.0672748879443336
0.0677970482379434
0.0660344543527818
0.0680088392344718
0.0651765266157408
0.069321820931844
0.0682457743267985
0.0689165845414093
0.0674284692974261
0.0677874671026857
0.0661052881423088
0.0692788368159728
0.0680739003270299
0.0685794389684514
0.067372050434105
0.0675303986359221
0.066540989197725
0.0665912226979774
0.063819616314742
0.0694619973153292
0.0664226548220933
0.0646733322129435
0.0654372688651115
0.0690006023577442
0.0656002285765845
0.0660267430533285
0.0671157633233699
0.0669630357706108
0.0638672683827468
0.0655131811938996
0.0667356019715734
0.0666063546164569
0.0632608142024859
0.0641831520276905
0.0642778161284564
0.064915080488434
0.062878773773013
0.0648316022287193
0.0639879594924861
0.067568269746222
0.0642610255944165
0.0659507983607283
0.0615742410950757
0.0638861893467039
0.0633997086734201
0.0657157130709076
0.062679595541828
0.0651353707546653
0.0637439044638497
0.0653124550952732
0.0628002368842892
0.0648174453609082
0.0633238499085735
0.0630694894155237
0.0628080882081299
0.0664819816503547
0.06372802919279
0.0649117031080642
0.0634119002991854
0.0640520732656979
0.0631574851832118
0.0645743517262155
0.062022161366682
0.065311936831681
0.0648349882891894
0.0665056954442601
0.0634843076695742
0.0614267781356078
0.0614985768373452
0.0657020912469794
0.061970421095193
0.063412956716273
0.0611342949161342
0.0626513081496159
0.0616236065622309
0.0633025115956037
0.0588654889304128
0.0627781854348255
0.0606089811268334
0.0608660257984882
0.057632459874983
0.0614259659555448
0.060209300781144
0.0619036557268651
0.0613564266301068
0.0597434139188523
0.0571205007304523
0.0600866808499624
0.0576271903504952
0.0585480555503977
0.060205608635538
0.060329115871504
0.0592387833879358
0.0586737415989356
0.0568138678666107
0.0569677514729524
0.0559239211344528
0.0574791163788001
0.054459827290834
0.0565724965793032
0.0561086208791603
0.056498520029651
0.0552497624896328
0.0567232446118881
0.0547291290511167
0.0567569712855089
0.0529034327246013
0.0550218300810921
0.0541124628535392
0.0535867083795339
0.0509986419495946
0.0548030799085572
0.0525697825385071
0.0517562785066228
0.0512248393426745
0.0550085383062653
0.0543330915865376
0.0628876679247149
0.0548805269135249
0.0546040844763163
0.0541223422166876
0.0563866504818539
0.0515594505119209
0.0544286325563136
0.0499695586634328
0.0549846227011817
0.052002825206572
0.0524251091530568
0.0509119529606476
0.0554530939010783
0.0513187019933628
0.0539012512283032
0.0504048809544294
0.0521566498925811
0.0508120312266779
0.0540150038843361
0.0493080471482618
0.0535039327528302
0.05180950208511
0.0519190989314382
0.0497348153915936
0.0531150066073217
0.0506512943002034
0.0607750690639964
0.0546726494124781
0.0551826686864479
0.0503932988040131
0.0525497936342981
0.0503438109572434
0.0524235934410351
0.0500955961649058
0.0524302287458505
0.0506816970055645
0.050899143869642
0.0495111599838384
0.0504502754607482
0.0500663156620625
0.0521323849843999
0.0490750972660197
0.0514860066340736
0.0469400769133887
0.0523223158713187
0.0481251551218437
0.0508486907348434
0.0490276650564067
0.0513470159962231
0.0505400968682249
0.0532648713264307
0.0466030591107996
0.0524024943225407
0.0628183409361149
0.053202175873482
0.0518468132828804
0.0483323247241917
0.0493335923149584
0.0508682002121282
0.0492703240424275
0.0482076687930887
0.0474050128123601
0.0455360632198841
0.0480376160858415
0.0490812763788752
0.0486138160693752
0.0476035639740335
0.0483056766313501
0.048621801137578
0.0485358332142285
0.0484575814640133
0.0515040288329372
0.0478211479327462
0.0481488534300556
0.0575936507622825
0.0517550871347287
0.0505284872700237
0.0501138048861026
0.0396152080806215
0.0631812055760834
0.0558583415034723
0.0485288943181633
0.0494175841191652
0.0479729182723418
0.0489362508737899
0.0482467359205146
0.0488028756810155
0.0474783691210696
0.0546215556720695
0.0453184087210802
0.0537373979772981
0.0496499245884647
0.0491715912877081
0.0446824242218189
0.0485022659579102
0.0452513068575695
0.0477510703709809
0.0456012734971122
0.0484324369092336
0.0477121414552432
0.0468626922939643
0.0482327851415361
0.0463332326781057
0.0477683643406963
0.0528683983197618
0.048710280142243
0.0484882492140259
0.0471247059561732
0.0459529549562111
0.0475353909618715
0.0631725845360094
0.0432948322844662
0.0517183038385019
0.0457957296190731
0.0509536601497413
0.0447137740668235
0.0505292103863001
0.0446353380060125
0.0495473472232467
0.045454334739746
0.0495143780955264
0.0480102909557494
0.0482060267076525
0.0456409746296513
0.0515410457210953
0.0462662371135523
0.0475822285351588
0.0490979053322824
0.0471193604133609
0.048834776366769
0.0458330497843409
0.0602384748037929
0.0692764018709585
0.0554988560982734
0.0580162354140438
0.0505234970720381
0.0491811690899685
0.0441301347313082
0.0488686935876946
0.0464320563702851
0.0504036650945553
0.0449986432590888
0.0515169080577187
0.0465619996443236
0.0511527497699442
0.0433098774010248
0.0495148009612143
0.0449671863066053
0.0508980782352408
0.0459803823149536
0.0486344651426969
0.0433083818778678
0.049769924931279
0.041684276516275
0.0526144580731616
0.047676359213061
0.0548773709246239
0.0374327906164363
0.0705360708632772
0.0674071349583148
0.0513730614379763
0.0542580783592601
0.0469975945731334
0.0483636707671617
0.0476034531932814
0.04900469465127
0.0541560550894023
0.0486080108508435
0.048041073434729
0.050364535097024
0.0495608067029756
0.0490766307112603
0.0434078522716176
0.0536098874292309
0.0747364124079117
0.0545595621283577
0.0558836343145467
0.0467734200151589
0.0512611736873148
0.0726712926973637
0.054666082602293
0.0526008482808332
0.0527313530428815
0.0495641888114951
0.0540336151385359
0.0484134916436027
0.0523556690374102
0.0560929382964233
0.0552821101653026
0.0489157066910814
0.0520228639675067
0.0480803478571463
0.0546873101510437
0.0515302085556957
0.057434938626682
0.0570699633070221
0.0538190651974291
0.0548406584098629
0.055124339277686
0.0513286814154885
0.0535325630369394
0.0507660132405465
0.055779576772199
0.0594082204151511
0.0652022484995878
0.0522184019618023
0.0642080480530812
0.0609286100031319
0.0507226235906497
0.0549764823293403
0.058398646262386
0.0596796611924728
0.0476185404221299
0.0536591957084154
0.0789998535199146
0.0639804098599614
0.0754893622666898
0.0529265677121412
0.0583178412501632
0.0518589413593297
0.0577697332067501
0.0479984946483462
0.0655572281188604
0.0546037707046018
0.0588960217723642
0.0524660675263265
0.0605928937101814
0.06402511443698
0.0616588615654805
0.0577597469266197
0.0567481766301792
0.0535801480954898
0.0655276863992365
0.06037222231628
0.0514143869855047
0.0827269626733751
0.0787537382327923
0.070628323631836
0.0695385422293946
0.0574359538333515
0.0899356600568573
0.0624959462130976
0.0634864730166644
0.0580955434525032
0.0629733886150552
0.0571373766189912
0.0581159579622643
0.0859598810347655
0.073320927198137
0.0622096334496453
0.0697412364872968
0.0574843591895514
0.0849401191843361
0.0751611119257261
0.0654524543955817
0.0643292119655917
0.0712193661662336
0.0530422128569938
0.093495949798017
0.0858695827320669
0.0754040997788355
0.0910147265237429
0.0821207386233849
0.0808800883368389
0.0801259774872859
0.0759099698592552
0.0802075314141962
0.0905914386551132
0.0827731067136811
0.0667918815131626
0.0841715983100041
0.102457078076741
0.0789305088350033
0.0857622690479081
0.0784246058073897
0.0724751323508886
0.101326665309883
0.130634310909376
0.110843471146219
0.0881275858973615
0.0868440126062068
0.105329445576522
0.0899358368487523
0.0862997394474276
0.091419914484878
0.0870552573784963
0.0899627640504015
0.0901296185199128
0.10121306372151
0.0908863285522171
0.0936003111681523
0.0922835023611615
0.0930004165932945
0.109098998504392
0.142913722880862
0.133948188653728
0.107890781027343
0.129175448929522
0.120734982033697
0.112455225454002
0.10640925742639
0.104836718962678
0.117675088897455
0.109862657718166
0.111158757668851
0.108893380455379
0.131475621072411
0.124937188589893
0.124775342321017
0.140224348384551
0.126068987814989
0.125506184786218
0.118743773166266
0.24176456601894
0.165953931478531
0.146893055580379
0.148031696772954
0.146713193797982
0.210224906755321
0.164361023044163
0.155688849147765
0.159806096368638
0.161551952320851
0.169120524069534
0.180118788089381
0.182413043172391
0.193284165710001
0.188516050074327
0.184511374076081
0.196876372722439
0.251702038900138
0.256803778970159
0.2377575557241
0.21445296508611
0.237333964723269
0.245825024809121
0.236118201630627
0.243018869716122
0.240092869671904
0.241157966477578
0.304242296270642
0.269627906347258
0.266229771366991
0.269033718131562
0.292915736784345
0.277221715451335
0.319568018214738
0.328450217630583
0.306065533724112
0.308226528026124
0.306235586828089
0.314790456856699
0.31606871624265
0.353630602969854
0.35082052134094
0.342264347334197
0.345431910088685
0.343429145998619
0.353988357715407
0.355939783824441
0.362345075343012
0.35996704383144
0.392630707649804
0.384774622128176
0.518022334188591
0.414274282323007
0.37470292904728
0.376834647221034
0.373433010433433
0.403195504559037
0.396047276920937
0.407202791126832
0.407076846070656
0.378252676087705
0.391580937003091
0.381752193847545
0.391377127339906
0.383866944997701
0.384286276527423
0.379486619809755
0.399061044236283
0.383933238139091
0.388928556397811
0.455531966265535
0.394690928692379
0.3756821702179
0.376907937140399
0.378588839297321
0.380422532783126
0.371249090221346
0.378048817585395
0.387958768888982
0.371782249208848
0.364108132564964
0.361177362239736
0.373881457423742
0.390894662448105
0.35568541406212
0.353059944872362
0.349024021815907
0.351880472777789
0.337384958183566
0.338062191340347
0.39584106504879
0.35388547615377
0.333478642817666
0.339944130351593
0.326207989326684
0.329731585708243
0.327456727849243
0.332490599839928
0.332020811186787
0.323717570934475
0.322735717721249
0.322409510169333
0.319071646047702
0.314866505188977
0.323832855112826
0.318037996162711
0.310870189261065
0.31510972225293
0.307732108200452
0.313193340117992
0.308452965998263
0.310492639520565
0.309474994826623
0.311444315175423
0.309741253553279
0.308439503696968
0.306310034773958
0.306605869545039
0.30487087434975
0.30712642666123
0.303476739158619
0.305608363432915
0.302158066295677
0.304707353115829
0.30081538385194
0.302356890592708
0.30056471147607
0.297660204620945
0.295088334215669
0.295344183540983
0.290493136326305
0.294731354303751
0.285970874486734
0.327570665947715
0.323837954163872
0.2886087332072
0.289389117459447
0.285626643143237
0.282796496618086
0.280557610522
0.302505665768739
0.306964039441364
0.28259430783286
0.280876417057429
0.268517130844885
0.278661460624333
0.28394580968863
0.270342985174882
0.269796433209029
0.259757310504917
0.275036451654991
0.337227101044771
0.297553415253896
0.337323034293397
0.282005834614549
0.258432593098233
0.258764908014092
0.288254885092763
0.261241340757819
0.252974005214903
0.250867286421181
0.273409602620325
0.265730253733812
0.249453283488354
0.249695081846558
0.238685122092168
0.250768358401073
0.267340328776325
0.246494862169319
0.252267204959474
0.279744124724716
0.250113889920213
0.260376687599448
0.304531583148668
0.269060643355983
0.236628937071669
0.231959781726709
0.229354393846155
0.235963953436792
0.268265075800735
0.237260380042488
0.230505379487952
0.22092718663642
0.213289510168396
0.219837110288829
0.234807024475726
0.224878625850284
0.218308210740616
0.235823808647342
0.217875304888424
0.208133826515156
0.228842896789961
0.232954603366077
0.257039112865595
0.216479309420009
0.206561395449283
0.223186873104493
0.238791589871396
0.213038034780134
0.211220276398859
0.194562827005591
0.198198635854533
0.214286567474982
0.198413316254713
0.199583986560187
0.20633475957246
0.20583371996072
0.226046424123682
0.237624540017471
0.233189437974461
0.202062057450857
0.185104357940835
0.183587753948175
0.188535803480867
0.183583034213276
0.187077026791901
0.192405312167689
0.199765792865565
0.187065449996138
0.221039430577857
0.20313112174548
0.189600607921078
0.192645322706246
0.18804052999871
0.197354837972719
0.227053812716531
0.226330908874264
0.2164217194151
0.202181918718348
0.222268531311514
0.213761690502053
0.210742834514271
0.213546325687939
0.216710800903985
0.220603516399171
0.230504006879018
0.234029173630451
0.233695069061247
0.239696045194248
0.245345062160819
0.261106396436596
0.280412411712044
0.261868129644224
0.268382958010639
0.299083504330657
0.309827807977132
0.304571160828634
0.284712692075128
0.293446717944701
0.295935585997222
0.300438653724773
0.303431489098447
0.315309348659935
0.339185049282653
0.326048018216344
0.322017841954232
0.332026099078447
0.325305472543747
0.34235284952708
0.354952658555397
0.368230534349938
0.368538852408419
0.404274165162929
0.371938169923796
0.358913915860941
0.354462445250757
0.361978739441733
0.365878427754334
0.355278846378245
0.358540026795601
0.360570750013332
0.384404716563496
0.371676355022392
0.364523143040313
0.368564625867598
0.371311868339976
0.373849778986327
0.376136084350159
0.37520746848927
0.378574109869033
0.386493072065403
0.387208499826259
0.39373353163211
0.437818031206903
0.423155843553805
0.398570698120054
0.406436305755974
0.404971014487339
0.409277018943813
0.402811963483665
0.415975234325353
0.424863084403392
0.418262232697513
0.419271410120114
0.425489543017764
0.422228745004891
0.438853931788213
0.445361799969511
0.441422315446895
0.432518237458773
0.435925809083756
0.444633136391368
0.485629789741931
0.458908307256742
0.455913163093164
0.458368430278566
0.446061169019402
0.44926782266851
0.449395612645267
0.455591172574456
0.456930153918381
0.458005814062488
0.45383649137651
0.452035370906642
0.451837198136641
0.453328239074587
0.457379584851224
0.472981057193832
0.460699906342553
0.447228949703226
0.452141572788001
0.449792143833906
0.446607762586167
0.463839696538552
0.472077945868748
0.450262395053526
0.449842015540913
0.454837789916034
0.467169557086514
0.4630343291933
0.446921490296434
0.451794135081621
0.4474628983727
0.447382979594417
0.450293293434273
0.453638386534964
0.474128436542449
0.470670937723096
0.45679522000639
0.457429382978706
0.456196817763149
0.465672032253093
0.464559158461325
0.468763965169013
0.470067144980029
0.473143227957916
0.477131444045414
0.479430239050131
0.476258725259281
0.487722480313482
0.484851257272289
0.4872319145654
0.483971498095594
0.475373969648541
0.474347162444838
0.47268543299158
0.481469621430885
0.475705810767183
0.464624086683257
0.466441408365324
0.458186099314974
0.457433106382131
0.471514658185965
0.46484489180575
0.451290896999286
0.454833682072671
0.434629244583862
0.439169475363933
0.430626199288585
0.433185445197296
0.428667584345768
0.427790840995283
0.424703193835614
0.4254548165596
0.421089439271231
0.41843117289266
0.41979419067525
0.414781079949539
0.412059331381722
0.420282471886278
0.414741545787614
0.411634465638295
0.410452331091741
0.410327106090117
0.408429480351034
0.414317676302247
0.413014201638103
0.420484615412541
0.415244573030994
0.419075502677888
0.414731073934037
0.413769644844173
0.412504873688859
0.411178364186803
0.409770488457561
0.411374862027073
0.408791885681929
0.403478677304906
0.405896624661339
0.409795028627806
0.40781425842838
0.407389978498382
0.40871790874981
0.402415150813787
0.402045209618949
0.403881952576865
0.401017691150829
0.400059683721761
0.403509924474916
0.401818114146861
0.401736628970695
0.403937439400938
0.402679022634325
0.39940801228034
0.39900139039072
0.401450396101978
0.400669346758378
0.40046526803163
0.399633877303283
0.397986791914386
0.398540322372955
0.395992990141619
0.395197456872441
0.396222086137792
0.392041903356357
0.393789687332166
0.391287581328692
0.390692312682262
0.385086207699193
0.384198003104357
0.383242756215081
0.378588533758736
0.381094254778336
0.377843405005082
0.371406038124122
0.368674561073256
0.3657533589338
0.361646333489586
0.357907720534928
0.356683603065033
0.353457576413308
0.347611547589955
0.346853538324793
0.346593599943828
0.345308255121258
0.345649906849697
0.342530533875098
0.343342687091611
0.34159219716393
0.343163878355227
0.340633768088227
0.340284552088966
0.342257528698096
0.34159966577769
0.343455652590051
0.341971434611539
0.342130956167348
0.346278250931545
0.343093797449093
0.347395250814093
0.348994367916154
0.350500385007031
0.350604659883431
0.349986201559335
0.352218742592859
0.353683986050755
0.354767586727309
0.358685367398483
0.356254629069088
0.359711981129411
0.35910184378582
0.360360025618959
0.363967057952853
0.363360731494708
0.362454941998283
0.363732513184576
0.360194077556253
0.363318838187421
0.362255937019196
0.364506888548338
0.359423729446329
0.359467708192042
0.360704131650578
0.358289547726276
0.358455790295865
0.357609982826403
0.357700065344361
0.356054323725331
0.353659050429684
0.355279237039189
0.354003433455188
0.352341561909831
0.350541493468899
0.349902913364794
0.346979473821839
0.346684142862015
0.342045185886983
0.343063612487881
0.345541393252594
0.342190584203898
0.339339272524943
0.339603526339618
0.33735584625192
0.337381556965548
0.335384377994494
0.334409821664353
0.331667431008116
0.329709108002974
0.328167739631748
0.326967327530007
0.327237215389409
0.324699843410875
0.321099466527655
0.322011760718633
0.320073969869635
0.31756821856272
0.317409630114026
0.315298796353796
0.312883042976456
0.308469478265146
0.310416688114318
0.30739851292493
0.301862596042612
0.303797600101127
0.302018537643065
0.297207491875632
0.294892322888972
0.294103234123815
0.291627896271793
0.293393521714935
0.291526305328757
0.290169601830168
0.291509743500623
0.290871833062768
0.286517503378709
0.28968677054512
0.287185137746854
0.284836379490626
0.285475284568603
0.283354864509965
0.280919393562768
0.277788167253823
0.274159039353641
0.272716592461902
0.268756169227464
0.265979150655482
0.263662071505089
0.261815843961685
0.255237934319382
0.253781374659117
0.253393053082746
0.250217603371835
0.249296128217453
0.24951601453748
0.250811906094478
0.25339299808243
0.25649876539385
0.2626259724661
0.268850022817759
0.276042242569864
0.284434863874117
0.293181370427445
0.303881004378911
0.317837822023818
0.328934314341492
0.340809726487016
0.354238207958823
0.367790765472404
0.381344765943386
0.395449375898414
0.408298601315094
0.421551280777341
0.433887937142021
0.45044028650088
0.4656245338301
0.479256835963153
0.491561601111117
0.506939559039547
0.517728222031613
0.52982165220506
0.546041585185239
0.557334862606677
0.565926509592791
0.575854185177923
0.586827691545327
0.59763077762109
0.604981605924359
0.613665853578122
0.617398567928926
0.62334476639032
0.622272586347395
0.628573262490898
0.630229396147983
0.631169702125494
0.631075230592168
0.629569932457453
0.632909628525039
0.63029328631881
0.627422850085442
0.624612858113292
0.624196718573308
0.625070324460057
0.626509860975489
0.627693566471007
0.62836384380041
0.633816247910375
0.636499798225467
0.636441075827378
0.637248881425024
0.644147068195917
0.647213123925157
0.649394414026987
0.658111948950972
0.66306987867498
0.664292337393425
0.678352576432605
0.686374854720961
0.68949545910223
0.699109671168717
0.715764726048511
0.720052353502766
0.726092685671219
0.737023747653792
0.748113304967829
0.755282192587097
0.759097005716277
0.763386651652867
0.769206213001446
0.772529248923353
0.77165318449434
0.772529703810975
0.77144065863017
0.770455207301047
0.768549007185243
0.763592038928531
0.765061546982942
0.766060100327797
0.758854642518874
0.764614682370925
0.770480169246168
0.775596588491968
0.786051901733475
0.790013535079086
0.804039490289398
0.810323387847797
0.817018946431311
0.834084331528878
0.844516020895286
0.856558383500829
0.867764196761924
0.877049202228969
0.899359973852851
0.902013157296071
0.919129000084902
0.929284346470697
0.935821038733041
0.958038810588375
0.95644739863999
0.980385970260017
1.0116236014356
1.02285423768124
1.04216918924729
1.05768338576223
1.07907616177239
1.09474396393421
1.12108355137886
1.13113639749649
1.14898815892686
1.1716574859636
1.19636657466026
1.21049764366792
1.19299647419629
1.2142845157066
1.2263093670113
1.21974531454533
1.24759978758402
1.2264328409544
1.24299366259691
1.26778716093481
1.26382006210233
1.25346512355911
1.25635768837613
1.25495547527351
1.26391822070713
1.26300135635565
1.24397238014719
1.25644235313022
1.26269538415927
1.24905904799463
1.24696663959917
1.25431839633987
1.25238702090068
1.25604298852407
1.26643869726573
1.27097990799214
1.29653447789109
1.31235121118136
1.31126051147565
1.31858824381918
1.34612901851494
1.35525405837421
1.36525723702713
1.33665852162206
1.39623549287253
1.43197789335825
1.42655618945313
1.432787036668
1.45253159211288
1.48028927306481
1.48303890293949
1.47391729140867
1.49328613236831
1.47986072500533
1.46688895740724
1.50339465130337
1.50867868563342
1.5344399673894
1.57051373120173
1.55966399142134
1.56382913934714
1.55841167529477
1.58660234717505
1.57099583014455
1.57715595511804
1.57693741222687
1.65007852767808
1.65692417936712
1.63413345515177
1.60276724167785
1.59215453282654
1.6063762163811
1.56803646466435
1.56701041797288
1.63787957155458
1.56182264738906
1.51577572781863
1.49483091340694
1.45836190930166
1.42860165593389
1.40742250409763
1.36747685880564
1.31608712008734
1.27050823338441
1.22441415887943
1.18795258090186
1.15788174892068
1.12218117630795
1.11048628406893
1.07118409332151
1.05907562284733
1.05867216286724
1.03372985808236
1.01558654123107
1.01121936819775
1.00320431033764
1.00131906393483
0.993276337231428
0.977574125433839
0.960469645261484
0.943550445318715
0.932166381641802
0.926701278093231
0.919028212264671
0.911712354890746
0.887437108483575
0.86671322752333
0.853659129229275
0.827354961663422
0.801024282207794
0.781847265303099
0.751767323479283
0.725667562790813
0.691415453676852
0.669255754939633
0.642639086987772
0.616383150912449
0.589903081584259
0.564052764706759
0.531612668572689
0.504045121631036
0.486757654216026
0.469057832088416
0.442265030783549
0.424706212516928
0.409019101980505
0.398423388130576
0.37966324091654
0.367086816863402
0.360010483734855
0.348781316532186
0.337806596262061
0.328334585833325
0.327720443422376
0.319512625591585
0.309131789973432
0.309326933271945
0.307549256434538
0.304311205231275
0.302592497079369
0.298292110727938
0.296913006450128
0.298111809974924
0.299499400428361
0.300493784467706
0.30377190901422
0.305529006985784
0.304903865745985
0.307134750762841
0.312597649030343
0.319757354320213
0.31529067160907
0.316667741854232
0.317915424689047
0.31162582730316
0.313133088711404
0.315575730061382
0.31614227027499
0.314891913551444
0.314880323440835
0.314409430337332
0.313147716661254
0.309450368531859
0.308487689532615
0.31611404806593
0.308531276947271
0.314720339822152
0.310139274654014
0.314395092056372
0.320450085545644
0.315018345689754
0.314454839547422
0.31769401351679
0.319592730323541
0.330434498797671
0.328751422374595
0.327439854261268
0.325562826857845
0.330209664953282
0.326065189899445
0.328394321645343
0.329524022471279
0.33312877497049
0.330085605611073
0.332400167388489
0.335459309288851
0.332224777567571
0.328388097712191
0.325963591125324
0.328907498627918
0.334430076615869
0.331932600212148
0.330552204865253
0.334576098254973
0.336299623181782
0.345415806933486
0.357163846026842
0.35938510498128
0.366420186671382
0.367511411498643
0.376932300350325
0.391982126823983
0.397777784744085
0.410517700836113
0.418286757076086
0.421520593305427
0.42519473407891
0.429664527592422
0.431231403052821
0.425198985965166
0.423004927970602
0.419004807483813
0.407827486801864
0.39854942150521
0.39689327681608
0.391085164723783
0.387655159966482
0.381215222266522
0.38458569612926
0.381521198484855
0.380497752142896
0.383682558988056
0.378056429478021
0.38247262185859
0.387027154524562
0.387772038894319
0.376477114843008
0.38962962110809
0.387127654431281
0.379449510213875
0.37825414661909
0.36900726473921
0.371099985671865
0.362183069294592
0.362531577971879
0.359277683678021
0.367095298343807
0.357624646844271
0.356034958505306
0.353218912309482
0.347203119123822
0.347041908883194
0.357707896108354
0.351373209283377
0.349621722418565
0.34826785759736
0.350101227127446
0.351733055359784
0.350789491284721
0.342667224824317
0.347134441207003
0.340561010227596
0.341346817851082
0.339197871784965
0.334671880936614
0.333641132065251
0.338358112474428
0.337677989118955
0.344087334733779
0.335907322018116
0.330654407684077
0.328372216625734
0.32556039000051
0.323546719385317
0.31785500286696
0.320882246079151
0.32519092629494
0.31747571217401
0.315049848038131
0.311823415487821
0.317790247926956
0.317670443878499
0.318663141060094
0.313735453466011
0.308035455314064
0.304940174221281
0.306056329067174
0.304599049862316
0.318207100572671
0.312399115028139
0.312386559078085
0.317925872024607
0.316280563098808
0.322597426600681
0.315725028963052
0.315081295018607
0.31391440209852
0.318616848071403
0.321943666876175
0.324565504805529
0.334399071020272
0.324733432574836
0.327450436416392
0.33237350463628
0.326847027620087
0.334239157158631
0.348385442500955
0.341093330645912
0.346396298543481
0.355166394455257
0.352804073752389
0.354244909895716
0.363992058670932
0.367435250569528
0.373971943503494
0.376526256329254
0.386558754381977
0.392141892491727
0.397541199211704
0.399221674573351
0.413737769565356
0.414678312136047
0.416475048546369
0.432859600881321
0.447946282154945
0.462772812822953
0.474573566063362
0.479826412466102
0.500577276380143
0.495306134133787
0.515919190704202
0.511771042401622
0.530058983520919
0.532870713550873
0.535514476033122
0.519774753099088
0.531108050267888
0.535908455352664
0.549486217564417
0.506090742743396
0.533521604194742
0.532264162492533
0.508097345683831
0.495432199892481
0.508700528789211
0.517748739504068
0.529444751526799
0.543069397840144
0.541814761161101
0.51290632569333
0.515537612597108
0.504915710924951
0.526835793989799
0.503267987431114
0.51078106104864
0.52726807362728
0.53051151278012
0.517517350044878
0.4986558154605
0.496439966034981
0.477908427818227
0.482595129568265
0.478502162276305
0.51161431784366
0.513374300236129
0.492813460876372
0.508362156744303
0.494899713398245
0.491546425103898
0.481588747569931
0.505231383265182
0.470444968106186
0.49394435371801
0.527310970600163
0.467829866355619
0.486327612241462
0.500860591921605
0.492736342314394
0.498705505473878
0.480477218656513
0.490632086227635
0.483963805834479
0.511152617129071
0.499849538421443
0.499716014399432
0.506036688698204
0.536510798572757
0.509152524301348
0.54695343395692
0.547303136521467
0.573930448352848
0.506278965294258
0.517908920348064
0.542548402294722
0.555836340906277
0.49014766380249
0.52070086448795
0.543142066792689
0.560638818862394
0.541604844745853
0.505362201785979
0.515053216138241
0.552522246587024
0.547786668297778
0.607092286322458
0.588741337376262
0.591038613648781
0.548337312342603
0.58791506627584
0.602652708011911
0.595966732771994
0.598479119609533
0.626451310170797
0.627217958715077
0.75959557003956
0.587657888890532
0.593859045156362
0.607878202401874
0.685242097332208
0.658288464817674
0.674716150131012
0.641554245023044
0.626236481398113
0.624014903133635
0.676246192893094
0.614130530098483
0.696055306543593
0.600517367730032
0.664386278213483
0.633704666017983
0.593077401553737
0.645447194182243
0.63200996301334
0.54587022775451
0.559828452564583
0.523886228931356
0.636846044652509
0.621482749405033
0.600653993924762
0.547462544801738
0.662015815849253
0.624696714049359
0.739969481790308
0.532885276271953
0.664574848860554
0.695187121179315
0.609461570212351
0.662717779125818
0.771974096164498
0.707939495421335
0.761618268465538
0.615635844398564
0.836920777684352
0.646426094918822
0.709964031296884
0.717763484257447
0.69177094879127
0.531088597651418
0.828692152231271
1.07764311288747
0.595567847934062
0.764219516191211
0.862048107472547
0.633664650047251
1.48523577468957
0.599952465850528
1.12123280310131
0.940789835318219
1.03067504849912
1.02660011634737
0.799743367171664
0.620103187774746
0.932537606556758
1.3896295986612
5
0.708783984823189
0.636720006221329
0.560112487853075
0.956422526930587
