3596
4000.36533379555
650.420452594757
1
2
2
0.0561525674399148
0.0534058005814986
0.0640505416145754
0.0583826848866038
0.063799305793948
0.0608568327242643
0.0708306583877084
0.0640663988612596
0.067404359643654
0.0702788114327689
0.0630502140821218
0.0581529562957714
0.0591747879345299
0.0637134240962716
0.0531498296620168
0.0582272202236662
0.058570931401149
0.0508692002830918
0.0596808783720451
0.0589479071553438
0.0606884848343688
0.0632392576311512
0.0621275723409426
0.0570506939525977
0.0626092430281157
0.0600064940331987
0.0567468308286262
0.0572182985793717
0.0583553942788704
0.0658247318745931
0.054545633094385
0.0652495115031589
0.0649782351028225
0.0614333107969101
0.0578122412679132
0.0569180048871081
0.0584952902521509
0.0544656736605347
0.0542256594666582
0.0636997833585722
0.0662756663784245
0.05874060154818
0.0635055130066091
0.0592420936358702
0.0621563555844154
0.0575501362153479
0.0686106382323127
0.0600674633542072
0.059075562120673
0.0604572507962307
0.0567632617182521
0.0686682160522919
0.0726530378352966
0.068083221556017
0.0540808929352296
0.0779303649067768
0.0680026979183531
0.0660256796380594
0.0696331030345561
0.0547250114309453
0.0775183168769129
0.0823859188368348
0.0539725382420409
0.0659095044008669
0.0590861843299252
0.0705822397410824
0.0654807608057678
0.0609628575435066
0.0554331666849657
0.0654921515252678
0.0632446822646626
0.0833184162002406
0.0771647587045692
0.05721513398566
0.0692361415405809
0.062174521710617
0.0571001361052254
0.0610126288865397
0.0505205688311967
0.0713427608155284
0.0713183885441141
0.0653983593878604
0.0623767567512252
0.0594649138841116
0.0614618653929322
0.0788346640630184
0.05267220684976
0.0609745606009432
0.0785207973242839
0.0718257588489483
0.0600305111265326
0.0582837663680196
0.0470459874216195
0.0615869112596155
0.0495235510631742
0.0649589358447888
0.0580349720740202
0.060015644335931
0.0555258623313386
0.0688611299737404
0.0738872850433824
0.0557321867411609
0.117756222510011
0.0594510820884684
0.13107618824471
0.0813191309834876
0.0616873542520806
0.117241594695249
0.0638408765950014
0.0732666502844576
0.0509600177195636
0.0669396672167019
0.0615063786818306
0.0651648287525983
0.050677363099703
0.104302273789911
0.0933485714488087
0.0664076047115411
0.0642331107964249
0.0633964770596132
0.04963127241044
0.0839328343510879
0.106828097547427
0.05405982551208
0.076024220075854
0.0654016419288313
0.0601811153873316
0.105963038025335
0.0926440349031603
0.0570632105321802
0.0598809785573722
0.05831283783209
0.060938988307293
0.0596365514422411
0.107051732855385
0.0671547663824945
0.0646260697420874
0.0614552197815317
0.0954724490583863
0.122693624573522
0.0720770380920469
0.0652246328867227
0.052741821538916
0.061993903147086
0.105240583186656
0.0803779395931689
0.0602804685697862
0.0787585678176631
0.0758054577826385
0.0571500200695753
0.0600735152184435
0.0538725796511536
0.0813319540381381
0.0711172469815993
0.0326663804628291
0.0991841461129266
0.144455053728011
0.0766570002520814
0.137782500073047
0.0554212005763429
0.0859672828161011
0.0538145322900959
0.0646069535711751
0.049296138977477
0.0678252058218174
0.0530902137871514
0.0712061742397911
0.0942038586202312
0.0661759918484853
0.0755918172294686
0.0909367716102121
0.0866466661442704
0.0605265105356822
0.126779838854891
0.0815037234922578
0.0485422832721081
0.099272789693291
0.072240496101435
0.0562030101032784
0.05886846402452
0.0987237975796412
0.055412931654472
0.0670732558697633
0.052090637195143
0.0656585454133701
0.0747203827883931
0.0691376771277408
0.0560069050099527
0.0701251699662142
0.0462140909587295
0.0894841482548657
0.108764380373027
0.100831929702929
0.0530546772297107
0.0722656321790225
0.0363666390780283
0.112366214799535
0.0933557797546673
0.0602155975759559
0.0592917626345547
0.0464719505004874
0.048432454614883
0.0582205265754308
0.0518480420448187
0.0549628117984595
0.0369829599365905
0.107441531232944
0.0725006863073259
0.0635701073676959
0.0512344287845714
0.0707962282423219
0.0608191431681881
0.103503002317721
0.0920043310456729
0.0543575061276379
0.0679629580577066
0.0533811871764556
0.0750893651499562
0.0839893184510717
0.0565597614284792
0.0558541746187607
0.0540563094115771
0.0612018349600387
0.0576854207230977
0.0539988557124807
0.0600901026426605
0.0539503958110518
0.0535630589744723
0.0574003766750505
0.0587482776384585
0.064140646470237
0.0604615713523123
0.0531979454717416
0.0569384475290902
0.0574555828404776
0.073032796960374
0.089441343064988
0.0584897884750846
0.0640651938850458
0.0577537781057385
0.0615699707874805
0.049380425229514
0.0618137211695443
0.0519451145430347
0.0643977894555846
0.0478907734527814
0.109629559913144
0.0539701953124874
0.0636139200936088
0.0507094920770958
0.0818282560544763
0.074267523620589
0.061249600345448
0.0619628838648884
0.0528704098488215
0.05515690795219
0.0697209146509447
0.0953790578375485
0.0668821500778099
0.0577165243924059
0.0761728714818719
0.064521726588169
0.0550228389229087
0.0679067606060538
0.0511886012909797
0.136803076586472
0.0727962978542939
0.0491613370167989
0.138661436483196
0.0811433079211485
0.0729169506600304
0.0758974859976269
0.0536729459280323
0.177473686252564
0.11003843285206
0.0648760150116954
0.0661694111496233
0.0804732128220501
0.0574721257737071
0.0650003937071451
0.0751959853681518
0.0694448155771701
0.108578285765415
0.1126999467682
0.134020743973341
0.0488361914195542
0.096744575502403
0.097668816954712
0.0617394484107273
0.0603914468449051
0.061821317836478
0.0574035931585855
0.0809529581447648
0.0803726287852252
0.0731242021412277
0.0730256895450076
0.0570057075270487
0.0987106784969647
0.0672696943065826
0.060555961133981
0.0641335903654278
0.0738007721964943
0.051428391093187
0.062139778122684
0.0543373135066185
0.0697797485061671
0.0589451752126443
0.0642134358601957
0.12505576329229
0.0759295297173446
0.0682601124548879
0.100230674341902
0.0643304074970009
0.055282436750207
0.0599709085910743
0.0665183954536456
0.0517236898710712
0.0514424120189179
0.0526753930022363
0.0890016929488359
0.0651696945680281
0.0554782151000382
0.0602628678785922
0.0525966301194614
0.0567258569872338
0.0515427804197638
0.055216287113085
0.0565019482930947
0.0513822569162248
0.0472146916055023
0.0790614924004878
0.0900226360543442
0.0450214199294581
0.0925011050279053
0.100405112812156
0.057921001939223
0.0720775378788259
0.0524673416480044
0.0625777146593245
0.0530080812331211
0.0609233097221643
0.0472066987547612
0.0630573306059072
0.0767329427918603
0.0741102400263792
0.0555881872117895
0.0707078640555769
0.118213704941567
0.141167556907142
0.0775969801343355
0.0663861399514495
0.0500163720872741
0.09660547889907
0.102593222884203
0.0873720909387612
0.0934465539907203
0.0583815217440674
0.0651138343298395
0.0500126255264849
0.0633763519958214
0.0597671019133542
0.0587104893543213
0.0566601537619058
0.0637843178108604
0.0671261750431895
0.0616556573146612
0.059972207870258
0.0636270563189615
0.0988294621211635
0.077003234794859
0.0640932558681988
0.068666689472672
0.0527945512787195
0.0907018845076787
0.104934255804862
0.107942472382739
0.119670212262228
0.0888144449907642
0.11871963486115
0.0685925936354751
0.0740904166743233
0.0559095187218289
0.0686528125477474
0.0679588945774923
0.0713034748778714
0.0607961204228415
0.066887771690765
0.0575610625709865
0.0727799151665212
0.0643867896234608
0.0721338255652712
0.0636009223567645
0.0977036717702453
0.0690630336261601
0.0732725893521135
0.064717705260617
0.0883107585985374
0.12436623828758
0.13651232938153
0.0862456905163253
0.070573326653286
0.0736634961496235
0.0697304228067621
0.0738565276792367
0.0666231151484313
0.0827938671076891
0.084500016771323
0.105970466189373
0.101492582484624
0.0923868382509707
0.103022851764177
0.0723001103228651
0.0951295013338522
0.0867359850831955
0.0897042258620583
0.114496069578802
0.0895165134374958
0.0746366481260631
0.106072471642632
0.104779391315515
0.0900787539426338
0.111721539401774
0.077501062111764
0.0795591737836207
0.0857645068116911
0.0878614265180537
0.0841519855879587
0.0851761784132039
0.0923299996048688
0.079225832601827
0.0947358353088929
0.0897186409034058
0.0861583907870302
0.104550443907529
0.10074535199379
0.086123970671202
0.102531930067657
0.0828716732309682
0.100216172229258
0.0787997859251339
0.109113531444644
0.12981354144038
0.119824041831085
0.128403364568446
0.095926219460418
0.0907970524743944
0.0992227663430414
0.0916553823966621
0.0856772440462906
0.100075345889202
0.0990169612838329
0.0900517794116248
0.100037407739957
0.100191978095327
0.0994312675275263
0.0914463016583798
0.106606453171746
0.0997255273979886
0.109077713343101
0.104670123232887
0.10573233171678
0.104567222658473
0.130774171443085
0.145365000675517
0.142482431353786
0.138208151485016
0.121921147914654
0.107779620095833
0.113964577718829
0.112688584185982
0.111928184451508
0.128239311967057
0.119397043525371
0.111381949554041
0.121032900073527
0.116688311609598
0.128850240026383
0.121094186050991
0.130713253045665
0.126410859619951
0.141579649303319
0.13264354201151
0.123689315587478
0.12024563760876
0.141136329498855
0.155088713136768
0.137713275424679
0.138358842263162
0.145586805143664
0.128865548537052
0.133871133498753
0.13230684164855
0.131861045015374
0.131223486385054
0.13364966440702
0.131760060059005
0.146723638962828
0.139915874055326
0.147140972731746
0.14666188960553
0.140720982678504
0.134070069171778
0.154422101014302
0.14272332209634
0.147537047987678
0.152051164748892
0.168138424745036
0.156036742415096
0.150329086066391
0.158359253967477
0.177518439013109
0.168738554090893
0.15875684560005
0.161830981609506
0.165361852857552
0.154958341941686
0.160216363096285
0.158206602103561
0.170100803893539
0.162152196363638
0.163579779422883
0.160792622287163
0.168568733180989
0.164651568685412
0.182748249259928
0.170333069801126
0.18497333219942
0.170948997754202
0.178980704210926
0.178836419985731
0.182229445521232
0.177496178757239
0.200601333826936
0.189362293324204
0.191712537566349
0.185022245431592
0.196693623426804
0.176564369892906
0.17813840760076
0.190653461385345
0.194592863195796
0.187256692693638
0.195240496462899
0.196697058266312
0.201013875148517
0.193540284643893
0.198071129510526
0.194726146063742
0.206470311062217
0.195790758226165
0.203687207522148
0.20576605722821
0.221180935546931
0.199480523341675
0.208267882194123
0.215996410535838
0.215403986334436
0.199640206945361
0.207260877180336
0.207918154630432
0.21655678806544
0.205027277350143
0.214088988588779
0.217648263068327
0.220409136223447
0.220638299407467
0.214291133293937
0.213145608593755
0.22282465388021
0.214340467610932
0.222031469266082
0.219245834804309
0.229082112147126
0.218372405552522
0.22257272293054
0.224460562193187
0.228629317352176
0.215518208841204
0.232330398837316
0.239454600887941
0.229858784197876
0.231135667748545
0.240584329594286
0.224394234171767
0.244708707103941
0.237979636530454
0.239614478573068
0.238757446982168
0.23303086547741
0.231990427379573
0.250120638659637
0.244131574250817
0.25103505749637
0.247970854893803
0.254268012952704
0.243456363639564
0.250655447704557
0.250195613960147
0.255951094692049
0.248471203074702
0.273770129337208
0.251883985292865
0.243491025331664
0.240362673901486
0.256611883058766
0.258098252015915
0.268621110908587
0.255929211041889
0.260950758344655
0.250631792215411
0.256054783760017
0.26368837079323
0.269015880723853
0.261776093621533
0.273058840169115
0.265987130014069
0.270884969261197
0.268910594042794
0.269482719918668
0.263667378941581
0.273775630430894
0.275607814590586
0.266284823660157
0.263559477612941
0.274310013021211
0.263607028180846
0.269119207171108
0.272813724681808
0.277329873220088
0.271007089159039
0.269730343474454
0.268916939688503
0.276925110021872
0.272160132228262
0.288142751379702
0.278221415527146
0.282913666877178
0.267357217259164
0.27429470337743
0.278406552531717
0.276803784544899
0.272694624803512
0.288042324079857
0.278766718460117
0.291323421539498
0.288702213565511
0.291242337087516
0.277965100391544
0.283520878142113
0.279074810776005
0.28458387922431
0.277470896405808
0.281916180236317
0.283539090299884
0.297902386864647
0.284866108382808
0.293263351542937
0.292393505279746
0.297913906661501
0.289009699152776
0.291727215972996
0.28678567605074
0.29365573195918
0.283096880735069
0.29356787234052
0.292033777740129
0.293521596494236
0.282873194716329
0.293025985486659
0.287709253972108
0.298798706981451
0.290644389590767
0.285763662076794
0.280343841360594
0.285253283418146
0.276062325257042
0.285788085412373
0.28473066816496
0.295778836917151
0.290390681498529
0.303616452009768
0.293259508713351
0.296839042354484
0.292009679465306
0.291994252052944
0.292363532989824
0.305116844167132
0.297803432792626
0.30205947947829
0.289049428353887
0.285122449936241
0.288496102170868
0.297268103601442
0.283917058191461
0.299122255184956
0.292324978861285
0.291308485692326
0.293489700972004
0.2952861075579
0.288755400150355
0.306133456342072
0.289202322732216
0.29550252369736
0.294060149360701
0.295488078646435
0.282544706694393
0.288218258603115
0.283786718016917
0.287638217340033
0.283662670658914
0.293798428883215
0.285968791368723
0.297258431880364
0.285794009455735
0.295484076387337
0.289803148781204
0.300424968288867
0.285231531249566
0.292378955758759
0.298920654568671
0.295961592478242
0.283384354353991
0.295892617471771
0.288027658964001
0.293186962449548
0.284206315011807
0.294106271008573
0.282544317714216
0.29408163802803
0.286310175173183
0.286205161706737
0.283191673418169
0.286513137025263
0.285035328950815
0.283051427060676
0.283936447169486
0.284469137308414
0.28310835267686
0.286570231908056
0.269794664027376
0.282476080214962
0.286023644255126
0.289363206206547
0.274814233273235
0.283017168142167
0.269183261241522
0.278413196839401
0.284465606159681
0.28462191316489
0.267668740938598
0.283006979887108
0.288335841053374
0.284287198405718
0.274430518573711
0.28139513388702
0.278993695119929
0.277693398433184
0.273755161849858
0.276025739924852
0.270148673325463
0.27882145973755
0.272266853676082
0.269358697090188
0.272389963271476
0.282618856520597
0.263255399154671
0.272595347122957
0.268227951577449
0.274410945869822
0.271842000180727
0.271819157392082
0.274145609928569
0.277165469370642
0.26812208855707
0.274269080953837
0.261764264787141
0.269554796027844
0.265366433352101
0.275593772492978
0.258721582554862
0.25618244521653
0.253227595330388
0.267064704070285
0.25970696266124
0.264424589210476
0.262167702059839
0.257022808193788
0.25163259255179
0.257094295326777
0.252961277110746
0.260327658727781
0.249489765807297
0.261833697996753
0.247941756934393
0.259360972676806
0.254800879911987
0.258047219965586
0.249522008219804
0.25087792799497
0.24570025434471
0.248779251362806
0.241868808917701
0.250324031142132
0.23833492569844
0.24166989625307
0.239247302835425
0.246852161729656
0.241186477955186
0.242395020566977
0.236624686262993
0.241711311259705
0.239306286539394
0.246106434572674
0.234393709712555
0.234785564738396
0.233443167863385
0.228422142661302
0.225548334135045
0.231839609006875
0.23490279505914
0.238329680686945
0.220899526581186
0.230918785738899
0.227572503202636
0.229378989378904
0.223107028396761
0.229369178136756
0.225738896908164
0.232493291647775
0.226194918272613
0.221562001500579
0.214245745784807
0.227531884414492
0.216159232195919
0.223260895771938
0.220880336338659
0.223222871784995
0.211287200962417
0.21780420096969
0.212690953627497
0.225663778896672
0.214522456150438
0.221652635744178
0.214031839948269
0.214784049553372
0.211626708202549
0.213902374484364
0.203018534673446
0.210161022528206
0.207648250551524
0.212769854067876
0.20678706395213
0.207153304949168
0.200676177510481
0.209578750462033
0.199087894788478
0.202180098959341
0.192817264040897
0.202121796500063
0.19454433883989
0.202457919097881
0.202033996563119
0.197534450106982
0.187367856599524
0.195669807072478
0.194734122965747
0.193381181477424
0.185640943943516
0.196612920032859
0.184906027134992
0.188420485718026
0.187124781945396
0.193658974911121
0.177300358685103
0.185430275723313
0.18225656867092
0.183229634452352
0.173899026554627
0.190167967894055
0.182633874394914
0.184587637375847
0.175542155373075
0.179108490178961
0.177984368373478
0.181484832100266
0.174621723885231
0.176353962058749
0.171701239658267
0.177889763277694
0.174795627337517
0.172826212322454
0.169049317347513
0.17466468755796
0.167220317951465
0.169516619857911
0.163564197451997
0.166749518143084
0.161969937009675
0.165769244078151
0.160312103279724
0.163171418783751
0.163467556953708
0.167770225421754
0.161987432181661
0.155800362165947
0.159720207916287
0.164910378317863
0.152431595222222
0.160529184946419
0.156407404334542
0.161783084353928
0.150210464782139
0.160825216141405
0.14844776189351
0.147601104732081
0.14842546989005
0.15333217092032
0.142697670818271
0.152028700679565
0.14925175541137
0.151429339961261
0.148081247037643
0.14876294549203
0.142755712469546
0.145771822869978
0.142607159110911
0.145661901644264
0.139807951380019
0.147887904067502
0.140889174051208
0.141426207889542
0.13859055208669
0.136628392996722
0.132929273279044
0.139223895380433
0.135639154956682
0.138443212120032
0.135345084072545
0.137355196108369
0.125803558333663
0.136621472191201
0.137373666255823
0.13444448248899
0.1318223833601
0.137510677035804
0.130327527922727
0.134336444472513
0.125403842080957
0.133590139136519
0.126098598111282
0.129601173730042
0.125000380241244
0.129672910791383
0.123520259763133
0.131018156640898
0.127253762913997
0.126471367902252
0.122468154003349
0.119391642431413
0.122307941406907
0.127507405480586
0.117206270746831
0.126065955167385
0.120730046029071
0.120839064852247
0.118868195036456
0.123513804820979
0.119479472869104
0.123287685485609
0.117566253804936
0.115545159895622
0.113049139819705
0.122487604998196
0.110590555044902
0.118351690416652
0.110467539332581
0.110477294500794
0.109461307530835
0.11074218396124
0.10715964243721
0.113251251140486
0.105558472518178
0.114573377593689
0.110394503768808
0.111397665856693
0.106102431102415
0.11029118394861
0.107464149209001
0.106880078497212
0.106149297295251
0.110607729758186
0.100418234331007
0.107424306175355
0.101996756607234
0.104481485739129
0.101819723757625
0.109852621217513
0.102895303340632
0.100804028366574
0.100253030211596
0.10188544668034
0.0995715131832642
0.103447891881793
0.102033966767126
0.100984170395145
0.0998483740541158
0.103015865864153
0.0932997665870857
0.101138745077154
0.0964580908502303
0.0946399747860757
0.0948158975557887
0.104604730779275
0.0972201558649099
0.0962534622535528
0.0937288998721367
0.0969956816278669
0.0914361233080221
0.0970477346389418
0.099621666885103
0.0985720017085199
0.0904671485688631
0.0971230896455766
0.0843800798639758
0.0889240110086935
0.088616460309871
0.093783585378925
0.0875445129961766
0.0920624335215202
0.0877572144538066
0.0928073243610599
0.0890056910445607
0.0882894632435758
0.0850259494793201
0.093568102885505
0.0857822542350329
0.0886130756921873
0.0885969663739776
0.0900602859786023
0.0849306072445535
0.0888283235951664
0.0836146667067435
0.0882953995413144
0.0877373773823727
0.0886427435473148
0.081038075421725
0.0819983400594863
0.0814593150989821
0.0865440017908468
0.0811359947960608
0.083412008471342
0.0803124434908908
0.0814278597798645
0.0783695618893414
0.0847040915090352
0.0772585677880582
0.0824050487886104
0.0792464014008327
0.0815887517691168
0.0788134320071509
0.0855353319506912
0.0796833409912412
0.0806294898609101
0.077101964343331
0.0807093601196095
0.0791297057660808
0.0787142466818761
0.078107301575642
0.0846324239153668
0.0812930903334885
0.0837699280859924
0.0771802983651116
0.0841503738300802
0.0764470427719092
0.0831099367921718
0.0777123468841318
0.079295277357175
0.074283862539311
0.0811475994204011
0.0810502960960936
0.0814098308562888
0.0763045827569439
0.0823979180829754
0.0799420404808355
0.0825624246354519
0.078426701089268
0.0812921457300816
0.0773510818669797
0.0828525638081669
0.0786058770767066
0.0865728184863984
0.0809660614861055
0.0830997096738861
0.0823723548437629
0.0854478933456171
0.0794182356789831
0.0846268436357169
0.0780360144933449
0.0818619698284817
0.0826074588974052
0.0868806270081585
0.0835286585805985
0.0871271580449652
0.0882920787353146
0.0870785850804725
0.0783405560470826
0.0874220659166916
0.0878045208012447
0.0878654150657896
0.0850234021126568
0.0969281869950262
0.086736899400707
0.090455253876303
0.084798094699394
0.0870425290645566
0.0902364031425581
0.0900396031094742
0.0894622508892316
0.0956380083651256
0.0910988906077439
0.0965380533870888
0.0905369592770645
0.0950096514190621
0.0916437908224432
0.0972521579173445
0.0938906961528971
0.100963700171344
0.0964032609687155
0.0976548352423502
0.0883947806327526
0.094376920478086
0.0965354905631691
0.104894300001826
0.0961111453175949
0.100361218416658
0.0987038346485213
0.111820419161666
0.10212536491478
0.108323806317513
0.101388703939542
0.103758563903158
0.104651183100884
0.108329433021772
0.102524877721705
0.108543225030792
0.10651243708772
0.108898324550755
0.107973235406697
0.112665458999064
0.106337168699782
0.102521296119774
0.101526991720846
0.109639001167421
0.104013612830411
0.113672496003579
0.106521789890375
0.111096253732705
0.105873136728158
0.107712641255408
0.0981418360295769
0.107324187794976
0.0982022129999495
0.107147328210903
0.1057067358975
0.104742935276367
0.0990777290971117
0.10351199174153
0.103466227240248
0.101255850751264
0.106135244608536
0.103574019739497
0.100826180522299
0.107091948972813
0.100359386324479
0.107044228477285
0.0960963750481501
0.0986932483298506
0.0984878114227329
0.103178580171299
0.097832634794096
0.104858456954876
0.100526899410932
0.106157576260414
0.093752004315594
0.109985280991793
0.10395256869493
0.103627155871645
0.104112477026348
0.103458660042551
0.101178594369469
0.105964443596068
0.105069748447679
0.101666073165524
0.10162218100047
0.103000134647827
0.101039099471392
0.103547473931151
0.0960097689161279
0.10222577779773
0.0953392032485593
0.101304879174298
0.102481769730382
0.0988419148260035
0.0993928576088408
0.103514040348938
0.100472263966756
0.101968194001098
0.0971398110975009
0.101171345980553
0.0963411339333594
0.0962170148783061
0.0923567708776767
0.0971783965437749
0.0930605125300547
0.0967919597698438
0.0923968601323918
0.0934598897279554
0.0899962346604189
0.093000872925408
0.0899446063486451
0.0903725195547265
0.0885515444640018
0.091318096696577
0.0881014863474985
0.08954532499303
0.0871670330895778
0.089556430599197
0.0832301535313329
0.0829750307651474
0.0838683310120077
0.0868120321503992
0.0770281370525951
0.0797879759933547
0.0798302714307789
0.0836124959725567
0.0751824248894086
0.0812182494683144
0.0787962197298554
0.0767517125664087
0.08076196055891
0.0811134412687212
0.0769803108479493
0.0786225277099706
0.0731010386547139
0.0788579895489547
0.0721203644912058
0.0783156414021849
0.0736294301252111
0.0758620257443067
0.0723875454555536
0.0732451078644932
0.0707693944116923
0.0751921676817913
0.0738806442747542
0.074444765106813
0.0740545784672977
0.0757935780917155
0.0689016817390704
0.075635496027259
0.069559204695394
0.0778622980230682
0.0701210711278668
0.0737485875587753
0.0729767553931823
0.0719133719413968
0.0703994909527787
0.0728807328123305
0.0687732682373306
0.0699641490421297
0.0639242583126992
0.0675512624168857
0.0622745332007955
0.0704764103372879
0.0652931937887171
0.0697113826341705
0.0672120329681366
0.066553986876646
0.0628717387120088
0.0644088755936638
0.0620771603557841
0.0689483660492653
0.0640828894620063
0.0658158177501026
0.061317535310201
0.0677449861894132
0.0600700591573136
0.0646586160339807
0.0624688452519413
0.0631234060694375
0.0634031975862425
0.0629711543130033
0.0597126667693712
0.0628143012895772
0.0593173070578731
0.0627987404488497
0.0613703070907521
0.062963892653356
0.0596523035705454
0.061328077185829
0.0596600800272205
0.0629804135980425
0.0606153842873611
0.0623232103282015
0.0594565289408725
0.0612894091092466
0.0573139862666817
0.0630535884456995
0.0561049011901482
0.0612197794657687
0.0551400843219063
0.0599234843371481
0.0630509309450684
0.0613521622691064
0.0610369288063968
0.0611843315157474
0.0602496834434028
0.0596777838398607
0.0578368152327776
0.0585242209770242
0.0628099405758541
0.062239666422044
0.0599192860288928
0.0589157784903041
0.0602685438071138
0.0597012618629131
0.0562876931517706
0.057180489855476
0.0556105055377785
0.0604037386916057
0.0598308350699828
0.0583938756819937
0.0540494516754528
0.0577600593871833
0.0550227312935109
0.0605009758879104
0.0566604024214127
0.0599639820728784
0.0607973633491837
0.0562772128168563
0.0560418287274027
0.0597415282239499
0.0546829170511348
0.0571223316783474
0.0513368269984466
0.0538070438955131
0.0530796656481202
0.0548279911058974
0.0549050171617082
0.0562920735971872
0.0510328510761296
0.0539744301107902
0.0529295075768593
0.0558473836916241
0.0524146889387443
0.0545551254887324
0.0567153648928235
0.0538343868052348
0.0538588938085111
0.0534970234943897
0.0508453485428617
0.0584846094330875
0.0523185273431758
0.0511620034011707
0.0543772244622245
0.0567239505606511
0.0511780851353274
0.0541691908277578
0.0544052254970351
0.0525920279867005
0.0506579134426059
0.0512410939541319
0.0522992354773094
0.0570344765234512
0.0528399883049578
0.056080214790722
0.0542167490170114
0.0550063027930846
0.0536317985839937
0.0534553307951365
0.0503625463299964
0.0555368560462813
0.0553017339536868
0.054885589845279
0.0533907493757397
0.0526706146467648
0.051337218741448
0.0539421998158804
0.0523616030262944
0.0545082992996155
0.0528588814039768
0.0554410069407614
0.0525320060898349
0.0511871135289862
0.0535792435242959
0.0515045263438376
0.0490571767701952
0.0532500954603618
0.0506035937054371
0.0515466620769146
0.0516634450004557
0.0491759743883528
0.0482770121746752
0.0517872401119932
0.0489568219091051
0.0496384116208758
0.0495325282050846
0.0494405179834485
0.0484798096511669
0.0483188314665599
0.0470908379610765
0.048809364818684
0.0450167137861618
0.0521642395340421
0.0481288914245931
0.0499463741904479
0.0456501092979084
0.0495691314103576
0.0461466021564534
0.0462857218508197
0.0484597490833636
0.0517218816760965
0.0487007543888285
0.0502034868769311
0.045586042546565
0.0495437485647339
0.0461425409050131
0.0481611917132443
0.0458381408896039
0.048738239724402
0.0489690509417199
0.0493009911858458
0.0457509322270258
0.0471320251691621
0.0479776088760263
0.0472174800297475
0.0458335362908624
0.0468457874989084
0.0461522258725974
0.0469683720529621
0.0487886908389374
0.0478403213198335
0.0470627859076103
0.0506035961057306
0.044544214580946
0.0455558930958699
0.0480716026034262
0.0469878301786315
0.0456789438015041
0.0458762677481708
0.045491275076901
0.0453993366652025
0.0438697499262289
0.0455875492347737
0.0426230411222163
0.0464297388409377
0.0404804607454178
0.0462113391301803
0.042328592145308
0.0449361963887088
0.0434061130325368
0.0435035685866768
0.043595562390074
0.0429893565964913
0.0404723361832162
0.0439401796906788
0.0415516754213441
0.0402950076469616
0.0427310660382362
0.0414344866459753
0.0394845911177682
0.0404532385437561
0.0384301521151901
0.0394202396484197
0.0396403368067189
0.0411948590712711
0.0400104071015051
0.0421054862030213
0.0391935467262906
0.0435184506576512
0.0411388515549392
0.0391813145922904
0.0404002138474868
0.0397083942534623
0.0384579713926854
0.0443540031514951
0.0382999409627199
0.0391135535247322
0.0389560611241173
0.0400378658557399
0.0387617089787374
0.0398513703350878
0.0393397429256247
0.0419211257610203
0.0428665275355828
0.0423336944116689
0.0368478361470041
0.0394483075188069
0.0375921251356686
0.0414041757567904
0.0404041383709238
0.0415284978335664
0.0379940484879146
0.0376930287954969
0.0404693022407097
0.040905914178476
0.0364805350659568
0.0436563818140847
0.0398579632126771
0.0406014317726792
0.0384489255543507
0.0429333316993029
0.0397974240854709
0.042067869760483
0.0390256408436472
0.0374080358138907
0.0368105684002101
0.0380945141008401
0.037556017052619
0.0390537744838114
0.0383695304655342
0.0404499065418661
0.038960936897302
0.0360966941964247
0.0367823476654534
0.0370447209962149
0.0366035593210629
0.0354333076392507
0.0356040593058391
0.0358149142592114
0.0352403959727974
0.0350746504785766
0.0354011957646898
0.0385235867375779
0.0368880403109369
0.0337035104423056
0.0349972082509287
0.0380369777846515
0.0359583864090941
0.0371227101125703
0.0330959012221088
0.0357806186733416
0.0386047137592788
0.036599960556649
0.036374262132121
0.0357564954325719
0.0339587477876992
0.0391011819124294
0.0376929657762449
0.0341777002983309
0.0363248306079304
0.0344719190234721
0.0352292229164086
0.0366069482032357
0.0373410561568076
0.0369273145019323
0.0357100283113241
0.0338428867953115
0.0365391678679885
0.0362387766295164
0.0348618286897016
0.0363910904877449
0.0349032486508397
0.0373604980636245
0.0389691311348924
0.0406953270407081
0.03740668350929
0.0382083216613451
0.0364709355121348
0.0364265807969428
0.0360125903195862
0.0394496377082929
0.0347363828139483
0.0374264027936745
0.0356559353684065
0.0379453902227361
0.0353120652323771
0.0322925490977416
0.0340440412504256
0.0333140507843725
0.035657641222021
0.0365547726028242
0.0360554653851878
0.0356023810074012
0.0332482712233525
0.030405022728831
0.0323055010117772
0.0331270657282653
0.0329630520015916
0.0331850705659576
0.033445972217231
0.0329856097600145
0.0321769058444892
0.0317334380830714
0.0325277307365578
0.0341726707999833
0.0364437498791232
0.0341602682870536
0.0349139094901306
0.033878011998611
0.0345076573636753
0.0327887727305507
0.0314584787131671
0.0319962169389834
0.0335380813635017
0.034441708836744
0.0328773273261817
0.0313488242066646
0.0311511530492381
0.0335776472420523
0.0325098051347388
0.0318642332421334
0.033076169956624
0.0345473329439493
0.0310177335524249
0.0340854319878213
0.0327048778179704
0.0315797453201862
0.0339939303789904
0.0325500176590288
0.0317798129236022
0.0330043622920867
0.0334219808373258
0.0347284450736635
0.030648642659152
0.0319620805101958
0.0334003814996535
0.0346797877674896
0.0333523399856412
0.0350471530264456
0.0337729648143335
0.0341854621745211
0.0333627556301675
0.0332723718667137
0.0336127157986506
0.0337756392606781
0.0315627892716741
0.0340650548738512
0.0302260281630239
0.0301671123477969
0.0323477773106284
0.0317645446200265
0.0310919106254506
0.0288235560260777
0.0309846647850488
0.0326375187257523
0.0304641168606848
0.0283066016817379
0.0293637686805875
0.0312044132444098
0.0309985787357123
0.030347961778686
0.0288558498893641
0.0300311675672126
0.029801449450853
0.0303972528463317
0.0267276225953325
0.0294297697925413
0.0288909539082503
0.0281929893313708
0.0291793303987241
0.0324620847730154
0.0300788672487575
0.031090665584656
0.0305793947205501
0.0295952559113298
0.0304665915526139
0.0287993249582724
0.0305013902016352
0.030646667965012
0.0301488956377099
0.0300993106898497
0.0288787424392025
0.0277735391046464
0.0295938010793201
0.0298808033982952
0.0290311632053565
0.0294853033320471
0.0308162015708336
0.0292716333011702
0.030872501218974
0.0284253736194786
0.0289293507525153
0.0290552016363824
0.0304522382330878
0.0280940264695398
0.0285293587578357
0.0280072102292867
0.0304367844424268
0.0292085324464545
0.0275550403334654
0.0259613328519795
0.0275368099205277
0.0294026441909614
0.0296304134414898
0.0294623862085933
0.0284472623049203
0.0271560058468694
0.028534292593612
0.0288564799240352
0.0263707686110667
0.0277458060808512
0.0284090788991626
0.0273955045650758
0.0277613147303689
0.0261634637468351
0.029254255672388
0.0278144778861856
0.0253346985119571
0.0272306609751845
0.027111228916031
0.0279428712334452
0.0277622546682132
0.0256828523317042
0.0268199907810415
0.0277274653212898
0.0266768455485972
0.0230317107490151
0.0259242836627942
0.0260807891855939
0.0242801831616749
0.0252960870333052
0.0262085448181293
0.0259753428253966
0.0251803004197699
0.0260401765065389
0.0273039538155487
0.0266453837565822
0.027696753306919
0.0243373352957259
0.0263941523558975
0.0252350989699361
0.0276570147931016
0.0273196642974142
0.0278496036227579
0.0265421421181657
0.0283608455225223
0.0292765017551859
0.0295450343343011
0.0279309697535201
0.0306246212132713
0.0286775889856921
0.0288778869425058
0.0286827248443508
0.0297387949402544
0.0292818144448882
0.0298114151506152
0.0263630866552921
0.0280844705223743
0.0166309298079789
0.0153897673574197
0.0158213349866515
0.024446250034853
0.0269266550524726
0.0280689732202257
0.0146436186440075
0.0131039694410524
0.0175688260843661
0.0212747155105968
0.0110252510308263
0.0219139645538013
0.0160877294773328
0.0166192067737939
0.0157583895932901
0.0172812300116938
0.0185648304660189
0.0190088198859033
0.0176783531256226
0.0206425734702164
0.0175256820658001
0.0272233709812099
0.0228611777949175
0.0268216931623323
0.0206042139649616
0.0288176967559219
0.0181114373050612
0.0264938676666752
0.0164030664786687
0.0242227408854538
0.0165126222513223
0.022104317124358
0.0134615562629307
0.023015191890706
0.0124045019134579
0.022895301455663
0.010744756261929
0.018683132596579
0.00599169641028548
0.0191486285569577
0.0116285133338779
0.0290324890796086
0.019299767763806
0.0310172906925853
0.0106753411989551
0.0198195789796395
0.0151101634440654
0.0315324404863099
0.0229999479762938
0.0255638365650094
0.0156792802946115
0.0236188267808594
0.0323596697490331
0.0218407556887573
0.0245107311109343
0.0226691301336909
0.0391389987647101
0.0147825923459944
0.0361629503047432
0.0199709586150268
0.0380394234896517
0.0159859042284505
0.0390861645379182
0.01875132256517
0.0320327558627502
0.0219266727547811
0.0304090520006362
0.0246301974591498
0.0267717723394656
0.0284938422784017
0.0249161531625754
0.0261756584729528
0.0273444726646205
0.0271945341452783
0.0280097772164909
0.0227358290045836
0.0287048847261074
0.0222833485376146
0.0246873714873225
0.0218458038186462
0.0259998669546582
0.0210327252389988
0.0219394848006356
0.0237393416543915
0.0257854088179079
0.0237707011703311
0.0234690311942397
0.020157669323362
0.0219864986679088
0.0219397118884575
0.0243852276146512
0.0219793810079304
0.0239799701865825
0.0211980218469554
0.0226294841933659
0.0224300522869632
0.0224888677364334
0.0212879083595332
0.0243689637208474
0.0214002297109795
0.0222288979474294
0.023309867281356
0.0228201412760622
0.0220313458034847
0.0240558196040297
0.0211324737388603
0.0213505766617016
0.0229504372762543
0.0226073823040461
0.0215774997009411
0.025513018378244
0.0235363109649547
0.0233038019413617
0.0230177246510295
0.0220389365452458
0.0225627641322781
0.0227370306283438
0.0211268583856501
0.0241131023165494
0.0239228338768731
0.0238315361937209
0.0241960241942749
0.0234589376047169
0.0219928157558047
0.0243889494846786
0.0229342322941775
0.0231218814303673
0.019922414548344
0.0222711347073601
0.0232075835005764
0.0232989717243689
0.0215129315563557
0.0223611106175085
0.0235604847874092
0.0230510359394347
0.0226034507445245
0.0226392663962653
0.0225192236770791
0.0217179684184405
0.0207474179880249
0.0214744727651672
0.0223341025975786
0.0222517798718966
0.0211563836103616
0.0224726914495406
0.0203796967260648
0.0210045317524957
0.0228188277354386
0.0204780041714582
0.0195071932290518
0.0236362706579455
0.0213893180684029
0.0202375371681311
0.0238350606129512
0.0237335802834165
0.0217222653711322
0.0225122622354797
0.0222783720670819
0.022331647254015
0.0209133445070844
0.0218524017589301
0.0209682034449548
0.0221295999063523
0.0221320950030053
0.0216217013739349
0.0226345402077243
0.0232054246062858
0.0205109703868393
0.0214546727595362
0.0222519733884041
0.0218666083925702
0.0222006619474833
0.0222213269597018
0.0236433111604925
0.0230936673319509
0.0219977354412753
0.0225593965321243
0.0209123540122097
0.0221297066213099
0.0233088653519013
0.0228611414461151
0.0218122477757783
0.0209943343248527
0.0235443745991198
0.0225700103027677
0.0230948712871256
0.0249905012881456
0.0222615693942164
0.0227195829858914
0.0232882143608676
0.0223638408854308
0.020592223212424
0.021597021195258
0.021569261525968
0.0212764397268304
0.0213186271731403
0.0210596841614214
0.0195807120731698
0.0177862420722243
0.022165408613573
0.022463896440187
0.0208424069952883
0.0214685072606301
0.0227686271967621
0.0215845260884045
0.019607832443196
0.0212242357989477
0.0221161154302443
0.0204725106871744
0.020716891303934
0.0215846962223531
0.0211264971343648
0.0201488363560706
0.0213436038367087
0.0200927383131216
0.0203052435290587
0.0218172586580422
0.0202917591369423
0.0203252470910504
0.0230680534347669
0.022317029827818
0.0204943081218924
0.0214772425945543
0.0233491597187716
0.0223915758605761
0.0229805162969379
0.0206240801455358
0.0205143900987551
0.0232928460746095
0.0216182307137706
0.0216276551876883
0.0216032737798885
0.0216490485082696
0.0224018551581095
0.0218876015719713
0.0203706851556662
0.0214908844301702
0.0217896409637711
0.0205654547998497
0.0225367437662886
0.0229676030295555
0.0237542220077298
0.0209075074996267
0.0212536623102849
0.0215655677405688
0.022086252939497
0.0220799526447403
0.0235067507246591
0.0227566563361001
0.022203043887434
0.0205367074163671
0.0219696744700519
0.0224921143870299
0.0204189981517481
0.0221297024181815
0.0223126016159597
0.0211389840656553
0.0215272307656652
0.0191822258641578
0.0199589977527818
0.0214799682587289
0.0216603404358082
0.0194035240411575
0.0215996988961894
0.0207252250778299
0.0195711212874203
0.0197074005558977
0.0202174995178997
0.0195485824117908
0.0212486214794779
0.022851812422277
0.022003267127903
0.0186332739584749
0.0191803013426295
0.0203411721831165
0.021105700249873
0.0204840382209893
0.0209894635495595
0.0210329691075336
0.0211016371172746
0.0186025223160758
0.0205596163063898
0.0204105093149111
0.020555978504627
0.0192428150029025
0.0213299568310223
0.0210588619431752
0.0199146151020238
0.0185195504808017
0.0200785122036858
0.0207171098280526
0.0212746567422903
0.0208796644423917
0.0225114810619683
0.0204898194668087
0.021424106857267
0.0214428947867682
0.0211947303529215
0.0205608659205427
0.0183230388126202
0.0193257091565545
0.023112286241606
0.0204014622914677
0.0210132437313891
0.0207164782682533
0.0214523665996119
0.0214399472554762
0.0198872460752832
0.0178497049643055
0.0210798038225649
0.0194452978570271
0.0190117689666311
0.0188969866738395
0.022005543646069
0.0198591357702862
0.0196211630126821
0.0201032185545493
0.0212953700971013
0.0208922145910708
0.0202618219067088
0.0206553274390654
0.0195947745510006
0.0175833573485398
0.0208147216194207
0.0194969326961509
0.0190235537217483
0.0192395151138666
0.0191973307515577
0.0208492540398996
0.0230323331041577
0.0199546128444431
0.0191347023575719
0.018539845668602
0.0196132193491601
0.0197832797106
0.0189397284474048
0.0172525134490196
0.0193855777315975
0.0194778812603844
0.02024346885019
0.0188809417180964
0.0196594349060344
0.0192614143292825
0.0197549841394032
0.0184216334807968
0.0204898759665829
0.0170691629798276
0.0190235900369699
0.0200227149167097
0.020399289088533
0.0190608609468654
0.0196998210672339
0.0208335347414767
0.0211199785302683
0.0219624453020785
0.0223849311809257
0.0193170900234797
0.0191191276682397
0.018278985659723
0.0199771158834606
0.0184997415784505
0.0198049363426227
0.0190679808906627
0.0207409182550748
0.0210992919711184
0.0211095449576214
0.0171132626135866
0.0192543211733601
0.0180008307936673
0.0195934534532698
0.0178372466322968
0.0187161957406975
0.0175261658988662
0.0199070158414844
0.0183511780394546
0.0185019692206334
0.0159537713326809
0.0200951649756702
0.0196131750759586
0.0216515324217073
0.0233159398794517
0.0206247522843738
0.0187627924823407
0.0206308396981807
0.0181052434983933
0.0187334405543737
0.0200262713382092
0.0186869347962002
0.0154844701761269
0.0190956986279564
0.0187550964428448
0.0181771486951003
0.0182083762471475
0.0181887962598642
0.0151283523337744
0.0176345639989102
0.0185299591910153
0.0182246771317892
0.0179521850384145
0.0169102158249445
0.0149696817663585
0.0188844228895953
0.0174818920871338
0.0159060563988861
0.017760243946244
0.0189442267232032
0.0274969682767758
0.0271768109549768
0.0198738711800971
0.0182617996297467
0.0210493302977032
0.0195669197964801
0.0177805748546312
0.0160809317873058
0.016232448290097
0.0198394379171846
0.0186137942974925
0.0172112214607448
0.0169757042685263
0.0187295721340967
0.0165646153945057
0.0184540254637318
0.0171769710048771
0.0159104896010714
0.0181852908684003
0.0190912660368606
0.0169537965884616
0.017569344862783
0.0172708832220985
0.0155477165070727
0.0168125340224863
0.0166879546962286
0.0203525853729608
0.027629904194127
0.0219275968618332
0.0205901652336892
0.0182165485234287
0.0193353208067402
0.0159351832465799
0.0176555150645918
0.0174441823020026
0.0189169549459168
0.016459781093824
0.0174177349827558
0.0169511378279513
0.0158464610856703
0.0159506997325634
0.0187461800913377
0.0152275611597533
0.0163355933023564
0.0145479066023416
0.0166897988999292
0.0153166526647366
0.0156134550484022
0.0142788188694927
0.0203841258366228
0.0189508132057566
0.021606331645648
0.0126758405048426
0.0282221302357157
0.0301040719104676
0.0245652138660476
0.014165594494957
0.0166756574386432
0.0146474379311701
0.0177435512512861
0.0151973268707594
0.0170454727201517
0.0142474076019061
0.0181298993309715
0.0154148820175196
0.0187650011128609
0.016571490904798
0.0165286432178151
0.0145010327367214
0.0165450999917913
0.015312570402824
0.0184192543346011
0.0183437176104722
0.0162144629765287
0.0216563972709084
0.0332307483097125
0.0221954763327222
0.0223966401012365
0.0120360608145543
0.0211355587807369
0.0356666895186867
0.0235311956411772
0.0182673925178031
0.0164061525397417
0.0181592367805232
0.0145862305376204
0.018702900740338
0.0132375399668638
0.0221734582006746
0.0196611556201277
0.0193256495007155
0.0211509670205393
0.0191208747826379
0.0163643380997055
0.0147278829351018
0.016619322898189
0.0154507380376474
0.0150998791508845
0.0158285332436758
0.0178995062303072
0.0138257967757666
0.0131357873302513
0.0169797756772502
0.0135712308242558
0.0235635903135513
0.0203942474809114
0.0166711699289019
0.0164829044904291
0.0161436584230397
0.0127144098150869
0.0299380235813886
0.0268533762851988
0.0199728535362661
0.0172264467613443
0.0164139644933
0.0170766021159569
0.0149764525178421
0.0181514786409218
0.0164291074712876
0.0181740975151479
0.0159253885154433
0.0169043720791011
0.0167922792147675
0.0167540174413086
0.0139220777731047
0.0200965221754977
0.0142205488229772
0.0161728113905859
0.0151877431487962
0.0185770387440071
0.0165139926146301
0.0219297531789508
0.0399113270857724
0.0386642315939512
0.0343303915434515
0.0254818775538956
0.0236219436816181
0.0157376079551615
0.0185413156558018
0.0133465886942662
0.0187772629451168
0.0173122647475262
0.0190820877939455
0.0181293157664992
0.0220564651472478
0.0158955691320354
0.0149476602249289
0.0130502984373566
0.0159741343137631
0.013859185559934
0.0169261712193409
0.0136946895411129
0.017438335107856
0.0144585655388647
0.0180989437782109
0.0229545821698867
0.0248582762874261
0.0172985709263027
0.0150378553620937
0.0569011499796445
0.0299140406835164
0.032814399126533
0.0158720603441793
0.0191049445111939
0.0134365603489847
0.0163996168583277
0.0171700674063215
0.0244810685426902
0.0145749480480457
0.0177016403746188
0.0149021588656782
0.0195593875463236
0.0163605118656322
0.0141408146953051
0.0379008338241266
0.0490056546165677
0.0271322371941176
0.0253232170464054
0.00874824426650692
0.0413398112529529
0.0369420082647667
0.0243219896401921
0.0198954652376085
0.0178338055573553
0.0167801098164342
0.0184773127263979
0.0148307054698205
0.0181673910691363
0.0245998230331752
0.0173629141908627
0.018781051210735
0.0148361722410111
0.0160448274798765
0.0202642168962027
0.0209767798752986
0.0315175587652444
0.0230871886204329
0.0191233451530629
0.0215099793928011
0.0188050212612937
0.0179505519194808
0.0163004387073661
0.0164453645155367
0.0164186833789767
0.0328674820088551
0.0279142623925274
0.0251318174995119
0.0353238598117907
0.0268475101640172
0.0169223351353191
0.0218081210344226
0.0272363320034196
0.026612941879311
0.00691015681531238
0.0492783765284075
0.031261634534683
0.0539904114161109
0.0285259555884187
0.0255689188888881
0.0140850925562641
0.0207239694318555
0.0122703554399721
0.0245171865529424
0.0354455637622106
0.018323992161774
0.0231075518967977
0.00995367504609538
0.0363968331463602
0.0245341063129348
0.0289059484620228
0.0164048072750659
0.0193891062203201
0.0172721604349601
0.0415727535227922
0.0116251743066733
0.0325073408346881
0.04174139389307
0.0529143058232952
0.0470558278234178
0.0182239813581683
0.0317475284910471
0.0447485600379353
0.0253073351873145
0.0224172477920693
0.0136796338443974
0.0231051267919856
0.00789763522376313
0.0371427719076785
0.0457391146947526
0.0276233727245548
0.0261403073924183
0.0184969310009522
0.0239206723972306
0.046357146139828
0.0295545677814821
0.0213768815821933
0.0202372767007792
0.0202259267811506
0.018551409188261
0.0813829737033236
0.0229326358018489
0.0593395812639567
0.0370062535767086
0.0526239569823736
0.0277571354243947
0.0394807337861936
0.019103491151398
0.0480705265043932
0.0383372597002862
0.0322033707125132
0.011228331701252
0.0594790312240228
0.0313280483011704
0.0336881193699835
0.025599911045045
0.0238813346195783
0.0278024524890691
0.0777380875897616
0.0704610091382712
0.0621338181772679
0.0218734217113674
0.040375576852407
0.0480299872857636
0.0280122548389664
0.0223996135294423
0.0219712331005059
0.0213916545209641
0.0220515056435104
0.0217737298302601
0.0339735369842552
0.0180097726192818
0.033145946370211
0.0131340537743767
0.0372793452944092
0.0425828613554905
0.103583096946262
0.0474557718347758
0.0532080292983609
0.0600588968821307
0.0499195205307418
0.0410844143208543
0.0235514204787143
0.0282492361054735
0.0349498556510334
0.0311409761579283
0.0270090526717421
0.0276567293140287
0.0628480595734639
0.0325919461353097
0.0675013823826966
0.0336051094831027
0.0474842436053442
0.0262399984646158
0.0827538710377245
0.150695670500036
0.0597330815191106
0.0651585516375806
0.0332548140205766
0.0995017303356547
0.0763706249900951
0.0571319632057372
0.0369310425438593
0.0398711689153203
0.0325806345749315
0.0502338600868757
0.0477446704136301
0.0541610733476347
0.0600701040978751
0.050815431220752
0.0450507345841504
0.0859821988699593
0.106988636054027
0.127609921268765
0.0600852884529899
0.060674551725308
0.068524540686027
0.0740005859277853
0.0481823228680623
0.065547412979489
0.0361758209777676
0.102207090614268
0.0743492447470509
0.0767536911066953
0.0495120893750344
0.0800177851599662
0.0771589593843266
0.0657726994933919
0.125131624104044
0.0787559120261965
0.0873458477726424
0.0540330386923576
0.0799203942429966
0.0536132786928024
0.0775217621886665
0.0961154073540234
0.0879781535996223
0.0772864946198123
0.0735437301986091
0.0723259649963716
0.0689511776162416
0.0808306438198274
0.0723288018196057
0.0912115723148558
0.119197942244403
0.125781005503202
0.249114490261667
0.0991741783595467
0.103745035754251
0.0665286616492019
0.10572422012895
0.10873661262948
0.111594358931643
0.1369530672294
0.09055512451291
0.0831125021529554
0.0725067852729727
0.0845962570435628
0.0745929628608504
0.0830628867177941
0.0744868260282039
0.0756239188518854
0.116793700380614
0.066698098650366
0.174405325277192
0.0999620395028192
0.101768154873023
0.0647805949159836
0.0850781541186498
0.0643845238225339
0.0827349613082469
0.0546433407977666
0.0966961640060336
0.0738982296185197
0.0787356508055921
0.0668554935756103
0.074700448758855
0.103741816490342
0.0865021801179161
0.0737940962751523
0.0636186775202555
0.0631829423119284
0.0756750857037317
0.0491544987702093
0.108463232725317
0.0808435985207117
0.0787360096281175
0.0603060560196849
0.0614145947744747
0.0609035806108953
0.0622355548850233
0.0518936457861312
0.0700776166820522
0.0574093937347489
0.0662459477084157
0.0596294183719685
0.0596507980911236
0.0542721475917603
0.0559818583072495
0.0618218585374658
0.0564369391638514
0.0573280156507172
0.0557649467099382
0.0586735131600428
0.0577931960521466
0.0512695784754503
0.0582433308316681
0.0552760191688869
0.0648828237359545
0.0609508611540653
0.0563090148489472
0.0592876274673345
0.0563870593358561
0.0597830280758524
0.0548613145331194
0.0557475216071497
0.0530655394301044
0.0558016925077143
0.0556322051297684
0.056689581606688
0.0575698498251651
0.057599578186516
0.052959025054626
0.0575669778863166
0.0527818338143512
0.0595807085338057
0.0573838526256265
0.0633600995699359
0.13231700502108
0.0599300340954523
0.0742487399422953
0.0438730758042055
0.0678710361836986
0.0427029530851177
0.0592304602219943
0.0977063859556068
0.0727714563601256
0.0593715476834063
0.0532964116228257
0.0476288715516865
0.078895788095648
0.0531132954002914
0.0602444765050693
0.0567957641363745
0.0511595708436683
0.13399836282602
0.0923066397916262
0.186146947241103
0.106564820925631
0.0864810383417316
0.0446233961569607
0.0992497222354757
0.0704452408457263
0.0610556022947757
0.0541668235927851
0.0499385819547853
0.106687284064224
0.0566470593851988
0.0626995387565264
0.0489699284126177
0.0523369820609319
0.0955684641876625
0.0866370926106692
0.0653388628345946
0.102928055667054
0.0872531104454993
0.0880857550376139
0.113684350070992
0.124581039305261
0.0797004989025859
0.0536606501813573
0.061859454008077
0.0498332542205479
0.0849720323358908
0.103673181114691
0.057774091976586
0.0767355881131091
0.0398514118751659
0.0606653099846706
0.047376987243855
0.0893813423728028
0.0511487221978797
0.0860899895329342
0.0775743511736369
0.050481004697882
0.077413418654287
0.066586390036862
0.119981501743628
0.0987015194210293
0.0666604309726277
0.0430007187646661
0.115144567963932
0.0803422274894135
0.0682451869421155
0.0654310661312043
0.0362143761015694
0.063960620998863
0.0682286429565167
0.0432356295143763
0.0826415727524977
0.0638233876320369
0.0928244156458475
0.107191192394164
0.122670762732287
0.108879569655927
0.0534489400241784
0.045404647899686
0.0409440019034288
0.0471066812552409
0.0422912726490899
0.0322759768291231
0.0962777256161849
0.0306779736678548
0.064696241021838
0.0779070112201847
0.04893746553664
0.0416875864175015
0.0411199378423575
0.0342892516343813
0.0530880760524928
0.071214261319797
0.0930229058041044
0.0473542405385917
0.0723705980996815
0.0578782261065025
0.0529105294800748
0.0374826275930183
0.0433370802822221
0.0383022582703199
0.0450146493393136
0.0560528852624079
0.0458848292634614
0.0445518207531258
0.0512455948163718
0.036689811158609
0.101640991517456
0.0591657653448336
0.0572076641386858
0.0852511884164998
0.078971296866967
0.124519550562252
0.0591519090859557
0.0661329771275909
0.0537263068678123
0.0576831463636033
0.0588886827735278
0.0484702240930693
0.0864658267589309
0.080844708130594
0.0629964041886543
0.0631432529160399
0.0603438386154496
0.0659462587624746
0.0640699444480635
0.111438801461417
0.0787892360623479
0.183887320112202
0.0900163595953802
0.109359035431282
0.0645955273294153
0.0699117738803827
0.0789999550153302
0.0710087302688888
0.0667375065477113
0.0613087053043744
0.0760126212031618
0.0919685473582516
0.0672870090370099
0.0723009490471965
0.0618802846115443
0.0702320971841141
0.0653731410907471
0.0688510202375758
0.0695639401360869
0.066576127779984
0.0759976760146756
0.0671438887799383
0.092677494669979
0.14793536953567
0.0831426894756091
0.0887409075433281
0.0718851916906574
0.0913812685614876
0.0689171771589071
0.0822563902076657
0.095278500187979
0.0856002527815157
0.0818027621104253
0.0801125470171454
0.077582060143631
0.0754318216520311
0.0969054598066061
0.102962982296903
0.0714665100796201
0.0965092048834111
0.059574811346177
0.15461129090885
0.100766208025947
0.115572667138617
0.0959989229451073
0.0965917921446214
0.0829680871149985
0.0862847901998256
0.0804639488371841
0.0890263528102745
0.0858092727881229
0.0853714240710755
0.0832929932304394
0.078940124082897
0.0837416140086634
0.0808150860498189
0.0879545390828798
0.108628360348553
0.082195285111728
0.0838802869845132
0.0781376458730245
0.0835593665092582
0.0772465839925186
0.114739414153814
0.0926551620266089
0.0959193136083637
0.0864484601801649
0.106461714672347
0.106659040601985
0.0982666507827141
0.0791567680412655
0.0848459998805726
0.0730898576640673
0.0900187450039024
0.0694701562262361
0.104946272554516
0.102777994820609
0.0928340866678297
0.0799870979261363
0.0822450331101623
0.0771886810955528
0.0840773665943
0.078981101267707
0.0821058107863338
0.0819719017542452
0.086436050530049
0.0877293434467216
0.0809165030515164
0.08398905383065
0.095654762123929
0.102140445770216
0.0991504273785945
0.0814772804980408
0.0861895104101682
0.0775514891145822
0.0877694762242662
0.0874384317798994
0.0866909930372212
0.0730635568960802
0.0823374915500661
0.0733630100241896
0.0900123199869372
0.104010181914975
0.082988843813792
0.095713443759786
0.0763272494160893
0.0785944343579846
0.0761084000436229
0.0725309811314943
0.0707047611022098
0.0761043177732165
0.0759859149020421
0.0713001335917948
0.0715764624359297
0.068637217600908
0.0704718880490073
0.069552459494005
0.0715369488475144
0.0692331199313864
0.0711276767558193
0.0674266710287603
0.0670302540820113
0.0655877370501365
0.0689419820600561
0.0707348286608382
0.0676094805773886
0.085655245893094
0.0869408333935321
0.089042867930735
0.073328394169496
0.0780713343669454
0.0705653246751784
0.0694987584123228
0.06883608694987
0.0647576541848945
0.0690967272731156
0.0651224279811912
0.0670364738251369
0.0674876973717937
0.0691049825922115
0.0642587849737801
0.068460551865796
0.0651970162978113
0.0673863465551609
0.0656120415636532
0.0694820209302202
0.0644644928608031
0.0702184548191428
0.0676977184423119
0.0802961467185532
0.0669263525004639
0.0736368440387772
0.0685831441823282
0.0684485645536341
0.0693078028953017
0.0687271182349858
0.07134708122754
0.0683811315123201
0.0642809733767003
0.0651778304395815
0.0660623334466496
0.0672777039422339
0.064316569038128
0.0654049365357959
0.0649768061964858
0.0676059278526483
0.0628885502656474
0.0647054975924602
0.0627289698412923
0.0648025365190909
0.061596680219696
0.0640403190284537
0.0619136888125227
0.0646552334341436
0.0609431025421396
0.0616531149576807
0.0594853989919601
0.0617659712561829
0.058357515822816
0.0598437565456068
0.0585293229450596
0.057222270970435
0.0577274849478018
0.0614832745857189
0.0576728380443548
0.0584012097286633
0.0553640174584423
0.05782993101349
0.0572618626992099
0.0582470638931716
0.0542666257462095
0.0573333336080395
0.0566203105320181
0.0570821427415273
0.0566052052995333
0.0564215001347859
0.0544683835589493
0.0568796166210031
0.0554902981699741
0.0597711697019796
0.0583341875620475
0.0589157116253268
0.0587442884730315
0.058964478542051
0.0580370344384952
0.0608510395137422
0.0592549091348745
0.0614879789382273
0.0579507756539393
0.059797345957087
0.0602696557362192
0.0608549666346355
0.0620082628074356
0.061689561132646
0.0601738307875847
0.0605866950785103
0.0599407908544712
0.0620809540792704
0.0583339248687964
0.0596198910671603
0.0600982265427018
0.0614171307040851
0.0584114786860154
0.0620756978014208
0.0595383759812087
0.059228465083953
0.0596773445116284
0.0606731684815254
0.059259975731928
0.0605461811917629
0.057765450855374
0.0602763772185638
0.0572880789643654
0.0595352479466407
0.0589889928278995
0.0597686874555527
0.0565259498903365
0.0584940422534659
0.0563541368406577
0.0570325296174941
0.057455898387443
0.057427824147487
0.0544397382093417
0.0557604013035017
0.0554677608001684
0.0575052019632958
0.0547179271890315
0.0563058683374374
0.0560111098085636
0.0556945672927385
0.0544957076309334
0.0539893172739685
0.0543710565840796
0.0549285918945387
0.0531791832380331
0.0536292120489651
0.0539528270778504
0.0544554523150109
0.0526328476195378
0.0508372357766986
0.0513202862751842
0.051478679023023
0.0517340255691138
0.0521622318196091
0.0515404732134271
0.0497466493709845
0.0499375604490519
0.0501356974844933
0.049051227829858
0.0509651730991039
0.0499547755213379
0.0518412460303779
0.0489780967590062
0.0514484139250391
0.0484905194197969
0.0490914549120021
0.0493594895336955
0.0494198206360889
0.0488341407771277
0.0488906699636841
0.0470279291804992
0.048504242207739
0.0482515023162887
0.0485810325044882
0.0459333674022613
0.0470737845252405
0.0463832500180033
0.047851691949744
0.0450113742434795
0.0448653348206732
0.0469422223193666
0.0467664309531023
0.0446745517552417
0.0454690621383516
0.0432689389960546
0.0474777216247931
0.0468708759141656
0.0482299856567463
0.0487498878985975
0.0522374310940649
0.0526160959947309
0.0562969700359352
0.0574071872968329
0.0615590412022546
0.0626736457401047
0.0666550667520072
0.0679790388189328
0.0710822291620965
0.0744319814194604
0.0777019952203257
0.0781672602173042
0.0827770843616762
0.0826536065427092
0.0871950322795562
0.0885731740738919
0.0930713147571335
0.0925884655601098
0.0973686022539693
0.0996858337901353
0.101853813470719
0.104323312528994
0.106339605312117
0.105599925126836
0.11093606725389
0.110905060528876
0.111266799075358
0.112471184741926
0.113834101877341
0.116222701837463
0.116434233475503
0.11531630858259
0.115612396249965
0.115057735699295
0.115334034017453
0.114829990374847
0.116122294504893
0.114119535610099
0.11500881609403
0.11482113196889
0.117075856953636
0.115650540325518
0.115082017042944
0.115877107091805
0.116120114298493
0.116653363531238
0.116965358873181
0.11826237546447
0.118677924106021
0.117744328682287
0.120871144457826
0.122107450629597
0.123086099524493
0.123519235987042
0.12668624780777
0.12600897954596
0.128073679605584
0.130021620317045
0.132309236631301
0.132872070847716
0.135356404133788
0.13739176395594
0.140619067794963
0.139791750029248
0.141220997754538
0.14131458651718
0.143772026792758
0.143767733674901
0.146425585672523
0.143774691875301
0.143995093460274
0.145530399204929
0.143379561700288
0.14212999200635
0.142223427133384
0.142185313741315
0.146816581348903
0.145492619906856
0.145504671416813
0.145167374987758
0.147253601017346
0.149483948736995
0.150820434688055
0.152453407343545
0.157315258797109
0.156071739683196
0.159052864327724
0.159650459345439
0.165342725792644
0.166364710979077
0.169637641585264
0.172366738462636
0.176367522485097
0.17829575185632
0.180507241424232
0.180818448660396
0.183688648811933
0.188488121792273
0.193228988608508
0.195385296717727
0.199383078556189
0.201802200964
0.205863775307496
0.208245907436203
0.209871337278653
0.214984196876996
0.217552715117024
0.219917418323119
0.224707876901222
0.227938927715492
0.230394735436276
0.232036868486207
0.231604259282545
0.230116989644514
0.233079518548103
0.23182027616265
0.23642303191673
0.233633181912668
0.231341533511377
0.232260457002864
0.232502001843793
0.229907956736722
0.228601758188967
0.224623775213036
0.226113578481575
0.224356975276151
0.223895422871959
0.219781644192854
0.221156554149638
0.221556482947489
0.222879200264838
0.224838989239361
0.225618185729392
0.222453299189281
0.22739509049882
0.226036661585788
0.229714525832167
0.227510698696085
0.228488957319713
0.231536554854378
0.233517921064321
0.236939026652058
0.238884525238002
0.236841773772571
0.239621587957555
0.240203655932272
0.240668276038759
0.238207390513198
0.240333346425907
0.238274997886348
0.239106883268558
0.239800884631392
0.237874132798077
0.236757267317406
0.23878839962445
0.236520758467211
0.238319850316657
0.242637542955607
0.240409382950576
0.233975190354131
0.236317951539839
0.232022315883739
0.229366502633876
0.228360854078489
0.229332091158636
0.225752892266095
0.224952659793091
0.22280700497431
0.21919615637423
0.216157523959572
0.21388757289525
0.210168585290422
0.208851030585312
0.204929098203563
0.199694372068415
0.195334920518947
0.188163428194199
0.185370060909728
0.180420646724754
0.173060549765214
0.16677291717846
0.160581335837733
0.157633375091453
0.147283888122915
0.14453725176964
0.139161443189056
0.132444162179535
0.127083495396387
0.127430221198048
0.125855384164716
0.121147783749821
0.119218642899617
0.115521156887323
0.114464589925252
0.11612424655582
0.111621382637776
0.111725513526357
0.110255434953816
0.107923117529051
0.11016601957403
0.106984904128248
0.10746717349234
0.102652521651258
0.0999712278146301
0.0961867775188667
0.0960895202625145
0.0964838141423217
0.0899605194892368
0.0892253761163388
0.0849167832949495
0.0809023255427886
0.0781550122914785
0.0769764442296962
0.0735874118453744
0.0729458557124
0.0655975640508883
0.0651511181346453
0.0624788742001614
0.0604326714899622
0.0573511390382748
0.0534375354280174
0.0525530212337892
0.0491759349223838
0.0463473282552293
0.0439889757766024
0.0435041952655046
0.0423936148727346
0.0383951681444776
0.0385562004723281
0.0378005588210269
0.0374099969615343
0.0344714123333182
0.0325245599441488
0.0372540741727343
0.0350626676350233
0.0326529591300193
0.0351785829571808
0.0322403909868332
0.0322463852003077
0.0352625118620472
0.034147268811879
0.0318512702099766
0.031885954273308
0.03386497723125
0.0342618696705763
0.0348655699668217
0.0335313284649847
0.0336066889337837
0.0319904111289259
0.0350560249046062
0.0357524391264643
0.0342858017282483
0.0365694691058594
0.0353199478815125
0.0335342761976105
0.0350949681720343
0.0338221019673082
0.0342855153594544
0.0344814284273905
0.0316465476887618
0.0347686478089209
0.0333310398412155
0.0344626068193472
0.0334961549027381
0.032551249189281
0.0305392926886444
0.033506864479572
0.032215998822167
0.0304807641572622
0.0340497054643473
0.0348982510552912
0.035063146399179
0.0358641194490157
0.0350824514064572
0.0381506598675162
0.0385308015849087
0.0361455708528836
0.0370599559504977
0.04042342692801
0.0362794052844076
0.0359363709711707
0.0385333666739362
0.0378414470453241
0.0352650910135387
0.0404381156043846
0.0425224667452109
0.040378429420372
0.0381853448482549
0.034740186302012
0.0405622854526465
0.0402852307460171
0.0376728731065887
0.0407995979586374
0.0399417800132872
0.0393622617761134
0.0434268445190554
0.0461042552660681
0.0482796822603174
0.0434318152381148
0.0409376440234384
0.0428096944578928
0.047174369555728
0.0466171003058822
0.0516289612848594
0.0458000469133607
0.0506646752535427
0.049120712002256
0.0544805599106441
0.0530513460900531
0.0526796896289568
0.0517606238481515
0.0499082159507584
0.0496419830657524
0.0488253661897633
0.0438938506733839
0.0454306194905501
0.0450892586708655
0.0453638040953448
0.042033956746183
0.0453106684371137
0.0424877909088782
0.045118748082981
0.0423229252878477
0.0437813633102249
0.0437159304720543
0.0474562959181498
0.044927909526448
0.0466388177591869
0.0462711026650752
0.0441087396796454
0.0438502331427686
0.0452277148082469
0.046071101314255
0.0423708919069257
0.0408312068054052
0.0423815909626613
0.0424148845810411
0.0412694615381324
0.0415486833035536
0.0381378293926863
0.0363981734411849
0.0394401172858907
0.045093229637906
0.0414909720077098
0.0385430579764807
0.0389907901532492
0.0395619972486311
0.0395009915685068
0.0384121215198753
0.0402111607662673
0.0414477926024119
0.0383882959835688
0.0357314427314358
0.0362175005739899
0.0397466259309899
0.0447773282946652
0.0374001140503354
0.040405458741733
0.0421300159359252
0.0360351867714257
0.0368029101278947
0.0365311975398968
0.0374162529772914
0.0375419902868897
0.0294992017027069
0.0372064969147389
0.0387056818792494
0.0386431260302102
0.034276124840992
0.0326826445216384
0.0350471989956306
0.0350730176236814
0.0331619639660823
0.03682444493793
0.0298600634394961
0.0341483093688012
0.0332592535987219
0.0297332223459295
0.0299682196017066
0.0325125412239307
0.0275632876667941
0.0322976819043617
0.0298556436838121
0.0399149472429969
0.0322942956109626
0.0345282380132494
0.0343900290223839
0.0422632011516067
0.0324964606639383
0.0338250795175782
0.0328164844501166
0.0354242980259392
0.0315036856018172
0.0346275811293454
0.0348185298292876
0.0395655055056704
0.0479601321799927
0.0436540127509523
0.0326750240024702
0.0427008666868233
0.0366587745364292
0.0343352607207293
0.0377397257061563
0.0459324563680132
0.0397163410192516
0.0429548040872133
0.0372789483403297
0.0543935198790232
0.051402069124661
0.049948025325904
0.0563525990707493
0.052020181493167
0.0464458713295739
0.0545351196550445
0.046079605683901
0.0513649891295426
0.0550788546277811
0.0643200732616883
0.0664711015274306
0.0618863540958597
0.0610549559595661
0.066939931225518
0.0569260726191336
0.066704671308603
0.0646470331144951
0.0598851115634352
0.0594229487130057
0.0672668235374333
0.0654353747954951
0.0547960939183862
0.0662978250962509
0.0687394041610643
0.064011084040755
0.0626867446157223
0.0663604682124095
0.0587108932032001
0.0494529259987641
0.0609677211153603
0.0652998423357035
0.0545575307347051
0.0531005716353404
0.0594252463694549
0.0542991708965328
0.0621474315203935
0.0631842054870651
0.0573432131039054
0.0591265686314803
0.0561374856997581
0.0529706256653048
0.0673507429076406
0.0517997965643001
0.0524663939520106
0.0570191208518692
0.0593968727177504
0.0508658598975451
0.0450261104842599
0.0554171223756881
0.0548677824591779
0.0430096112668632
0.0554116330157253
0.0443513113204277
0.0634166340635449
0.0535565957921852
0.0717240251443364
0.0496684664290132
0.0620611504300069
0.0552197351579631
0.0663109293796254
0.0650827526876003
0.070074521019659
0.0596398366805486
0.0563445727425576
0.0526855981219219
0.0559337290950965
0.0515138188410104
0.0668641923951236
0.0582698800397403
0.0567872430213734
0.0612662511671403
0.076583801553664
0.0562696064467618
0.0546363604888687
0.056453606058975
0.0736574987855417
0.0559963844309895
0.0667688614541263
0.0543313635346673
0.055308760132311
0.0615356188959453
0.0721184242795129
0.0537387080126448
0.0712094912674699
0.0704430415147924
0.081208139912353
0.0625622923088925
0.0726630663378812
0.0610563705408226
0.054831625838894
0.0510565132395693
0.0951464226378706
0.08984598480305
0.0749913651780866
0.0693766958760811
0.059805457239778
0.0733208674346489
0.081484971551183
0.0490843910893
0.0647733832718048
0.0780527385110212
0.0992299100491516
0.0909474962514277
0.0932644299219028
0.0792809254506653
0.0945015688003532
0.0865092480996564
0.0777150268431523
0.103664422378319
0.105463730660222
0.0748628682321056
0.0836847944254317
0.0719357309588018
0.0845010870501068
0.0720786526326109
0.112813228293619
0.083396322844508
0.100179176581047
0.0917856020223237
0.0944271359111437
0.0786527158325433
0.0894617989651108
0.0629703027612026
0.0666683106992174
0.0598464306699954
0.0823658156327568
0.0737601259688056
0.065486150382382
0.0566674506261861
0.0959772413106821
0.0697349673048947
0.099798342788122
0.0434100465030158
0.079875489077663
0.109144214207881
0.0641204623884486
0.078087109397916
0.147640465804708
0.139798728307789
0.129899125673358
0.125520929623889
0.0135076416340874
0.033155432379504
0.108143809057498
0.0649073689211673
0.0958906907304349
0.0738838476792892
0.12890086347048
0.064290429722961
0.128240541898483
0.0892863854204659
0.0972404981928752
0.0291759187361825
0.0764961415216509
-0.0505661385795203
0.156628722770482
0.182000962233308
-0.00942681912008044
0.129640610353116
0.166206576601124
0.17622127523189
