3596
4000.36533379555
650.420452594757
1
2
2
0.0734505439948381
0.0645943363253427
0.0704702907273287
0.0704222419467149
0.0720720463598015
0.0792279257135185
0.0650071759883433
0.0757592380497698
0.0743338909015391
0.0788223903922045
0.0717751153276265
0.0740533752653254
0.067516428638065
0.0685226087731355
0.0689982860967022
0.0719949666184398
0.067245206157598
0.0641904813940436
0.0634755613198637
0.0715650710788538
0.0658771798385545
0.0767118333336929
0.0700504062070488
0.0701746358552878
0.0720419429353669
0.0644951559185954
0.0681746277438821
0.0652083080589214
0.0665741366832665
0.0741422785425625
0.0667752009124199
0.0702257757345941
0.0782528015407551
0.0614879260197097
0.0641338578748829
0.065940933428398
0.0649599571896808
0.0634379838229356
0.0626744141225814
0.0759452905083981
0.0765447449454068
0.0696556608882948
0.0677197566778633
0.0681091414932402
0.0771516451623191
0.0734245939173856
0.0711953985701571
0.0637329768168613
0.0713867766384082
0.0667889866364339
0.0684742910661328
0.0704185142003629
0.0780987121957635
0.073428837628142
0.07137910159748
0.094874370570764
0.071805761875024
0.0674920612444121
0.0734939318047597
0.0706923327229747
0.0944104663494607
0.0852954630058734
0.0630119687770861
0.0782763552724926
0.070239395972151
0.0757033302646936
0.0639947548648259
0.0747116011587552
0.0612035193803067
0.0732126967893583
0.0643610094831275
0.0906381769636801
0.0846428634927542
0.0713816839800072
0.0783329937829934
0.0736876591361015
0.0623442396005489
0.061095894024218
0.0576471719615993
0.0774386948373743
0.0812669244439993
0.0774385990668022
0.0631173711045945
0.0712667148538999
0.0632164230174763
0.0850406802571276
0.0632752680648101
0.0712824280718935
0.0903187155983681
0.0863996975759203
0.0681245296988977
0.0667534264851472
0.062172703049157
0.069962599613234
0.055542635282545
0.0673382103896819
0.0644298211839888
0.0710447326345985
0.0598066197004728
0.0737553061347991
0.0795575936655201
0.0651314186229121
0.123682666984921
0.0642196842221717
0.126453312933404
0.0845787733461808
0.0723949064809354
0.126239870834563
0.0733153990177027
0.081087980233821
0.062595003646472
0.0771654570690026
0.0641875124876089
0.0799284605393982
0.0532531949553338
0.112900669347583
0.0991722161615837
0.078112891440248
0.0684862680538154
0.0737194168421514
0.0426768523803323
0.0896933025816043
0.104048392955612
0.0741233826401887
0.0897011132600101
0.0718473281645353
0.0568448298736598
0.106022016274628
0.0998399337281325
0.0708785414381837
0.0658420206387274
0.0624922976815304
0.0661624536349335
0.0575375896104311
0.115913628914602
0.0714834817639228
0.0761236338102142
0.0647324529771347
0.0988389137799276
0.130326345981359
0.0773803262100563
0.065024336447797
0.0607204291287869
0.0774248822828725
0.106776691709167
0.0867338165674841
0.0633372921460425
0.0891935699264209
0.0805218494918924
0.0616383354386991
0.0677805425070662
0.0573655313728684
0.0880895464944382
0.0803967805341595
0.0326402510664259
0.123268331882894
0.157989544881817
0.0738780196023875
0.142331089592483
0.0571047967885617
0.0871434417733212
0.0626350731400581
0.0682698058175279
0.0570488173714438
0.0759751707635989
0.0581672523461096
0.0743735012126239
0.091885179589859
0.0656534660528512
0.0804317643495189
0.0957083847137198
0.0941495940626501
0.0681761379045481
0.13960354717056
0.0885083311459715
0.0637629553911658
0.102208915120947
0.0785384765700875
0.0654152041395093
0.0700502346878521
0.0963129334620953
0.0565859598699332
0.0732542460759855
0.0551778957589253
0.0675811778385562
0.080232329341206
0.071018930450329
0.0634415126532141
0.0782952881281956
0.0524520946263806
0.0928721385178987
0.119728352466827
0.104121365823646
0.0664422754946324
0.0807899107344892
0.0329404208710532
0.114723857668898
0.0954846711936582
0.0680381407738131
0.0569452002646293
0.0533372775740023
0.0594039127771288
0.0599790390938015
0.06332120200781
0.0619303156909993
0.0399104812856966
0.112255672950459
0.0811907882084725
0.0752109180851006
0.0614465549923901
0.0808990842791077
0.0625799424431078
0.114234893557064
0.0989142241886535
0.0620519144079451
0.0656669255206819
0.0584326428380253
0.0811956052641887
0.0843246694623471
0.0588758536584139
0.0643143755913783
0.0600521075662989
0.0630279836700319
0.0604194056694182
0.0589036274175362
0.063127605656225
0.0603313808339744
0.0612331538159392
0.0693462564791956
0.0671805197910604
0.0732624316755349
0.0637553693109318
0.0611044829647076
0.0636247199123388
0.0600944739096809
0.0801840051966337
0.09459140997331
0.0627518375501327
0.0659497869530192
0.0609180088969141
0.0680525288565763
0.0613974517815328
0.0684456928851717
0.0601955835729358
0.0668874636901921
0.0527902254226076
0.113092710351505
0.0610118344035229
0.076966435128231
0.0494894992907181
0.084198329267996
0.0767287892292843
0.0636364782233173
0.0650140488994982
0.0633127262989633
0.0584591960780643
0.0699800958877435
0.107485242975503
0.0676045906317833
0.0605983315445834
0.0928608877260737
0.0775443690600232
0.0624035847113003
0.0701033039019303
0.0539419258584255
0.149876590485087
0.0841784000096313
0.0619360513786641
0.142214168303159
0.0850403720866164
0.0830367717264985
0.0797976671597793
0.0505862406979168
0.186767422112749
0.11846708668704
0.0701170170168035
0.0717340360916976
0.0910335277713216
0.0663685386133984
0.0710111222290969
0.0771969677782026
0.077095367451061
0.109456608484167
0.117472906549918
0.15182257270144
0.0554299092433567
0.100448433784961
0.101945800131701
0.0725290550005129
0.062766650420662
0.0660085664237126
0.0587299963132512
0.089163662577539
0.0904833838629193
0.0866187906793913
0.0845650840527733
0.0686627099574098
0.106998164555318
0.0729824632763999
0.0677476941173527
0.0728656498726793
0.0813863422789901
0.0579242730766431
0.0737058753557959
0.0641589604621702
0.0811859566674332
0.0660762345299554
0.0671068239431067
0.128549051339112
0.0840360052626068
0.0746289506670664
0.111433462417755
0.0691446940582029
0.0648000952744353
0.0675071590764899
0.0767595537782998
0.0596553728629858
0.0628925763002607
0.0574663668121458
0.0997382055970936
0.0763665212700809
0.0649702693830029
0.0669552856868777
0.0604458702908678
0.0627535004455018
0.0668722957390916
0.0667739656702524
0.0681590512228379
0.071090176675843
0.0587107881024308
0.0894764077424842
0.117884816826804
0.0595276912981124
0.109702615547937
0.112755001190565
0.0677958535618339
0.0775385196956635
0.065800010544501
0.0752833997439059
0.0646090420735578
0.0725111742593147
0.0584635571006831
0.0740540447373426
0.0886580469978659
0.0874283079560807
0.0668161560315075
0.0904152146109898
0.142831197138168
0.158062340167189
0.0903391577227885
0.0822728832707749
0.0662311639466041
0.114621605434535
0.120507025074208
0.103867102627986
0.11782875730592
0.0755410078307589
0.0863281234813797
0.0689796689121122
0.0868165759062776
0.084100058092831
0.0828790465508077
0.0806847903813833
0.0900205399703081
0.0865799743117632
0.0918562534746328
0.0844204587160054
0.0894568451958019
0.133400341766434
0.104628733146979
0.0881838700926076
0.097328898817933
0.0841284266431159
0.127078365339783
0.132009626819134
0.146548146681002
0.147681613804439
0.119320555076543
0.159018453694978
0.106804697074302
0.106870203339615
0.0881686876079871
0.111796751034043
0.110142060761549
0.108065421939919
0.0980646351809224
0.102297245094874
0.104565806040622
0.116145765983133
0.102005774427346
0.118667217510328
0.107441404322241
0.143774739650104
0.119453195930032
0.132808796849167
0.114695473623777
0.141699768237343
0.184992374171078
0.184233870640565
0.142646804015733
0.12764715845366
0.13682646250754
0.125212829905639
0.132983677066539
0.129644491636737
0.139937898709744
0.139983053109585
0.177778689940406
0.172938437996393
0.162364839018085
0.166982366496835
0.131751044940269
0.169452663921839
0.158769162777422
0.162979486955244
0.189225217024379
0.165615437617889
0.156518902924846
0.195463527311226
0.180592083626892
0.16487995115858
0.205389568458726
0.164203775498385
0.160867970201284
0.164044912690514
0.173519137893551
0.170989488704503
0.18327174940549
0.186355483031347
0.182531430548524
0.192833975298167
0.186451062803511
0.187031368194712
0.203430547738797
0.206798354244348
0.194454511377477
0.209841104951957
0.194254604907493
0.208658734672441
0.19541554435409
0.226537268307691
0.236516661643331
0.229611927752532
0.252748409106231
0.216256507175127
0.216239819647103
0.226956745634704
0.211834171499888
0.199619223599702
0.227261613923051
0.235866298549095
0.228239795481269
0.227931762736278
0.237746339899245
0.235188076988731
0.23474595921834
0.248259992695571
0.237814562754674
0.252864232190766
0.256532002497257
0.251626680425908
0.257602248756811
0.295758400892137
0.303538262771877
0.303472711458674
0.304875283113148
0.269133697458361
0.283837987665306
0.280016265503602
0.280419232077777
0.27990271448033
0.304393674118723
0.283838764308483
0.29243353851045
0.305881344595131
0.301354939260457
0.305021452135727
0.301306472518524
0.322316916946146
0.316976129573419
0.334587722649469
0.322998645316808
0.315554801322579
0.320428737229488
0.343310961056345
0.363664692526817
0.33915453016652
0.350232415732104
0.346933381475625
0.342056369234719
0.343803434637485
0.348731664276378
0.344189420945287
0.350204680695206
0.354633620794898
0.360203285437268
0.368601281662025
0.372564520663611
0.381851959562238
0.386881499576573
0.387624579232984
0.371390997694503
0.389206744211015
0.394180892701386
0.407989235148557
0.4188175363067
0.41679165427527
0.420008818567931
0.42331896257327
0.418955692456243
0.430139304963987
0.419551556504792
0.405629641485891
0.430558747767478
0.450361999543241
0.437609109176767
0.4307026625866
0.423114903926998
0.458967112549729
0.468035522294629
0.451662433758819
0.450583701951918
0.460454644753032
0.454407024273612
0.466675494802402
0.469645231382148
0.47829215532838
0.471148173122537
0.485554644136541
0.488516839485943
0.501585386493981
0.507035016816918
0.509278980961939
0.512839978913522
0.51796237865929
0.502563681916854
0.499099337366564
0.519169322111626
0.523550541526679
0.513971559348585
0.530857972529143
0.524462028260429
0.546564821344507
0.546700989449206
0.525011200304382
0.54011467232373
0.560326080638349
0.55962481249489
0.559380069408411
0.564043086629019
0.562996780618375
0.557694485664278
0.578575191482889
0.567034781914923
0.582961584601861
0.607893112660241
0.605598767569654
0.581631552218008
0.583950204058405
0.584789532324007
0.590273578057885
0.598860375177943
0.608816175724385
0.589187308037924
0.583519600197996
0.606227634903336
0.63496665601255
0.644037763530319
0.624614359716236
0.607812584020433
0.628091827493949
0.659521439701763
0.662022998542595
0.652039755409
0.633151590229223
0.623878366482282
0.66769554748448
0.666735180514454
0.66933555606796
0.65930182328068
0.663906784041753
0.66572451948271
0.712384351962591
0.690305337377515
0.671172837926219
0.713116689493458
0.687794708097653
0.66687785103137
0.689661190038374
0.710843436430917
0.719063864475904
0.715133864620012
0.748274340888548
0.720510377413609
0.737462077025897
0.753059024221151
0.740146023856958
0.733812005841607
0.727006638718194
0.728829566844709
0.745946289455814
0.736293963330756
0.737242150673648
0.741621009329392
0.759265369525791
0.722754667633625
0.760699897893037
0.763159799149046
0.771663861178416
0.758974869504853
0.792912760210083
0.821106680487287
0.776242736583546
0.77501835274105
0.810990864289756
0.804108155099837
0.802171239169177
0.782205225979525
0.822011303833593
0.844364401557206
0.812765046434316
0.799505000256086
0.823155172518267
0.837368128745804
0.833079103558773
0.815824602642929
0.811862151147171
0.807924557343901
0.804018319145314
0.819377076776129
0.850234644910941
0.849594752633108
0.828408803471701
0.823900888282759
0.846728104613886
0.824034555645004
0.855055268706475
0.85019717579974
0.876485761295765
0.839538237345887
0.805004149695625
0.851130746005098
0.876719782030481
0.863617098912244
0.876517262586209
0.866073604668711
0.893963738933669
0.860093778660285
0.880254273305791
0.88442205974405
0.868240924401496
0.902185601287191
0.928316319918197
0.900454342271652
0.911238156475125
0.901157900764038
0.936006859075473
0.883003130972685
0.917598461032123
0.938160252625725
0.894553007901729
0.911323927377263
0.926692740971336
0.863959226615166
0.91714953468273
0.937954589043002
0.923431532893073
0.925861539737929
0.93144335822406
0.921897555270219
0.946883176767394
0.936999090212376
0.929530876187647
0.947904008864547
0.912641604506692
0.89129753512503
0.948412775071581
0.921161998384004
0.923127574660459
0.934213209847256
1.00570854565294
0.969833253058506
0.958689028110875
0.963964947520993
0.956275033436927
0.9359392978659
0.963923775786054
0.943635132070296
0.984025076116033
0.967378487722671
0.965593463407139
0.966053463190916
0.969882260502329
0.927518128878956
0.953182279103569
0.966378648963321
0.94811639018248
0.944789657437962
0.959977565569656
0.993812746983809
0.999691322920433
0.967802789069903
0.998949265077726
0.940024337626766
0.975884451854165
0.981782945183667
0.93706901298079
0.958866300645595
0.9777122156289
0.959030335152444
0.966026537782107
0.970866160800836
0.992562089465546
0.968129815088481
0.991360229104167
0.975384732909753
0.965185386156559
0.926056420348863
0.957381932573823
0.976966402576065
0.968027695023571
0.962359976841469
0.975466879432364
0.980347391368305
0.998474156006093
0.98047635968276
0.969179984512206
0.958851131927698
0.958046896228847
0.950128366783204
1.01006753846672
0.979322095554509
0.950693584132404
0.964509128624178
0.962117901880008
0.954596126544301
0.985334838911806
0.932728010828849
0.973276874920027
0.971259593692271
0.975645818192772
0.997534239013177
0.997453322934036
0.936676661203699
0.988760314996882
0.962261335325468
0.970352986059515
0.982196673289707
0.991655828063755
0.984810100166284
1.01067360894735
1.02134472798173
0.992761720128373
0.939532913441024
0.957580873052837
0.957445560608606
0.97837411248782
0.962639859655329
0.96838812373739
0.966664496293186
0.991866653287143
0.934328950131011
0.983229860965065
0.9841480706579
0.981549925324591
0.94333075550971
0.944100520788793
0.924690573248157
0.985196450098177
0.936667840227646
0.922634610392854
0.963762578333528
0.97996502374311
0.924942823584579
0.938895753612509
0.947975564910901
0.967707024774624
0.932950945651371
0.956910823114668
0.92469109107179
0.939026036313391
0.948587576664554
0.927735773027863
0.928604242338405
0.948219284186923
0.926792407546565
0.961893706468138
0.925711519237292
0.92378716661029
0.918348950748485
0.951304597726726
0.891241951920907
0.911657050438667
0.926836979957935
0.931284506971876
0.940342066553345
0.928378210030758
0.904149297310023
0.898573117555183
0.860299666685218
0.904187670212325
0.90567887823459
0.918708243971297
0.866484950190148
0.884540438303302
0.867492526272762
0.8765065642652
0.863989076869208
0.894692556926524
0.86259536445146
0.901837248988457
0.860119559931758
0.878262704807229
0.872590484791806
0.882823869949422
0.873188111065173
0.879746396917905
0.867426544188873
0.859028735689955
0.822658579957191
0.872114919252685
0.862825312432638
0.870082345257273
0.831911918430663
0.850632740558118
0.862175658353245
0.875004709259213
0.852939961355321
0.856149034040318
0.836416664575947
0.849661844279484
0.819239353607976
0.826529627620972
0.822736145848703
0.851700023638492
0.810010816431277
0.819760663255858
0.811365884012698
0.816647270399147
0.802858069692214
0.802966682390382
0.789509213235074
0.822206136661183
0.79388517671212
0.793532718152218
0.76748527144864
0.796597266973785
0.793263325293943
0.821092194129572
0.765738677743285
0.783985187662822
0.776158584997981
0.767166755043372
0.773635327081591
0.778577190968873
0.756878909317967
0.767400254083355
0.755310239004803
0.755306760222162
0.729416156614211
0.755914455237507
0.73754538967879
0.734855342555199
0.72737272179021
0.733365886486183
0.714781593638482
0.724519923504178
0.696391204788054
0.734029706458974
0.729184404961072
0.727184652352607
0.704766778262115
0.713966037055801
0.679147378496351
0.694507827333955
0.67797023654933
0.683935465663194
0.686026757879099
0.694208385119165
0.66126659922735
0.682038680789732
0.684634243608569
0.683494689188877
0.658665663971093
0.674637453602279
0.68072219477723
0.673417680658331
0.654300406969203
0.672278673229035
0.659239794150081
0.649070040100681
0.638576368302071
0.644088514934153
0.635899181845812
0.642394791684276
0.618318707535047
0.630022762393902
0.627055117633052
0.631062261883926
0.612342741450042
0.615477522636777
0.594406822531436
0.610951988217899
0.614061562600833
0.601938196589144
0.591155808519274
0.598324312137697
0.593002069265462
0.593451788842748
0.576383345828227
0.59064695920026
0.575661116771887
0.582874795498173
0.561158530640897
0.558200845979901
0.556236412775877
0.574281156428372
0.549595968578065
0.565190824288841
0.559221491582238
0.565935772882228
0.533901755208523
0.5455123845134
0.532612119107168
0.531385405609865
0.533476193319404
0.534397593890847
0.522089472544587
0.535013786279573
0.510332986554067
0.521358793889133
0.513608387214873
0.51427080096701
0.507125546022284
0.505414897728169
0.500038900156637
0.506656591339689
0.498074305422578
0.489421764527924
0.476854150538697
0.503909517539035
0.48313130909754
0.480033427693803
0.472931421389623
0.48549682957588
0.473550935046594
0.465041716678936
0.453264130914409
0.464787845017614
0.455377999191593
0.462551145943689
0.461295590560589
0.460601343572712
0.451510067655106
0.460927815578642
0.445586534060307
0.445177088134542
0.438259686634989
0.442413970746987
0.43113526021512
0.442807558917593
0.423429663628237
0.4271699246278
0.41696698980941
0.429200794350059
0.415491564771738
0.425209327247184
0.415194516536552
0.419367603529131
0.410562143967589
0.417968575464741
0.400429440288568
0.407354268325926
0.40045142969826
0.399761388722601
0.389917870704306
0.399653353782519
0.39477621515051
0.388433786420161
0.382042591139519
0.387484016620647
0.377345727938435
0.381922137368133
0.377802573818231
0.384241799554805
0.371475262860825
0.375985017344317
0.363668839112066
0.363671350308426
0.365171258964687
0.363538269603649
0.356108807209114
0.362292093139565
0.356006377880739
0.359468557592095
0.344728191818696
0.355855744069137
0.344294308655522
0.342812737052758
0.338103605850524
0.344660930487905
0.341553917151221
0.345839413193698
0.33152003608025
0.338409400439943
0.33440651131719
0.338272058119927
0.323478181251651
0.337628791587643
0.323364842961981
0.321092726288768
0.319058909821563
0.328680148346746
0.313323293120292
0.31638124581168
0.312816123373717
0.313663241374657
0.307223968296319
0.312813713318229
0.309398115295232
0.309681198676032
0.301809789473405
0.302482492468145
0.289786632097748
0.30315780545982
0.294648870710722
0.294869294524442
0.288787003312556
0.291914875633899
0.288909710312423
0.291234332497418
0.286901604144706
0.286496780595099
0.278353348749922
0.283311318468136
0.275747953945434
0.282532473457742
0.277449143221954
0.283820086888925
0.275390898978433
0.275912888846916
0.263438808617978
0.273092590799339
0.268635689745105
0.273601024768367
0.259011933002561
0.260770040535319
0.265374433190127
0.263421533237338
0.256942007291742
0.250318783019593
0.259816367266395
0.259067501093985
0.244712891335773
0.253876503060114
0.254036100952979
0.246621064743841
0.240122932921433
0.248212312112319
0.245089196077703
0.248385131284706
0.240561164259959
0.24127198634986
0.238739829394989
0.239026105510006
0.241499943384761
0.247110366962315
0.242970926443996
0.242318375544858
0.23997129983184
0.247091663706773
0.234398173445094
0.239482636227002
0.234298736115291
0.236294956823837
0.232669946952747
0.236785673041368
0.231055236266307
0.238728592615271
0.235725077445283
0.24127615791049
0.23494241739733
0.238984624550124
0.2373359613569
0.24210204224148
0.237023056503678
0.24116193755891
0.239914521915255
0.240656585202593
0.239333741708115
0.247999592594225
0.235355782577204
0.248148868501727
0.251908082981062
0.24827434498984
0.248182105097657
0.25646165583281
0.245633172278232
0.25881449931965
0.250891246079777
0.25266690508551
0.259533478421991
0.256276389583774
0.252647772528903
0.260086327302322
0.254542539337065
0.267398598100063
0.264965324454424
0.256553955181909
0.257978994224149
0.271561906271603
0.26957159636269
0.269493396211069
0.26579407174196
0.272612218196888
0.276108497406733
0.275419632928395
0.274872475826621
0.285466932458438
0.282710707929631
0.291533547195187
0.284586851472096
0.289079788228472
0.291371341931776
0.294117063299668
0.291151961772013
0.300055281174178
0.298287092665854
0.303403961568117
0.299929025825917
0.308402861371448
0.308311813731052
0.323129528476053
0.317307183778794
0.321880012315927
0.322502631583547
0.335902147997577
0.33079229526698
0.334708003680492
0.330088277829705
0.341340894716077
0.333581653732493
0.347852519951274
0.337355964034882
0.342668388313664
0.34227872995401
0.346761749809609
0.337818525933409
0.356394761533604
0.340759588024714
0.345032621683947
0.346568455263448
0.356670824953468
0.350416054839681
0.349112037075719
0.339929286755747
0.355102494278879
0.343007813049825
0.351315820624451
0.346177838189659
0.341721304959756
0.335665609266027
0.347287078394562
0.341210733832158
0.346326312083733
0.335692215768989
0.34405927542317
0.33243815636973
0.337355752860637
0.332114515730733
0.336444794626173
0.330108422912165
0.346013225627235
0.343091682929365
0.342907377600863
0.330005872625242
0.338845243558606
0.336170321329272
0.340775638101562
0.340162852787021
0.343709222092761
0.335810195442352
0.348695520244605
0.335310856474794
0.34453328871459
0.331094042175016
0.344554432016872
0.338010041134842
0.338515622111103
0.330698479668383
0.339920057004315
0.336285328351791
0.336052203191127
0.332033634791897
0.339328033925882
0.33872250523442
0.344355740797881
0.32899390525982
0.331615906268205
0.326911894874024
0.335776227486811
0.32790914986172
0.329788018583671
0.326189670293363
0.332565048390954
0.321296628663436
0.33586911387265
0.318643761121728
0.323148166324969
0.318234112583656
0.324549358872084
0.312763575516578
0.315060346973279
0.314309825261576
0.311575388156784
0.29904689896162
0.303294218010204
0.296298507586092
0.3050153979971
0.298316152949542
0.293787391369502
0.288978951830342
0.290636501180717
0.285419469170058
0.291072685732495
0.27685454313821
0.280785582239588
0.277551275736223
0.276337829686554
0.265187190722732
0.275021755875287
0.26508480827257
0.265460243632962
0.26099623337842
0.268489439334778
0.254363899015725
0.256842473176533
0.253135360987045
0.251962255766189
0.241958249675566
0.2458690831757
0.242913068981169
0.242289890966009
0.232981545651593
0.236079175528881
0.2381205564035
0.235342368765076
0.228705019248731
0.229521972231898
0.231191593802235
0.228659216299745
0.222563903474396
0.224450554940335
0.225554890423875
0.231034565902468
0.220126706927254
0.22346311104141
0.217597451792662
0.223025156582589
0.215277647280827
0.224958223952844
0.214525048934054
0.215720451578201
0.213775642943103
0.208309579949005
0.204350934281633
0.210574380098781
0.205563144672057
0.206850675686598
0.20074657591076
0.201227934062979
0.199275608325484
0.203478868783606
0.199256902397787
0.199346329622405
0.19313409323054
0.20205968663654
0.193728479358754
0.195304699892337
0.190249526079363
0.196498978950303
0.186124312195994
0.190236438341968
0.185965302247757
0.193025102287039
0.188637277830614
0.189298733333215
0.185551415107899
0.189065567543606
0.178931308564299
0.183278365325949
0.183382858941063
0.18558919438722
0.179960055535358
0.181460357777318
0.179527769740882
0.182012677189078
0.175449259573043
0.177690025332514
0.17294124566261
0.17755873136985
0.176739030930244
0.179524298198407
0.170558174005976
0.175001987694205
0.173521760605507
0.17340738569327
0.168861536058246
0.17647339764694
0.169069214080752
0.170947352155281
0.170921407965071
0.174470076081025
0.168049520095316
0.170120107770175
0.167041967910137
0.16686273791613
0.167864789440268
0.167683792395206
0.166187181046203
0.170622803010425
0.165017923472562
0.168102883148504
0.162035189576753
0.164915383839734
0.161314965804068
0.162730316156139
0.160299856127416
0.164059279955826
0.159747102992377
0.166072851701962
0.158467258713915
0.160059918949652
0.160109066825142
0.160853827287718
0.159898000861545
0.160426456537991
0.155729249532241
0.154848231086864
0.153190739010647
0.161929792509481
0.153683296482022
0.155705811629547
0.15142561805936
0.158396883547465
0.15160370111367
0.155326055050787
0.155461614339161
0.157960115287283
0.148945539976769
0.153381520703803
0.15263247401325
0.152429899500114
0.150786128142026
0.153802122698368
0.151216397538845
0.152451145725119
0.148012769452231
0.151926212888989
0.147463303580094
0.153658545835892
0.14895539012374
0.148573545573987
0.144823446391854
0.150652333715534
0.145145594382184
0.153076055618635
0.146408330409201
0.148711295831539
0.146424796929951
0.146726377836218
0.147038394840039
0.151364554772702
0.148373248555939
0.148813049314402
0.146389431203426
0.14508574514858
0.143675878090937
0.145557506561877
0.144761034971503
0.147849437098937
0.145708740767288
0.147255152414401
0.141196021609095
0.141800561196848
0.141936392289153
0.144686061296214
0.136477529831746
0.144996023810866
0.145136032486523
0.142268396622254
0.140127155446677
0.14019654313557
0.142037040158027
0.141501493612622
0.138882221183627
0.140959210952922
0.137111258706301
0.13913749013543
0.136060484431859
0.132181677429905
0.136552304443939
0.136134478725825
0.130393084718589
0.135041967941844
0.13220330169155
0.134443146056604
0.132390547220682
0.131666832364544
0.130794538166157
0.130042934790624
0.127466033013637
0.13211104992155
0.130255206958689
0.131008126300551
0.13018372204283
0.12821823913772
0.129146619622822
0.127200422748397
0.12838561411481
0.129837583124714
0.126779941694044
0.127443401142546
0.129458524472197
0.126951453889266
0.121965435470823
0.127066351549914
0.124927223987522
0.122905037417005
0.121297053765648
0.125047260957484
0.123037370849435
0.123206811126063
0.120737601118055
0.120354349917993
0.124061690975638
0.122202109110816
0.120335703282376
0.121189160532998
0.119109925990258
0.121143744421234
0.117598746229214
0.122730370662391
0.117919645093128
0.115040759395599
0.116867672711395
0.11937442292351
0.116064078927163
0.114552951881869
0.116149035330161
0.115254304931575
0.108940177221043
0.112980587427501
0.11139229016797
0.112385626252506
0.110077171091077
0.110022547768916
0.108631007496212
0.10951976791557
0.108438210872331
0.110594790398833
0.108287133564759
0.108281404385002
0.105578820631373
0.106895282025655
0.105473150986309
0.107823531448368
0.103870746120305
0.105397621012149
0.103532652649232
0.103946667352334
0.100661690463757
0.102953205655676
0.101193387646577
0.0999196504502025
0.0999726360121178
0.102269068337445
0.0983388051547672
0.101813728091296
0.0996043049870477
0.0996332516175031
0.0967241418774017
0.0977184667380066
0.0976015679677287
0.100625576083421
0.0965856632733262
0.0968753598462753
0.0951889996878342
0.100055143398748
0.0958499706529553
0.100105570567803
0.0967073984487272
0.098896097470261
0.0964378737451098
0.0979013626598777
0.0933237170254886
0.0946828348585701
0.0929989056396708
0.0947697527021428
0.0921154809214356
0.0937720620367387
0.0928389174971311
0.090727849384332
0.0909996454648632
0.0937107887194717
0.091420061218299
0.093990797583128
0.0916038958358601
0.0917344317091084
0.0895344337540483
0.0923147920074816
0.0913133499644031
0.0924853546860619
0.089674754789339
0.0872456301694094
0.0888618197326
0.0889704644987128
0.0881483142379822
0.0880398549663066
0.0878299465303749
0.0905853198150355
0.0868108791953607
0.0887151738256852
0.0866389924009404
0.0867140559450471
0.086569533544267
0.0851272913569567
0.082428858682084
0.0869435486330854
0.0828473173511843
0.0844636710529418
0.0846036324377484
0.0891009170024634
0.0836111244061561
0.0849784678980441
0.081281971649604
0.0838553679821278
0.0844823275500155
0.0826614541064614
0.0825075762865263
0.0835611416001058
0.0857216694198372
0.0833691224183371
0.0834387583603084
0.0830424492065939
0.0827184401410298
0.0835108917718778
0.0841671769720438
0.0805757579365654
0.0830286923114068
0.0828931771660887
0.0806814329787654
0.0837066427938741
0.0822423115745605
0.0806048658987734
0.0814874466015303
0.0826191869091799
0.0800243618230873
0.0804206401724759
0.080217914512667
0.0816937710309113
0.0807095817600569
0.0810356573840393
0.0813974083321303
0.0830375732404224
0.0841655102141221
0.0825302415302548
0.0805457771581152
0.0802287011758806
0.079374749347267
0.0804009088752409
0.0795516930566366
0.0814157159600073
0.0770433022674052
0.081390156737145
0.0800705606632502
0.0774133635954437
0.0768563651601484
0.0768479853124468
0.0789529662344702
0.0779977077981916
0.0783689895143665
0.0783478914843176
0.0729389111997425
0.0769431587074782
0.0759379128883276
0.0757655137987499
0.0751579984655859
0.0753360879053968
0.0742980303099618
0.0725157726961339
0.0720784453667371
0.0723246661113137
0.0724017479938707
0.0733695708916284
0.0711683770651525
0.0733101347918561
0.0740339851547561
0.0747088997383812
0.072210564345096
0.0732965016026065
0.0721232754195966
0.0735230353359622
0.0752765484132316
0.0749352995230683
0.0708786263435886
0.0744321599984587
0.0720461124371175
0.0739697649512137
0.0710855301929779
0.0702119666910415
0.0732794779535843
0.07422309606174
0.0712013611694113
0.0744676910420663
0.0734234634489988
0.0707176005088276
0.0714381337304542
0.069443761213409
0.0702109876832345
0.0723200838852012
0.0735807829240706
0.0714215917977347
0.0664593126684811
0.0703866019272968
0.0693148892114579
0.0740367041414715
0.0703138053445445
0.0729538003366249
0.0713997288879647
0.0690843228881794
0.0689730533092072
0.0655462511768974
0.0686889628694446
0.0689830168139512
0.0697129256533117
0.0695016522949967
0.0644339917412689
0.067826918833457
0.0684618134286194
0.0670754453160624
0.0668733165644956
0.0647864428608753
0.067397350592024
0.0657644731758783
0.0658425556620986
0.0648187173016397
0.0618072994611587
0.0654894248826454
0.0624453863064495
0.0620800026438775
0.06351121774387
0.0630293909409089
0.0623060185774216
0.0626693842154604
0.0604800025002656
0.0600454057568112
0.0608466666279897
0.0601664304139685
0.0617295232406163
0.0615316328152262
0.0628802911066836
0.0617832700616136
0.0628476238024932
0.0596631752472227
0.0618986800486374
0.0607058533422085
0.0601892289422162
0.0618913129977312
0.0603961297810442
0.0635731172088329
0.0615992742460192
0.0579281809675343
0.0600741444025381
0.0601076902501191
0.0590363959005692
0.0593018505921471
0.0569940694549021
0.0584195185441179
0.0600248462795921
0.0566865827036228
0.0574357897431836
0.0582859473615457
0.0594374578612301
0.0585301368435796
0.057098043839191
0.0575105700034249
0.0586162750719044
0.0584141174769768
0.0554451543896661
0.0566054967743038
0.0581422670546615
0.0564730733333226
0.0561149100283934
0.0572649109291536
0.057648219076703
0.0550865608428093
0.0551182203750871
0.0546757723137675
0.0529349687660434
0.0549768158953816
0.0546015961754895
0.0519701027516222
0.0541954192137467
0.0540987452959506
0.0528770449145966
0.0517754238093804
0.0511058504862941
0.0502683402815745
0.0511934188498385
0.0525068696380908
0.0526994966559507
0.0523575749836283
0.0523285734145945
0.0528514854495597
0.0500540844856102
0.0503716599100679
0.0511419788711524
0.0485842292219704
0.0514343962735017
0.050746089551582
0.05217612178898
0.0480485633703325
0.0510932553086687
0.0504238671376227
0.051204401655857
0.0487615348394042
0.0510050218637495
0.0498541448573108
0.0499668320513311
0.0494644529872549
0.0520307233587662
0.0508890720632924
0.0499705164371909
0.0501137272313199
0.0519359491073586
0.0532737133444804
0.0509234928229085
0.0493142371269997
0.0533229273778939
0.0516148951715178
0.0502348973067465
0.0518978129856875
0.0519412465394426
0.0540310699245518
0.0533969175365962
0.0484129052530209
0.0488950729164451
0.0358555110179412
0.0406778539950956
0.0380155195114704
0.0446313673825582
0.0500942894996994
0.0495374313902978
0.0355282340813967
0.0338951154476661
0.0413701421855793
0.0443950371717889
0.0332461304577685
0.0425214931085661
0.0343724792822576
0.039077575111521
0.038955820798392
0.0403315674127394
0.0352011234126305
0.0402280238761471
0.0381338528071033
0.042831197923173
0.0387012796575457
0.0491165325539203
0.0462902290733541
0.0479608330286228
0.043653282379671
0.0502826541982705
0.0358285666006094
0.0465447816446787
0.03143243764745
0.0441195218067143
0.0353581908087894
0.0428838900210179
0.0330924135380676
0.0490421917692491
0.0341563665777703
0.0487209671829651
0.0292951530833457
0.0443480850651439
0.0279008935960478
0.0422512784052843
0.0284722958038781
0.0482334253129245
0.038716177542143
0.0558251500052526
0.0291041328117261
0.0442389578127953
0.0320672806253273
0.0519369980796737
0.0404632722447329
0.0493176697427017
0.036410667277626
0.049904941889967
0.0520109525779862
0.0422101346075328
0.044266840999875
0.0400387904386695
0.0608132253494232
0.0333688498070106
0.0584896362380547
0.0380339204910481
0.0627697765189472
0.0347213721790157
0.0630421877351455
0.0358393882341066
0.0535365647670644
0.0413566724236197
0.0522969609378587
0.044141072139018
0.0479093252046828
0.0474009173486536
0.0457410856308455
0.0463614255235209
0.0463593534332352
0.0456875386523226
0.0464606099657805
0.0425219831950062
0.0492153255862478
0.0422180612133873
0.0477319556889879
0.0407491168887308
0.0459147691329906
0.0422831061251585
0.0434281432684094
0.0438495498873892
0.0464585121628402
0.0420000656619215
0.0436032491584987
0.0408023378585606
0.043664654046208
0.0425046508773237
0.0435999577537623
0.0415730285435578
0.0454822630992855
0.0419372296700561
0.0427388144744254
0.0412973975043299
0.0441335491986097
0.0424138713883389
0.0445390538173194
0.0425250295255722
0.042834741378463
0.042002053101232
0.0437219868406997
0.0405942011963096
0.0442039186724834
0.0396429671675803
0.0426913350536539
0.0419829655091914
0.0420450055811882
0.0421227710742633
0.0473748228271926
0.0438634692395955
0.0442975022971515
0.0416538614706325
0.0422578427163123
0.0422779346372256
0.0435402264292176
0.0431229533026699
0.0434589007507409
0.0440525809171287
0.0456206390373743
0.042888365414834
0.044025721304488
0.043339858122001
0.0444013462717954
0.0421774592872208
0.0420563616741774
0.0395819476414352
0.0440626817308478
0.0429252831382407
0.0440904682270173
0.0428567088312428
0.0446006221737601
0.0418361669288412
0.0419769374757641
0.0414340218661499
0.0430921974106931
0.0432713924412271
0.0425421144898555
0.0409069156628715
0.0426160523187729
0.0417296948987948
0.0426156325970489
0.0409819674482368
0.0424872721220219
0.0419331633150575
0.0418501493628839
0.0422496199361084
0.0417654456012751
0.0416571883282087
0.0440712608893833
0.0408795316301513
0.0413133212772076
0.0423876325773981
0.0424428729725225
0.0426838409330328
0.0439985809360242
0.0418195290884777
0.0438071690503586
0.0430312861480162
0.0414418459208172
0.0421795982117987
0.0423834933942031
0.0405509172670771
0.0420325589216227
0.0442687524029508
0.0437559725950403
0.0428337719349458
0.0433912894430892
0.0419617652696952
0.0434746366542165
0.0422608897639142
0.0434862583409584
0.0443322676164949
0.0445442226318299
0.0442526177041044
0.0435539156369314
0.0426130966835849
0.0441948630575234
0.0434468236650246
0.0438619971175307
0.0423458300127871
0.0437719444910013
0.0448096533256243
0.0443016979189584
0.0442619602952292
0.0444918991669367
0.0413148215033129
0.0445205156992582
0.0457986500606611
0.0445670781340045
0.042876142757394
0.044295588503467
0.0444737436276601
0.0448797743882103
0.0442696025659084
0.0440794688842932
0.0433899835404693
0.042458674437462
0.0439639477175442
0.0438411009370205
0.0435863840093426
0.0452941411420759
0.0451460257079597
0.045356878419727
0.0435402467689579
0.044362007550117
0.0431953489599261
0.0428605651012704
0.0443545185809178
0.0457817151293807
0.0458285748578437
0.0453086235815224
0.0450991377451441
0.0445466531622507
0.0443252378165607
0.0433698463286682
0.043667352150171
0.0437719251954001
0.0460539682776596
0.045782647858226
0.0433160050200894
0.0443123587202831
0.0445478551746525
0.0455252520267756
0.0450679873838807
0.0452824986056554
0.0448777840488956
0.0463015063131274
0.0449880100686009
0.0429250482643794
0.043683892906217
0.0453262686627165
0.0454991863185258
0.0451427821921599
0.0446111381710593
0.0455322499338378
0.0460182650032349
0.0458228791357245
0.0457404628595731
0.0459810560829525
0.0467019920639898
0.0461938009727167
0.0465172693502115
0.0450608996484229
0.0459364209556851
0.0470042911836541
0.0461284774098245
0.0463279397124948
0.0457837980945083
0.0456590542144313
0.0450878245002617
0.0445239259460223
0.0456654833424194
0.0451322543522286
0.0447591301222262
0.0457168200763525
0.0441684674824107
0.0417467346331014
0.0417769958462798
0.0431834390461864
0.0453981289066771
0.041957437147904
0.0414145596454574
0.0430128142165011
0.0436855939924615
0.0426635236407731
0.0414053963679123
0.0422042322790357
0.0436333571290296
0.0440192561871238
0.0451134413183772
0.0432686061577664
0.0426787093115566
0.0446473302453022
0.0444842523216646
0.0423304252266954
0.0440349099758616
0.0437472288065717
0.0444127439471805
0.0422046251739866
0.0427805903590248
0.042082401326307
0.0411944927222717
0.0411124792330485
0.0427549818874233
0.0438583489213505
0.0423606075313941
0.041136896153293
0.0426081876690861
0.043086528197886
0.0431025360441865
0.0408197304233392
0.0428859681863289
0.0416299216929092
0.0427223505720305
0.0445578984885274
0.0437709624200748
0.0429154606403165
0.0415136188080277
0.0407899112666998
0.0430566471497515
0.0436567812849902
0.043472915123962
0.0423795816667823
0.0432169127192722
0.042419232733792
0.041062235877467
0.0404700788367869
0.0422069931531046
0.0405455475949769
0.0411354017347832
0.0405813034012926
0.0424166348898594
0.041456426296047
0.04119568036293
0.0429770885077289
0.0442724333768725
0.0425664387240592
0.0420904525285078
0.0422407780345184
0.0404432979704907
0.0391767294312079
0.0421791054554236
0.0406662405739017
0.0405733416129011
0.0406484547716171
0.0405027148562433
0.0438423636431223
0.045261232566477
0.0408046183430547
0.0413041785183655
0.0395396126999882
0.0398483259495688
0.0401316691632456
0.0408061028821722
0.0405887538541442
0.040139100690587
0.0405342619173374
0.0426956604107518
0.0391604966554656
0.0407486718210477
0.0416528951618821
0.0406825434952582
0.0384373121011171
0.0410270110417845
0.0407809326744347
0.0393378835461873
0.0405462526840705
0.0421922084557509
0.0400792186206953
0.0407174310309651
0.0397413744917851
0.0421064250403789
0.0448119018477569
0.0433555911044147
0.0412257543354125
0.0382601213345033
0.0384622924043137
0.0407716865508103
0.0396835490278878
0.0408357507129918
0.0374616680230936
0.0402800656451209
0.0414346896996758
0.0400151520152644
0.0378998559871562
0.0391813206937715
0.0385311929704071
0.0413717987483607
0.0379166153160231
0.039031558192467
0.0383825396874828
0.0398816379545901
0.0389624647308246
0.0383654143536239
0.036212701112912
0.0394196631596169
0.0384832243303811
0.0403878553544279
0.0409797310327953
0.0399173382798554
0.0380205063251001
0.0382690268682142
0.0359415192968979
0.0384334315718914
0.0347452038033097
0.0351666997449023
0.0361000218649682
0.0363088245151853
0.0346532143295003
0.0350140005527474
0.0361609916335067
0.0368642350105647
0.0355376807255431
0.0379909178385916
0.036654946934189
0.0374104138904526
0.0360736421952662
0.0354858181696967
0.0333653868785423
0.0348276878443677
0.0339897021211427
0.0339104382905866
0.0333672548699942
0.0329484150400376
0.0441295519440476
0.0480491840227786
0.03747854465848
0.0326612071147848
0.0373146167097212
0.0356663258920723
0.0361534477788471
0.0354612244692027
0.0342954793261112
0.0373997745379792
0.0348656120110716
0.0342595037611171
0.0360457857608731
0.0359655985874163
0.0340778654332731
0.034423903668186
0.0336231892792916
0.0338401444694415
0.0351797179366297
0.0362307466575336
0.0317734161343712
0.0329427045049878
0.0340859264271789
0.0333714990117008
0.03528603310537
0.0349748614506705
0.0383797181561543
0.0433324754826236
0.0391873897246249
0.0369662356501889
0.0335811312755011
0.0343908751261942
0.0330342099856259
0.0347568268644147
0.0331903873510687
0.0336054365713391
0.0334766790616829
0.0329492068841346
0.032153760496676
0.033857644346755
0.0331017503343773
0.0328889223454716
0.0310300515375877
0.0327928952711295
0.0321376968855223
0.0312618625316905
0.0299082853785461
0.03345209339407
0.0316239506891057
0.0342007524868623
0.03335700036585
0.0363847106721151
0.0289604519003701
0.0433844549182209
0.0448833303902211
0.0414706291794707
0.030933583815545
0.0322494001119423
0.0321778969238263
0.0335285409573183
0.030714673018578
0.0329307020332372
0.0295150102226459
0.0336545066597173
0.0312728560559929
0.0335001357071177
0.0315932113416294
0.0327049562657016
0.0324862564379736
0.0348427981590793
0.0310945991713195
0.0329493980668097
0.0333627392258336
0.0311317672920909
0.0359598464034676
0.0480230375844952
0.0372586165673019
0.0386173999752096
0.0296659690155564
0.0366910273961319
0.050443849600789
0.0401600808078846
0.0340409606891386
0.0310498461681224
0.0334483519172577
0.0337591280516925
0.0347671878739518
0.0291855279946482
0.0384652443501585
0.035876535769183
0.034233485924646
0.035538382036771
0.0336600767131102
0.0315429229651456
0.0313914759819026
0.0332759808120249
0.031409144045179
0.0309547220751289
0.0309143281865241
0.0313894508542613
0.0310115019481471
0.0305165373509064
0.032066124501856
0.0296577717159815
0.038747908571397
0.0374876744622874
0.031797892745324
0.0301777214567147
0.0331014450509362
0.0272869108526927
0.0423782916452796
0.0435251563132051
0.0353104249412426
0.0309987403298403
0.032847885849393
0.0311419898983016
0.0294683020888198
0.0321110834444237
0.0310331831985631
0.0312536183946676
0.0298689049585241
0.0322706914700557
0.0325564081489444
0.0322987931181119
0.0297051651434698
0.0334174273190937
0.0282613493026618
0.0315492606242607
0.0314164108249925
0.0338097187033626
0.0312998474917289
0.0352840975218649
0.0545455261965919
0.0564209385378326
0.05296005225527
0.0428770898227539
0.0388020466215126
0.0305440460111121
0.0333066509469509
0.0282435224054526
0.0344419392997178
0.0314674443605192
0.0334217156090114
0.032330621435082
0.0374316683224989
0.0323425658893067
0.0319267887599361
0.0288995562303294
0.0321237420377926
0.0299418631370039
0.0345650986274955
0.0300057287048451
0.0328757307274789
0.0282619534497942
0.0317944962890916
0.0387632974924552
0.0413310636310825
0.0329156127096452
0.0314642619578425
0.0722049664264251
0.0459926591607703
0.0466429132398163
0.0323871345541954
0.035953789035234
0.0289757394358169
0.032096678782191
0.0326142098029391
0.0378527600761586
0.0328042968324812
0.0350362236135023
0.0308887123111039
0.0360200909396903
0.031980682070421
0.0309052853135779
0.0523356953731648
0.0668307236470793
0.0432259481190538
0.0413020757471725
0.025700692750016
0.0552771825912327
0.0559329717680005
0.0410133665212596
0.0370609050398949
0.0365510618547358
0.0325257992031196
0.034892312055462
0.0321334607086312
0.0350489429626398
0.041171161924249
0.0352240516893284
0.0356820992598427
0.0304228040628386
0.032345742154449
0.0363640747817694
0.0386111434094665
0.0461902487009692
0.0404126613382222
0.0359306914106776
0.0415491521529018
0.0363334179236498
0.0345169600348558
0.0351610383325156
0.0338866219317178
0.0351661875142205
0.0541784836260781
0.0476352251405469
0.0439890598692443
0.053877228757026
0.0442856949481746
0.0350283130460539
0.0380796842954673
0.0452320750231613
0.0458540046724836
0.0267433160822967
0.0657770813975209
0.0492768007438469
0.0745086785748446
0.0481586501207488
0.0434643517092222
0.0332109113736458
0.0385728713663871
0.029166434746429
0.0446281865718979
0.0546574267220017
0.0384104931358885
0.0407238369853063
0.0316429575908934
0.0529378421684385
0.0446313172502371
0.0487992361026889
0.0374158666044783
0.040813331798304
0.0376869079414772
0.0598989856973398
0.0325151504893961
0.0520096659381451
0.0610893806610076
0.073826304517025
0.0688066390245098
0.0397847199470917
0.0517362139657114
0.0662331826422555
0.0498648559699189
0.0455290411675681
0.0354456837576528
0.0461609851997074
0.0290497270393201
0.0592502888649148
0.0686985281060084
0.0498593445243203
0.0465515454231876
0.0388821461906985
0.0456542622657259
0.0673188191349143
0.0515047269360518
0.042867511507934
0.0438862605218154
0.0433411307068913
0.0433267655807208
0.100148528423702
0.0518619631150922
0.0818926960818786
0.0601794455130469
0.0776518399475087
0.0542074782166345
0.0655972119602133
0.046282201415731
0.0750444322356108
0.0668074984228964
0.0599825627731732
0.038936571721232
0.08457550970313
0.0621915570139074
0.063785269670957
0.0557625224634093
0.0540662203252927
0.0542865058583717
0.105224753132409
0.108574371939108
0.0947171637206556
0.0552090260326856
0.0725283641177572
0.0801630991652969
0.0634884393722962
0.0569677854033518
0.0577688717638042
0.0557558053089189
0.0563524778147549
0.0600350683313275
0.07064903887977
0.0539546610773205
0.0696263724558102
0.0520556144262338
0.075352156905022
0.0826412757280112
0.148670404135033
0.0882273475561612
0.0928574673221214
0.101826687512294
0.094838489315618
0.0813122815492245
0.0679800343798966
0.0707015429226486
0.0784602255667805
0.076447552908162
0.0711527468559821
0.0703967677519043
0.109016427703721
0.0786852111369266
0.119277189049054
0.0832574176244805
0.0961946454202698
0.0752680056141697
0.136760603428174
0.202577533428594
0.120489894385474
0.11273190994028
0.0914336423189628
0.152487991940785
0.145434844217756
0.119768569728623
0.0999640852004873
0.105456696504075
0.0996399011005717
0.118031527602656
0.119192265038489
0.125840860891269
0.136462357683033
0.125841807357089
0.121866999641981
0.165952389934823
0.206579061971878
0.218025978501379
0.151608748560728
0.152279491928336
0.164531528609678
0.169885125429677
0.149956179412608
0.165611966749127
0.142164453510796
0.207810031294592
0.190720237648543
0.190718341322434
0.164521807485465
0.19774476459258
0.199633520493393
0.192259849649442
0.255436396034832
0.209312193916417
0.219719630090523
0.187559708274128
0.218375348414189
0.19621268807136
0.220300689182244
0.242639792491784
0.238159756382091
0.23005899295722
0.224955360196143
0.228455358418854
0.226319187176608
0.236534577150021
0.233238535869686
0.252675644004359
0.287110889274658
0.29780135307667
0.452824174605201
0.267780747552617
0.272081333978022
0.23476311645788
0.272323364940954
0.278584937104964
0.284023340211364
0.300576448593894
0.270398253420637
0.257412962878016
0.246973039217905
0.25780636886476
0.248095181599629
0.251577500770648
0.253262796306262
0.251947251349949
0.289981847571383
0.234997448097985
0.342994326885212
0.290902734400342
0.273791900246802
0.236902198193697
0.257272539001521
0.235184707153983
0.254258503466807
0.224097697714068
0.27062378343992
0.243464459440941
0.251506813919874
0.231691130670693
0.241268266299544
0.269270523388493
0.25874505433697
0.241778668099325
0.233455989611438
0.226408713246256
0.234879459949159
0.208675282660609
0.271255799160627
0.244347120287742
0.235908107754742
0.214814276129685
0.221668614205024
0.214473464972589
0.215519555234197
0.207348294177548
0.22406083473545
0.20551841904023
0.215502148131404
0.207658828041874
0.210933443396273
0.201846398988839
0.204219508582751
0.210198434122638
0.20665057351015
0.205956381493033
0.203673413549931
0.205597070791685
0.205325961094589
0.198843882945091
0.206341584485393
0.200010256516607
0.210077282902163
0.202467316634365
0.198412711617183
0.203401127448628
0.197980418783164
0.200237781776717
0.199982469571711
0.196641311450379
0.19634764890905
0.197635739669344
0.199601180504347
0.190743051746487
0.19650704897569
0.198673416604394
0.193029949070807
0.197927867245483
0.189258577946006
0.197629083445537
0.193818139572024
0.196928883668552
0.268057922607311
0.198870929673538
0.205290696748595
0.17811115583348
0.197241221091799
0.169315141314722
0.188466312744876
0.229064617730237
0.203496496240182
0.18005689978018
0.175531937876787
0.169167448369916
0.2017341311731
0.175163371945154
0.175792097183971
0.16729414476189
0.167997809472461
0.243343274461351
0.210563650433997
0.310753959049844
0.227571188832042
0.200619172372256
0.154692366128032
0.210851295632455
0.187083028976807
0.171992776520094
0.159435643685683
0.151933005494115
0.212912453172786
0.167510356756054
0.167278995263775
0.148722990506639
0.154367275084887
0.1937074135566
0.184511446334645
0.168906460375259
0.202329452080847
0.190594317998142
0.194963194050638
0.212478037177487
0.229944120152978
0.17793288138942
0.148649049440586
0.155786914965561
0.13835128123898
0.172371626654965
0.199345547539577
0.146780661287524
0.16792104356412
0.127675416336563
0.14477326544143
0.13534999476599
0.179550271359295
0.136965011626211
0.175054565453208
0.15973297522819
0.13775318789595
0.160039648851355
0.153552201812573
0.212787028892206
0.185810435587687
0.150883650293003
0.126739021992545
0.192926779828853
0.164492805996023
0.153449246297111
0.147535738137456
0.115639079437345
0.145369412212319
0.142519695899157
0.12599696530313
0.160443967411379
0.144978727067011
0.174161948344148
0.192842865454781
0.209407440742992
0.189455147766795
0.131865034736589
0.122691836366197
0.117392276183926
0.126290231209646
0.122435101985089
0.112398699856061
0.178753855699725
0.111173789872931
0.146204510895896
0.159855784976716
0.132323916144057
0.127005885841081
0.125308419953524
0.118103835500891
0.139003387637314
0.164851765864131
0.188622720965463
0.139131677540927
0.167037912723534
0.151716191709434
0.148223427447186
0.13670900359435
0.143509766621347
0.141046093366902
0.15136930515072
0.159310611340133
0.155173417965933
0.153915285547435
0.165805973231545
0.151962852005253
0.215592992013304
0.184386652343737
0.180444790984861
0.211905887123263
0.20560681554115
0.263393538146889
0.201635007733588
0.205626308277893
0.194944709782755
0.202042361038909
0.208879848228909
0.197914638461873
0.235139757143331
0.239878337957987
0.219651474421517
0.219548711737049
0.218009151723395
0.228752505477403
0.231096477187331
0.280317920231243
0.245338723894343
0.352536112291448
0.265848801940208
0.28175253509935
0.241422653143535
0.241762796603188
0.25487498064114
0.245717549883694
0.242837980063986
0.239202278229515
0.256609618252358
0.27912983394758
0.247718885906907
0.259203345683765
0.244632363264381
0.254989928284842
0.2532064919731
0.25895061067997
0.258798098223004
0.261095689933766
0.267851520086497
0.257533397768652
0.28014389996421
0.349271567003471
0.281895090468996
0.290429400700198
0.274162225341417
0.294111053254075
0.273017313928601
0.293822329532365
0.307828807901612
0.297546243254057
0.293091133203619
0.294329766466418
0.294072480411165
0.290095092180936
0.316245585786715
0.325305346350595
0.29299427226924
0.319174259935035
0.282985335385814
0.384050075902786
0.332674236076191
0.347196670927728
0.327125438200632
0.327747437711645
0.307902341570415
0.31676622993808
0.312227541383593
0.319638573084902
0.319751504153065
0.320086890455967
0.31733355443292
0.312979626982668
0.32063901902653
0.313939291179153
0.317586992952234
0.342679275571034
0.314564712297086
0.315904770989083
0.313042349654726
0.3158049207081
0.308728137204047
0.349128990920203
0.324061918303921
0.322140332622997
0.309432037379199
0.336429655214117
0.336206073619144
0.330480733123754
0.304237403502658
0.316378760341694
0.29869073977805
0.318450436841828
0.298924163227167
0.339811144906463
0.336799308261316
0.33098680411871
0.310015647557118
0.315393059390549
0.310540714687533
0.324001536354968
0.31788737257424
0.322876609234523
0.322907274822078
0.326742840948669
0.330627610222318
0.326189773250068
0.326530240569985
0.340388223084722
0.348303496205049
0.342636857552218
0.321097224818556
0.327909508026459
0.314256642175173
0.326154110435421
0.324638662982103
0.325402315589017
0.305327117154618
0.316034833990119
0.301311385939602
0.320262210994197
0.328885340318432
0.308496382753033
0.319957734630288
0.299146884128614
0.296468438722041
0.297263760019244
0.291149368666501
0.282775421386677
0.285545856458074
0.286960519638563
0.284123224662584
0.280146016976788
0.275464006373823
0.277766531505616
0.277447620059129
0.282500669294078
0.273648945539781
0.276526181593663
0.269447556481511
0.273075254909709
0.270733758778922
0.275422775666858
0.271703361575996
0.269963147407871
0.290610385320587
0.292053858652918
0.294318649660753
0.277027313671394
0.2824095183616
0.27396139008874
0.268183683911281
0.272951158537556
0.268644879124447
0.269497643339786
0.267319378419033
0.267430793962024
0.268373196650555
0.270970033392084
0.26544286879612
0.269527431164438
0.266479144994467
0.269430927456739
0.261996186690448
0.271030986492206
0.2607496558185
0.268442599325116
0.264138767887996
0.279362808444902
0.263205732446424
0.272558473493077
0.266470861523933
0.264472579642846
0.266037670055785
0.266710966976809
0.266927201390177
0.266456122846358
0.262324696958144
0.263286797602389
0.264799745581532
0.264533263316149
0.262307063232846
0.260885211067255
0.260290701124903
0.261300419311625
0.257199416693017
0.258480912830438
0.250128448960596
0.250801697247529
0.250926470124855
0.251954141927429
0.248215069986076
0.246410787136451
0.23936948289192
0.242690308686153
0.234022683609476
0.239438840318288
0.230944342652508
0.232990318582634
0.229625675959219
0.227813583811792
0.227156988929584
0.229795081761396
0.224590896975758
0.225711913885606
0.225911374207731
0.226160579602655
0.223868521236795
0.222516195310875
0.221180122606117
0.223940110285883
0.221775688105615
0.222793719038072
0.222567914775621
0.226081984525439
0.224411623161171
0.225765066554243
0.225361334826021
0.228023317264803
0.228728138124875
0.230005208581797
0.230772978922166
0.234031164956395
0.232402853285618
0.234976454487321
0.236367697397889
0.236089118835484
0.234843995311382
0.238388107344651
0.236830953953723
0.238025852836944
0.24024888606268
0.24172326712961
0.238101032942235
0.238937113140723
0.237895553496691
0.240724219532779
0.238529335116199
0.238428734259418
0.236032592657018
0.238979736523207
0.236604914847751
0.237127544896568
0.235552724618384
0.234252102503139
0.233413437746738
0.236258114073357
0.232226295941208
0.231897389616515
0.230557828906133
0.231318686823508
0.229034515231297
0.22930659537311
0.228128297777552
0.228708779790851
0.226536458353958
0.226510226691894
0.224760734320166
0.22445044607389
0.221836189369301
0.222892586894879
0.221222964005633
0.222685772592426
0.21889093027859
0.219356983363722
0.217984402487137
0.218360737590796
0.217569881046188
0.217205752714159
0.216359628165829
0.216222977303578
0.213268842139365
0.213542940314163
0.212189007637472
0.212441918190541
0.210630693997575
0.210606787251764
0.208694237540079
0.204831097558328
0.206062065283229
0.206552669478352
0.201801867130035
0.203177436989713
0.199363434681797
0.197743856551157
0.195227295893429
0.195881267840266
0.194301441579502
0.196295924597289
0.194181617066965
0.193477575038549
0.193159906364347
0.194025979890689
0.19082699107678
0.194201906637694
0.192626134552732
0.192094332343735
0.191149489626925
0.190147341099147
0.188146113769269
0.1869014156341
0.184248218808293
0.185669786179068
0.181656316097059
0.179911462301863
0.177838284577518
0.178245293065292
0.172289161221028
0.171997755374378
0.172138912213793
0.171754914407006
0.17074954004526
0.170569670200588
0.172665486005198
0.175035986080001
0.179634771188928
0.183231842791655
0.187806148014032
0.19634390788445
0.201511736614285
0.209986691513042
0.217490803841953
0.227522759214147
0.236090906063987
0.247887694313163
0.25617173111103
0.268263063671983
0.278754398011723
0.289968513675784
0.298665946407243
0.310835179383847
0.320052609198975
0.331798965373292
0.339471584573588
0.352852800983054
0.358672540669286
0.372534964154125
0.381641533383784
0.389880525135241
0.398945194864421
0.408072886300728
0.413002023797749
0.421934784478283
0.425933627917394
0.436579343556381
0.439123396318843
0.442539804935258
0.449516216912805
0.451998519077831
0.451264452620311
0.452235453408619
0.454846725477219
0.45570678417058
0.457293985305491
0.455346760515605
0.454763645883749
0.453644978200941
0.453940908693946
0.457670831019901
0.454041003483451
0.45629534428677
0.457456523792217
0.4579221831845
0.460577496794428
0.463444409612867
0.464519358498634
0.46398925989332
0.468578574511578
0.477516874461649
0.480262796388317
0.478951609700667
0.486523727333612
0.493169184199248
0.494294944170692
0.502394396690122
0.509171987703198
0.518430064024439
0.523724961654014
0.535960540845445
0.537555950498447
0.548753077172031
0.557398679660872
0.562905466694917
0.56454721381253
0.569565728636036
0.573169249587002
0.573814579870441
0.577811950140272
0.585190802472694
0.580602796294626
0.575165238465269
0.575106017813288
0.574764661208381
0.574046784906206
0.569531409497761
0.567333236308077
0.573157115366827
0.572717566033479
0.574882224451858
0.583580988376515
0.592248415706107
0.602545761653657
0.60831475775028
0.615975916322115
0.627548229538354
0.637402543989215
0.646398057201454
0.65370610260201
0.665558669282175
0.675874959416328
0.686994891733336
0.697737930453442
0.705628203214171
0.718877543009516
0.727715453105269
0.744562067164211
0.75975253765353
0.757058150260524
0.781365827434982
0.791797144116679
0.806955826194189
0.827421759175724
0.843308542881123
0.856145579890402
0.877056930445104
0.89102142679742
0.90943510895358
0.907418608198987
0.925142652773301
0.938518465239141
0.952511883168375
0.959177414414906
0.968524877437761
0.972182394091103
0.988788387675595
0.986231591687564
0.976302798591236
0.985129840089856
0.980836990155215
0.971876053431922
0.973955596441275
0.968782018544863
0.971270240524699
0.959769556037529
0.945598410894025
0.959163532047871
0.960661892847306
0.949879767835964
0.945202164900851
0.953602401023664
0.949419433756092
0.954783821328103
0.961250273746439
0.959315776968789
0.973678544177194
0.985934739624277
0.999298313917196
0.996985291147389
1.0096536680519
1.03471244389577
1.0427178899569
1.04917149642421
1.06382082581635
1.06554752954999
1.06793588724424
1.067681509072
1.09250485327592
1.09767570953387
1.08896009629024
1.09839515753246
1.10636732754344
1.10588769454725
1.10678316606773
1.1070426861475
1.09222463349057
1.1062257181128
1.10268494770111
1.10387259134671
1.10193215888292
1.0990006758478
1.09619465257297
1.11032033820637
1.10454153586288
1.1067038037829
1.08271730493872
1.08051019892337
1.08067840351485
1.07693588621673
1.06437560091171
1.05257833143866
1.04230797521617
1.02186163121208
1.00106428992815
0.979582015638319
0.953304300713109
0.926123407860668
0.900543953989205
0.874172111762833
0.848618661023479
0.809929381107646
0.77723039093393
0.746283143181815
0.709223633613996
0.68327364617515
0.655911737939028
0.626121812671071
0.612210252912048
0.601830862723662
0.583026335409899
0.576200485538568
0.568397653699158
0.559595309075056
0.55857861442108
0.552088271843228
0.545651333082916
0.535257762202611
0.52599780557764
0.520648628284416
0.510122259403622
0.504394161838015
0.488309362660723
0.485369655111884
0.475954476805286
0.46500748386947
0.447225807182071
0.435289627920343
0.424833066644218
0.409980754221859
0.391236423983521
0.376976501213501
0.362492304553536
0.349135818720511
0.331785931026328
0.315592832874448
0.302722874678255
0.287752797781242
0.271128806284849
0.25910047746412
0.246399740326682
0.234207075694935
0.224331324426683
0.210251060688615
0.201769016283452
0.19379048271904
0.184662205018633
0.176414115642398
0.17077107766238
0.169516691132314
0.164627226921428
0.158508905871863
0.151459422995212
0.152483223257606
0.148178100368348
0.147212089632958
0.145036622768337
0.142112550229026
0.141159383595751
0.140714641999065
0.142199194094889
0.143114890921261
0.139221985302312
0.14680978677802
0.145253183518525
0.145320982000648
0.145569707939809
0.147430157046954
0.144510296577713
0.151131555686532
0.15067720343977
0.153159787445432
0.154464056893716
0.15123790740497
0.149678340544071
0.150108853299277
0.150727025399419
0.151179054267764
0.148603601725181
0.148665139073346
0.15024119441104
0.144525029813233
0.144291285671818
0.14411470723367
0.146638327048451
0.146081783642137
0.146816120001162
0.145962891672179
0.146590950705817
0.149760004232849
0.151672384277131
0.151059158451048
0.153794386455807
0.153120845081589
0.158641401867698
0.160228336603139
0.15986612196888
0.161878324517103
0.167269272747582
0.16300635766311
0.161860063158047
0.166334899594009
0.166402664258072
0.165675268234683
0.167573710338789
0.174483334183573
0.172918492471605
0.171094999748205
0.166920095582153
0.169301332618543
0.170302831055517
0.1682682869622
0.174862537870116
0.178824443875006
0.175574581116734
0.182757292780709
0.184157930822171
0.193045161284892
0.192786950308065
0.19542407561053
0.20150358304021
0.209922955061879
0.215364681522551
0.22302108167846
0.221118904659861
0.228416519745251
0.229047891621282
0.232687892946453
0.232436822730094
0.232858758197398
0.227161213686363
0.222384817835492
0.216264687146257
0.218975777946791
0.207852479682813
0.207136173559985
0.203690516325298
0.198586049845998
0.200376487392247
0.204168800564963
0.199906630738458
0.201074983711614
0.194082282681064
0.194168792115012
0.199290296474507
0.20031763659495
0.193129602351362
0.201433137212158
0.20109856452611
0.200136017988177
0.194033546172243
0.195183956617657
0.19117842683072
0.187644559577129
0.183919061794329
0.187650172486601
0.184360521659697
0.183354572740063
0.18159683570869
0.175524781165174
0.172790857701071
0.17538036113858
0.180747431612664
0.172775717688453
0.174968145315717
0.172918911925118
0.171501270221352
0.172577159600524
0.172392437519523
0.166961401072808
0.167681084182428
0.166921815719831
0.162842716486959
0.163764777755283
0.168784354081982
0.170582971055239
0.168174324147991
0.1695164202892
0.165026164055299
0.161536571119531
0.156070563747734
0.157744759826202
0.155488178545036
0.162126194699826
0.153263766944782
0.156865417511393
0.15612485764928
0.151219324319243
0.150365874134839
0.148713488940798
0.152615928457637
0.151594732018833
0.153119936902156
0.152000391388123
0.144739993867725
0.150542860182722
0.150867561203053
0.146691296168093
0.150818316617597
0.151944465081328
0.145417906808593
0.153397333683132
0.145809170884516
0.157852685709804
0.148612921427409
0.153317923823643
0.151563471734722
0.157155238590466
0.149942991437679
0.158012313011621
0.157627051864965
0.159486880379939
0.149665826978587
0.159621778143333
0.163822595583363
0.167534873550914
0.170791128672261
0.1644495523821
0.168833909584092
0.180575964938059
0.16978054246226
0.176899513386807
0.179347363991651
0.186084359254175
0.188731502298497
0.194181653490834
0.180788633388557
0.191593816027908
0.203404796030458
0.210308617331179
0.211035646690759
0.214065050923482
0.214747328921547
0.232580517063697
0.236432187301308
0.248078952132775
0.251611446867238
0.262987211252264
0.266429019530427
0.269181809028813
0.280401304014582
0.294946171349034
0.292592099077471
0.295075967877236
0.278416433500679
0.300532961205034
0.299492123621547
0.293718627147265
0.288414461283665
0.287914680130834
0.289230190381056
0.272712222790249
0.279595386570625
0.291968017546513
0.282237804585035
0.281025583075656
0.267759626147607
0.278652725496572
0.283983770728431
0.275062383263132
0.275487059686097
0.281105360954691
0.263271071877835
0.267098883475967
0.269370399168974
0.262697371470559
0.262370554233433
0.26659279516422
0.257602702458363
0.256358292642645
0.260208726226514
0.248795454474429
0.243000276250545
0.251549764061398
0.239110340545126
0.233122507623269
0.241637629023534
0.238450746024609
0.248111372684777
0.257936555600644
0.243774068359882
0.274988506613846
0.238677669534473
0.251519339797994
0.247011530107755
0.255798114264274
0.24457265194028
0.258703098729851
0.250005472098704
0.248430703247558
0.25981685974301
0.24601901110101
0.234955632209797
0.266337096026279
0.244398750226275
0.250985366349988
0.23854135514904
0.254195853674074
0.258813091637603
0.253259319749096
0.2460619307029
0.278087270564266
0.266651734218785
0.267238167323243
0.264516524522274
0.271144314126645
0.267520903174607
0.272403872400832
0.273850061349827
0.275017640079153
0.258324502868522
0.277380353199143
0.277720187420414
0.307521469602191
0.292521986013338
0.311491458008985
0.302714580435623
0.324295161314485
0.289583866940162
0.315801292520746
0.335886725194588
0.344269210383746
0.352135992033561
0.329498806855086
0.313863917693256
0.334852495808689
0.358697838857125
0.346609633937982
0.36337181585796
0.423690899519128
0.355127550527908
0.401795500483858
0.374673510325174
0.352214359618669
0.383500477588397
0.383470520040593
0.385262776477259
0.349593478649836
0.333721173906442
0.335898976386117
0.330489165665876
0.329659476342798
0.29444319528378
0.350081915886473
0.345787065466751
0.371500540832897
0.368769706967075
0.37694643486345
0.317815972176235
0.310687903462827
0.325316943408384
0.320785356286457
0.335201703633673
0.340467959252723
0.302827983088034
0.319659222832231
0.29855558420737
0.294463016079983
0.329955983008511
0.345749487264836
0.251725423488879
0.373112033063533
0.355442723725467
0.310268369949946
0.341479189898375
0.373238946200894
0.354290984177048
0.394281666461289
0.530135019180143
0.289552192307259
0.32680626471767
0.397426941819626
0.331681161522527
0.369427546027324
0.480601558000667
0.569232310207016
0.395688695560178
0.434816130694631
0.391491051132119
0.477746980003139
0.292264115768031
0.452702224126377
0.389240896428628
0.389454458806809
0.354418961862919
0.317708841616314
0.462158026579281
0.533036139273832
0.460132625852235
