3596
4000.36533379555
650.420452594757
1
2
2
0.0952072846405081
0.0984490516140104
0.100214799006248
0.0944915554174805
0.0928941691835975
0.0950352290381524
0.0937253918927013
0.0949202459964678
0.0940591907052891
0.102587245327146
0.0924998184532708
0.102551299796749
0.0959353122297162
0.0976244292061973
0.0932046550931891
0.0939504720728921
0.0877826106719752
0.0898848942623143
0.0884370081001126
0.101064443065191
0.0910415029346269
0.104064647663765
0.0968819259403371
0.09855334545643
0.0961101857895176
0.0952493337970693
0.0921046529873666
0.0965703665001419
0.0935438848318112
0.100163781628348
0.0910785297300124
0.100855446320065
0.0988251970437327
0.0928308691488706
0.086092096524005
0.088927944087387
0.079579565438965
0.0871829352815391
0.0938653033959869
0.102876923100592
0.0965694057438445
0.0926356350977211
0.0999778279100171
0.0910650950635912
0.0973216432093851
0.0914092970535972
0.103757341252044
0.0923840131829129
0.0946902644571618
0.095433171080558
0.0907282754466459
0.102272314237487
0.103123042354779
0.10347681169403
0.0922413599245407
0.113806200311576
0.0922125123833176
0.0962352268074377
0.0992271844714575
0.0981908273608488
0.113331475848881
0.113808664414054
0.0897360880732843
0.10139551148427
0.0921757196750302
0.0906644999133804
0.0900134098420356
0.0971016756421548
0.0943382921235089
0.101510553533862
0.0883792030430664
0.119320257689275
0.101627655399107
0.0960102794759287
0.0988002931643685
0.0994143462346851
0.0814234485938669
0.0868912493274542
0.0775779927546671
0.106240488733285
0.0996003910160074
0.0965724344923276
0.0849304251937876
0.0932852701610196
0.0968287671865584
0.113487648997524
0.0792386344308893
0.0940246699549744
0.11164768170803
0.101108607235458
0.0819666052344037
0.0927369239102119
0.0797905570978619
0.0922803946036412
0.0785143003792433
0.0916305306909065
0.0862491688205212
0.0959993236143285
0.0787125149061559
0.111749226463422
0.0951141821013555
0.0980703123092112
0.137563204803086
0.0851837270822908
0.152821749483851
0.108051198644942
0.090029896068412
0.136946054191145
0.0887321126968743
0.107188060920539
0.0806960929804584
0.102091012665528
0.0885280672555123
0.100358013304132
0.0804859212840767
0.124017527366815
0.114095097687904
0.0955049814148155
0.0869073160038334
0.0937294386027077
0.0713740106182601
0.116996323585019
0.125149153034452
0.0895104068855039
0.10773672193967
0.0949751704571414
0.0920200685154522
0.141624184622729
0.120269441176197
0.088443770249337
0.0805282738602974
0.0857015466431221
0.0854872102459689
0.0817298300944308
0.12898723933342
0.0928660517667159
0.0924495243821471
0.0901673764560516
0.133344985458034
0.149919765404293
0.0854573272433108
0.0883484431543382
0.0797344494850767
0.098624702882112
0.128383650447936
0.0997577383532876
0.0822952452481231
0.107426746416272
0.0994270190816538
0.0828401439892047
0.0878982638550715
0.0837746704113377
0.105746720173957
0.097802971147047
0.0602882067962219
0.153775918490888
0.157850206272765
0.108055497063586
0.147379247099973
0.0797837138541173
0.108105939956213
0.083408405369744
0.0968185965568133
0.0787649283942315
0.0942202268018467
0.0768413132454502
0.0933582348784808
0.111796401833262
0.0922225696008843
0.0968701041180223
0.110425333177272
0.107950231561783
0.092176298954615
0.15349855939321
0.100471171775268
0.0870237611879104
0.123309900247154
0.0955304264513129
0.0755800457710324
0.0912708248198641
0.113145847963445
0.0793432706160532
0.0922866264140492
0.0831165486123874
0.0928847929637014
0.100818368507356
0.0900058106995893
0.0831450942936571
0.0951415120255144
0.0722302480634336
0.1175025190694
0.133574135394083
0.119219353315816
0.0842631393515823
0.0954501195296117
0.0636121303780099
0.134827537653777
0.11192520464169
0.0865641014466471
0.0829023623240045
0.0720146884470913
0.080066849455007
0.07979571617671
0.0762786113734124
0.0785390560632843
0.0608811277166963
0.136019415532611
0.0954791205362737
0.0877225279852171
0.0780597092638687
0.102741012755317
0.0894862173062745
0.138633589132047
0.113577709930303
0.083594694678293
0.08824944607414
0.0687963566476927
0.102440298536888
0.0985046569836127
0.0787977651463897
0.0821378264034642
0.083511105991229
0.0804671501354403
0.0794191304483695
0.0817116945315165
0.0799928724246035
0.0784462292926095
0.0803646856783792
0.0877586144344358
0.091789719535277
0.0932321708853043
0.0797793322893636
0.0760003947232767
0.0832274963259502
0.0828183423282486
0.0951889118933743
0.112094957205489
0.0898387866251477
0.0893938079216744
0.0805627164645762
0.0826708485179198
0.0742511315245823
0.0825772298326844
0.0790991425151071
0.0920875047580845
0.076242655109307
0.133755118350743
0.0830517920298431
0.0948561583973985
0.0719652063939577
0.113885531116502
0.0914290135816806
0.0899479147418766
0.0830287761702089
0.0794855840913709
0.080701909864143
0.0942294940033274
0.127621154953486
0.0855224324151599
0.0895043801079218
0.114152024075543
0.0947591953526319
0.0762895163345961
0.093806650105439
0.070657525863189
0.175756544355501
0.0981198086507462
0.0909925016270841
0.16300252456224
0.0985810344843632
0.103626699446492
0.0947982359508402
0.0778099424691542
0.213439364284389
0.130459259142633
0.0922485112064036
0.0881904031665652
0.113181976968757
0.0835082147341933
0.0976124877894303
0.0913301154858591
0.100777311002748
0.132718746001763
0.140821941983325
0.169771986459372
0.0744377565822076
0.129458311873493
0.123661667441106
0.093069461831873
0.0885706881608474
0.0905036457010368
0.0818983595391743
0.110589210524753
0.110015758946715
0.106347109188359
0.104317803068369
0.0899723354350632
0.13232624879464
0.0949133946084222
0.0890718919854454
0.0947027073107914
0.104129284321326
0.0781879488330918
0.0945724631362412
0.0833914148791795
0.101464057723005
0.089801497260665
0.0967238809651359
0.153554138917639
0.10985234090073
0.097284208753058
0.131511270603546
0.0961628723338808
0.0928951128953282
0.0907736229274928
0.100007431894679
0.0842468147878368
0.0886644399632108
0.0850404725190046
0.130394324479035
0.0962885354406751
0.0854498620770279
0.0917600857369219
0.0892379937249786
0.0929949019735805
0.0982816258104789
0.09204452352556
0.0937481781828144
0.0964159004134057
0.0931590811310822
0.118621017775587
0.137393524898328
0.0871980821815078
0.142907258581799
0.136857154010738
0.0985784156048874
0.107450950659201
0.102052247234401
0.105138565843562
0.0975681477327628
0.107298972133621
0.0995790171159288
0.111976620716086
0.121136819999783
0.126169801664623
0.111541323004287
0.133404059232524
0.182859045344304
0.189072130137988
0.121542702045049
0.121252787270766
0.111981165432158
0.163025854703617
0.156999843420234
0.15210461284057
0.154281248548767
0.116933428657035
0.131835855452844
0.112531440414307
0.13104130017598
0.123830133357088
0.132421017652819
0.129200089872664
0.143160507802027
0.138443541043177
0.146276150152755
0.133479235455332
0.152860140544459
0.182171991934141
0.157007719902883
0.143406166615997
0.151041114893848
0.139021327376966
0.197452602113751
0.199669333691618
0.213707683703406
0.213284110757844
0.195814276460371
0.212232103353948
0.159473136220862
0.180794675676867
0.163473150660711
0.176677453789237
0.173493076290395
0.184092994535764
0.176425912187464
0.183735233965602
0.181363328406211
0.192934151501325
0.178390628347849
0.19061470017011
0.191655324888992
0.225225455587783
0.1993070161007
0.209100069231836
0.193965108655271
0.228264969102833
0.264182686511774
0.266163332826888
0.220909671711815
0.214109317036906
0.216420160690317
0.216300912462513
0.227242423077426
0.220381184508867
0.23987994449285
0.243271782416728
0.276359387187168
0.267502447315329
0.266189470261153
0.263358433443464
0.241111779389159
0.265171707048463
0.259193761705576
0.272011660821788
0.298738657191123
0.265583944868208
0.260694350966951
0.299609931531183
0.297133114363458
0.287754775168428
0.305013936193443
0.273166076591813
0.284783848466283
0.282235860489541
0.290226587136661
0.288031393101237
0.318530238081631
0.300653413092096
0.301846140677379
0.314351850445594
0.309168115976436
0.312891926711379
0.343829977401377
0.3291274364523
0.327043368795251
0.346510782399147
0.317867205096925
0.334108942539707
0.323316039842731
0.360303913752354
0.377948502505208
0.360662188803566
0.384967362532794
0.352675349068436
0.360470517056375
0.357689078906264
0.354960579493436
0.355175472614763
0.380954233867778
0.383093855934399
0.374129560430096
0.37908886695156
0.398832585737138
0.381061051790449
0.385656383010083
0.387076967794805
0.385647236248535
0.415430771532645
0.402664746949547
0.406051898475007
0.422454734346834
0.455279692711782
0.485300648476621
0.452850697153123
0.463955571124359
0.431215363139591
0.434498618177687
0.453327094446189
0.445087475297415
0.432929582061761
0.485117670048937
0.461113703425538
0.465070071046206
0.474020368696496
0.46297138589878
0.474147655287386
0.495152347798752
0.496667441248388
0.498766612238489
0.521527404084894
0.512836480667976
0.504265796746757
0.520937328456033
0.517834081402647
0.52532597595037
0.521058030753254
0.561300099744812
0.556760606864502
0.53126541065719
0.535177234882248
0.53663443304052
0.537770899849362
0.551870241552854
0.55260135230308
0.557019203891218
0.58407753403444
0.57637080628854
0.565692988055101
0.571062779889476
0.568815005288152
0.589317305777805
0.609239023320512
0.604772058367692
0.606783966165133
0.618909122209902
0.647030945845441
0.621453333175442
0.606710403153922
0.636226435044215
0.625179021703246
0.646031634732017
0.62642576410644
0.626682522156986
0.658162366651451
0.68284498401398
0.669519278987954
0.644410079935566
0.660685939709695
0.649589632580434
0.642154890478409
0.678666946126259
0.677552197654762
0.673679011733503
0.700276693234421
0.736069527010245
0.709347118996347
0.670582727826391
0.709068512212522
0.739573481306022
0.712517758162151
0.729941312354917
0.748970928109622
0.728033538445388
0.72720688083344
0.733320944432195
0.759741505342058
0.756958399591736
0.723012456124087
0.751599626955913
0.776931587546354
0.788334491495221
0.77447374503897
0.779976072308057
0.799710985715115
0.814105876491014
0.815900258647534
0.798332952560415
0.766614341550469
0.790461249721873
0.827991736475811
0.851091081865578
0.845813588052527
0.836770562882285
0.829391134190308
0.824467399979341
0.829569440956082
0.844778791971922
0.858393783602614
0.899653593634605
0.864612621188453
0.861320479748028
0.872720371485511
0.899112244516334
0.859891650012632
0.872659280514578
0.883944214168861
0.866737997008895
0.867903599958142
0.842530227452285
0.888902577544973
0.906390306153702
0.890561486542884
0.936230492757481
0.968495290925312
0.96162085451635
0.925352923948849
0.926932283352404
0.965071428993127
0.98555146228041
0.947923886839112
0.990599950868359
1.0024881870732
0.933255159030913
1.02385813700199
1.01592619557276
0.965927488402994
1.07814937518212
1.03153329455209
0.935550981119971
0.979283717654377
1.0320876200746
1.02940996922159
1.06059574461583
0.996786229317403
0.995020328421444
1.03400293004778
0.982098832300253
0.991910107960749
1.00937218004559
1.03165954377422
1.02933960853349
1.01091389873028
1.01494062146812
1.0572601507881
1.07596818286267
1.08101881932997
1.1207012748189
1.07709571692914
1.0727757396777
1.09309078442911
1.08443974349711
1.1474599540872
1.09921678224008
1.1025016100452
1.12172275590228
1.13085218465158
1.15443957334268
1.1538425813573
1.17253444543096
1.15462972862587
1.17254639123449
1.14185377828576
1.11526307529185
1.12658500888918
1.12816602356903
1.11470411165445
1.16008631675236
1.21958970179297
1.1406040445654
1.17070426971235
1.20055431046403
1.16305073804619
1.14549417139032
1.21036246159653
1.21123478779178
1.1946673041271
1.23060283555082
1.20096725767253
1.13706882735448
1.18997155766096
1.18822366275393
1.19786061842846
1.3086833657033
1.32931176282603
1.21965704683732
1.26943134287811
1.27608484429425
1.20061176747453
1.21487985774069
1.23510659175628
1.2363444056479
1.26449962456472
1.25017111405407
1.24890923507911
1.22154484676903
1.23734577513514
1.29325675789783
1.31896429159839
1.3302396942487
1.29314834903642
1.26388192263679
1.36707093902684
1.27517607315102
1.24516228163776
1.31281649795333
1.33591022315805
1.30109340257155
1.28763612071677
1.28274421294627
1.23055093046802
1.24518713189889
1.29550699879589
1.33453454325694
1.35752439644709
1.30829873881319
1.36130304076062
1.29045639765923
1.33311517232976
1.39511571322233
1.37221708206034
1.31573323475152
1.4202238560195
1.34683898337105
1.30516447671719
1.28758982008915
1.30935025409461
1.32298493693555
1.35474336313526
1.38778396854956
1.42015330965915
1.53747121073554
1.420984946968
1.31002861200524
1.42007729685926
1.37308628482121
1.34570816721245
1.30660807485566
1.33740802258465
1.33929416723934
1.37222775876652
1.36198536055401
1.51475281105832
1.31994573922804
1.29415331044205
1.41948548662482
1.35022526317682
1.25710415365543
1.30615039054562
1.31790966302147
1.39079273053403
1.36557734297623
1.31473054273842
1.38752916741226
1.38271062428046
1.36868394958135
1.43798594639888
1.33467701760979
1.46006593931408
1.4681444187071
1.52409803208038
1.38985975421571
1.29178243124571
1.3553610982832
1.37161549877062
1.33082058476473
1.3615178937354
1.3708454155426
1.33960505869599
1.5339473423527
1.4760576067048
1.37148508109228
1.45811679906412
1.42416575411479
1.36520109315154
1.38449711170304
1.47056679913911
1.41200913544194
1.35245329869664
1.36088554108492
1.39178682410262
1.35888361038465
1.34758752286163
1.32246133204959
1.43881946779668
1.407476087418
1.38453464425897
1.37093886558291
1.36971332707427
1.37227033817488
1.45321025189534
1.42581540636444
1.43468229980073
1.40061337168091
1.42366358186516
1.44130531631652
1.37883811166553
1.36598593188058
1.40832078777422
1.40514484525573
1.44551346710969
1.39610900678603
1.4303607495915
1.50324798106414
1.43647492482555
1.3267050958421
1.35590422664471
1.35000030841195
1.4897423659329
1.45488675102457
1.4219698537399
1.35154961313524
1.44664083474386
1.55780026513114
1.41472272653279
1.32826588753102
1.41681037560452
1.35511942099027
1.529831060878
1.52226179977666
1.35499575491737
1.37673875099007
1.35723186911888
1.36299940409435
1.51544694803798
1.4014074160961
1.35946645295958
1.43167327269883
1.418627862842
1.35785939153773
1.39561991405281
1.3576053171799
1.33133851729669
1.3563346213241
1.33655891661812
1.33870851497066
1.35922501351202
1.36008151226234
1.40993040903887
1.38552969743376
1.35309386695441
1.30534387447273
1.31110895662332
1.37353227856091
1.36995006142934
1.35740034821296
1.31116981880672
1.35040778318139
1.36809777433678
1.32266465869623
1.32951465923168
1.36379495790494
1.3728472261222
1.30927980094478
1.31041271233125
1.31039546688546
1.36006239083662
1.32913324551541
1.38117016958337
1.32751102967012
1.30072959304766
1.30755879322293
1.33942045613981
1.3583917603638
1.38843796892379
1.3866174831995
1.34578961793833
1.28801641124667
1.38582886673171
1.3194465848841
1.35775413542405
1.32341753121504
1.23934722803266
1.23618447890964
1.24826252967012
1.25141887953971
1.34214138511152
1.27110250676904
1.32592846693013
1.27242344328053
1.29447207345966
1.2699057427371
1.33062222287237
1.27492318500871
1.22981492664903
1.21122211409934
1.26047875517301
1.26169474818468
1.27368120695062
1.19298685528359
1.21665991104185
1.19918042716045
1.23633908205898
1.22534977070558
1.24458432802944
1.25772535773095
1.27065032741697
1.16747694974968
1.18954441246386
1.18411471229294
1.17185241689046
1.16437665558963
1.19702295577934
1.1719847697901
1.21359884260612
1.16221554834412
1.17230528973108
1.1303786291074
1.20687278671154
1.15665933589436
1.1886971698881
1.18522938269129
1.17399040422758
1.1326341789385
1.19456317423504
1.1384911905743
1.12132902346731
1.13867884145217
1.14068579266295
1.08635284426248
1.11309352817262
1.10771633040975
1.13462475031707
1.08875443501275
1.08699762058585
1.10807486186207
1.08644123041002
1.07131424793799
1.08918371153669
1.08343876324258
1.08634991111117
1.03572176587295
1.0709722807891
1.06121946401733
1.06883044460919
1.06462806346857
1.053390538815
1.03987736529498
1.04093807267885
0.987608884967693
1.01497096007186
1.00939459520127
1.01589755048069
1.02427554398559
1.02344755232802
1.00910928455768
0.993498364677064
0.968020903031216
0.977312954786567
0.962019999989442
0.976330908809322
0.976122971131976
1.0007057979795
0.953292875104592
0.962335786367192
0.945788715604308
0.949442703436759
0.92314083484364
0.952972123138431
0.923286196645763
0.926384249184119
0.93399917667736
0.922674356643943
0.92559508003342
0.932741808601855
0.919361117930787
0.918982673114811
0.894228959094392
0.908283349117668
0.895200320009084
0.905291895186425
0.898978624013319
0.885479814249251
0.880458807386221
0.873766830535476
0.849624695796658
0.866440585795238
0.861646057320037
0.86199145465871
0.845493160472487
0.864376571379673
0.843838264270232
0.836851450287574
0.82148542362001
0.842165322749068
0.810852386271169
0.801090473828052
0.809301517598095
0.83024247001023
0.812117671357882
0.830430328705128
0.812104660067555
0.803367909245824
0.794374630230964
0.804325755578603
0.789469972778732
0.788546995398005
0.776928486303285
0.780323145603601
0.788864445748108
0.778328487564676
0.752988905493988
0.77380543820944
0.754992252723163
0.751164254337014
0.73521230954544
0.758073088366709
0.734756532547098
0.749805182279778
0.735708700576103
0.73146260088577
0.725219004244303
0.738078897174473
0.724305089588626
0.725262337245986
0.712781427448045
0.709200672243001
0.71588461255449
0.69418727790264
0.683804161124508
0.707399848049786
0.695292066574154
0.69377692043129
0.693203983413029
0.689768554803203
0.67217866637056
0.685081913923613
0.672634252457282
0.660497720377105
0.663448442199967
0.672536273297178
0.649943701396337
0.664654358932225
0.647398803210194
0.649754691149291
0.635821605364196
0.65202961549523
0.63595090958579
0.644892272181251
0.628020524018062
0.633735454182742
0.618037702617621
0.627324842436244
0.624687935114036
0.628132909939069
0.610658492883642
0.613332789200037
0.604119004196027
0.600206148658302
0.590877154559857
0.601028885092524
0.596942697363523
0.604343911151371
0.589893294718706
0.58921937182831
0.587451751251428
0.598254838783687
0.573705948616331
0.582466926522578
0.573887373931513
0.58675114196909
0.555965625432207
0.565617514008144
0.559952142700612
0.56151827737483
0.561470282324353
0.555295710202327
0.549938132770268
0.562763613558821
0.547921184479456
0.556736007913885
0.540142871986519
0.549957162356997
0.533848059369739
0.543925098701578
0.528272449764744
0.534737799663994
0.527309741310091
0.521641780307097
0.524557670560538
0.527248898736676
0.512679812991305
0.523879222130785
0.520410650181849
0.52156120068194
0.500870914552095
0.511634519333162
0.50983317192678
0.507815264678791
0.491905262872211
0.501021418010279
0.498671271509632
0.499126572923427
0.484581217865456
0.498520199695087
0.486474415055763
0.491122931318088
0.484102689236602
0.486526180180906
0.480227339112509
0.481983525712487
0.483295300073671
0.480084768900576
0.477535647833148
0.476607200113524
0.466733719459092
0.472626697630006
0.460589315788026
0.48532409812896
0.472626497241905
0.46708989780924
0.464539140146611
0.461343644066285
0.455900448053977
0.462325522673079
0.464586544711838
0.466625279710634
0.447552613361459
0.459840024816565
0.446996094319311
0.461510992130057
0.45470680044161
0.461540415255217
0.45366554807656
0.46873513709253
0.460986117725998
0.467797495966289
0.457074426053963
0.457957708935479
0.453909608973692
0.462575645435411
0.463753846961759
0.479515943175651
0.461110994014085
0.468450364806882
0.467347101263925
0.468383409340214
0.468901200466668
0.478314377857902
0.460462622645147
0.477374891626974
0.470569581553591
0.476338664737798
0.475285139649166
0.483625726256602
0.472089087405514
0.488322914009754
0.478940546267837
0.487746097807945
0.482653088267177
0.497707829643781
0.482227785643206
0.491158488781746
0.488811758431904
0.494141473834194
0.493210771912985
0.502169290542972
0.503431024415308
0.50515258350407
0.501996809908056
0.519126854039597
0.515856031733847
0.508309602593265
0.522040979511022
0.522156954194367
0.523133446556203
0.534054748790905
0.527231015178185
0.538833095755935
0.533163689687945
0.549248559201229
0.547425999687364
0.562596808217397
0.562511663018581
0.551833848795128
0.553517566061074
0.578935331063948
0.575165969843541
0.587955076592974
0.567490039189453
0.583506474426728
0.575599236063254
0.589633375920335
0.573685850521048
0.588606732406295
0.589846897907397
0.596781604126567
0.584172541256726
0.600519300116131
0.598489507286631
0.59368503152651
0.604070803894813
0.605932821930605
0.600573744373197
0.598067123856233
0.593805094838511
0.608664046475159
0.594257205466751
0.592011874769731
0.589743086308621
0.597631372802088
0.601780237805709
0.595696540617525
0.583544416791045
0.601472410003515
0.56516976946217
0.602699317292484
0.585681713266391
0.595618957166263
0.582361129240443
0.586234370529971
0.588575261914993
0.593329324672345
0.584529582161107
0.59258225093852
0.578348724431814
0.585268793194742
0.583219118885257
0.59726656538459
0.584809794859292
0.593025319730518
0.583348779046677
0.598636224636688
0.576597387788228
0.582611469294764
0.588799417482262
0.601253195510624
0.594423218611441
0.593384312187862
0.583117901332926
0.596552074359299
0.586287320228554
0.589639007639299
0.587650784162525
0.597137349874767
0.583437295133445
0.594251826909129
0.577470714737348
0.584848900651649
0.580579392753728
0.586864229371812
0.577776501591014
0.581450958632822
0.577522939860537
0.589298524413925
0.576641191919363
0.580099933079326
0.558085093180548
0.562073798677663
0.570812924380253
0.56543752754711
0.549793187056218
0.564344126162745
0.555412635343439
0.550692004940576
0.545093719605865
0.554958186282635
0.542865127139547
0.54973699778186
0.539250481126133
0.535605009059883
0.526246887824196
0.537410695610707
0.521174840735861
0.535415886756421
0.517841523104653
0.527230106018291
0.503839601929062
0.51362298327789
0.495916951464276
0.501975493658702
0.494228717915878
0.504886858274625
0.485691713827345
0.488576915540892
0.484662216907268
0.48060178983691
0.48028185997664
0.475126837507081
0.466232228927134
0.465308343294641
0.469954485978521
0.468368802277952
0.461936901191999
0.459609020443015
0.4505358067862
0.462657187953336
0.44712867787459
0.451038474045909
0.440127246206183
0.451689525935697
0.444704872759414
0.442098116091925
0.434289270713077
0.440092117467009
0.434618495109224
0.437446710060748
0.430356090543546
0.435930987649299
0.419078990547798
0.430145549568018
0.416008446287451
0.424419987451846
0.420883165868142
0.416546580011804
0.410369561335901
0.41204902361321
0.411382729317681
0.419202538952711
0.405604018653314
0.409511443667716
0.396764171447059
0.413212294082786
0.401953027991054
0.401126636282219
0.399309106814739
0.405812424639278
0.395945823749641
0.392514028672646
0.393006887996468
0.392951854709946
0.389432408741437
0.392568242099695
0.385920396495505
0.391393079501974
0.38633988099034
0.379876051751855
0.381921743832835
0.388771818626297
0.379620238139222
0.382908959549966
0.375895805271654
0.379551768813745
0.374986195299781
0.37589569987798
0.370347417880678
0.378160864706166
0.367632931165139
0.374154276563318
0.36803254552416
0.371947562386042
0.364157353802144
0.374409252930403
0.360047029093036
0.36263280181138
0.36126960324866
0.367589982173572
0.357890159656313
0.367849824650104
0.356336898631854
0.361331997756068
0.35960653076043
0.360293380601242
0.352486269867976
0.359198086781257
0.355695892987536
0.358539991190257
0.351111408773336
0.356305818929896
0.350151588994446
0.353745099807744
0.350888346120874
0.357147276836424
0.348047905122062
0.351476063665666
0.341359381890246
0.343743401262671
0.341421964226829
0.346489279812118
0.337012960225375
0.342190326892557
0.343738255655151
0.344221090037149
0.335055203709984
0.342471296564811
0.341119704805045
0.336355057370819
0.335643801862623
0.342598145048374
0.337092886365081
0.348273823721603
0.337576848085889
0.336278276970056
0.329500271583958
0.336663105892067
0.329680036110947
0.329729311281542
0.331773858134191
0.33611452028513
0.330646757507121
0.33068154120941
0.325529514561435
0.33055369896324
0.33254272898708
0.32663436164457
0.328935424445953
0.33371401790986
0.325567919576264
0.326971575738412
0.3208368945305
0.324472713385275
0.326967923882881
0.322534703355535
0.320597018017505
0.324970094498294
0.322645265687095
0.327096025504673
0.323402054752129
0.323899631843488
0.324191875925243
0.322360706258631
0.318594093232521
0.322704728913854
0.317719454712058
0.318097055574635
0.318182648298439
0.323352508089771
0.31483372714755
0.316482523130635
0.311988305389507
0.319834162532572
0.320546325029914
0.313232397539359
0.312327506215697
0.316269818965548
0.311469758116807
0.312468782253606
0.308971652491822
0.315952172630383
0.310313104340635
0.309656128242169
0.309316621815917
0.314217717237936
0.307479258480533
0.313194144908223
0.309489115869384
0.308558789120255
0.303174401207658
0.311542413738649
0.304466170106588
0.303376727446328
0.300311166231489
0.30425826862111
0.299825518247294
0.307453545768066
0.297802550791418
0.303776922317828
0.293894460509829
0.297557523322041
0.296141056182689
0.292646431387284
0.295162753046803
0.294552329822264
0.292192939095956
0.296258641063285
0.288200414183872
0.29196372071416
0.290932434882881
0.289505639362188
0.287172825716266
0.292110305908706
0.287163353732553
0.286754283571691
0.284136003948673
0.28999792273852
0.284453992780295
0.284953311403627
0.281417879939587
0.282048221004625
0.281731782828711
0.280890256651848
0.27784412531307
0.281557057247489
0.2808133762319
0.280851821264756
0.280054795027338
0.281226964198312
0.271289321407578
0.276242950984299
0.276999209924527
0.277377084733836
0.269721243004064
0.275809752915316
0.270165273482596
0.274209698027679
0.270976665971164
0.272147571738657
0.26551799175006
0.268641238062116
0.268244167331537
0.263305500152191
0.262224786058496
0.262172184661567
0.260868153941169
0.266822967850586
0.258930847692495
0.261218242763923
0.254742531677453
0.25785673835367
0.254590497819224
0.25972129459417
0.257418373886471
0.258980816722298
0.257155725830998
0.251149678641836
0.246909790669704
0.253839809748075
0.249466084703368
0.251553350214654
0.248955300683323
0.248002380483775
0.243903519230199
0.24569200496314
0.24474548016746
0.244955686083443
0.240976623161472
0.245136855402096
0.235580394354715
0.241378662606363
0.237137000203408
0.238618408163469
0.237098008806253
0.2384044036802
0.235527455015603
0.23774992212093
0.232380770572356
0.237488959692927
0.234780622038938
0.236871802520379
0.231310313740371
0.236341973048599
0.230235581698249
0.23415336186753
0.231755966208459
0.234409513916112
0.226368112688495
0.22801441794313
0.224254767633959
0.22797477881246
0.228058264339412
0.22923724255381
0.222983570610337
0.226082179816535
0.220298745472405
0.228598490402745
0.221790238967166
0.226103377168767
0.225152857235476
0.221002661358401
0.221680339445534
0.219594607167925
0.217294897070818
0.223080235573203
0.217068189717856
0.219128799091715
0.218017153247641
0.219236876375413
0.210991673724566
0.21744219625712
0.2124689641723
0.21451593012975
0.212986115947533
0.213264329855508
0.211105016821963
0.215342025578487
0.212061328739793
0.212663614087957
0.209640791635111
0.205478849488649
0.208095705818144
0.208939793154555
0.204393117443489
0.210717465484924
0.206861861947239
0.207716929678364
0.204882488912676
0.209597043000262
0.207596063755801
0.210806256721535
0.20517667782801
0.207915725478762
0.204169724901832
0.205796042915557
0.203617016903845
0.206292881659015
0.204692036437445
0.205892938585411
0.204277073259499
0.204458408518858
0.204601666861607
0.20248650116249
0.19763585969707
0.203642013282631
0.203601888488465
0.203243601062227
0.199889377520416
0.201160260153574
0.194572814265648
0.19716708320939
0.201368376592766
0.200024686927226
0.200730556092531
0.197304571148398
0.200292764487998
0.19731669599013
0.198575959063196
0.197558375034827
0.1968483466749
0.192882712293714
0.195551282671719
0.198258880111216
0.191501503668374
0.194875568910923
0.196613337294528
0.195939755445314
0.190761372189028
0.189702668814373
0.189391425220305
0.189717157489988
0.191449195613839
0.190813438433653
0.19119724788051
0.191645727268761
0.189607330865302
0.187915020675252
0.189120672552157
0.189949052011526
0.18714195284687
0.186035851441454
0.186525269334098
0.186112564220168
0.182921234851247
0.181740984115322
0.182075891249259
0.185286153453078
0.186160113404443
0.18463490618541
0.184580733906507
0.187494160834155
0.18579144003557
0.184523190410293
0.181277084861951
0.180343531744573
0.182841210694906
0.182092558870401
0.180168119611985
0.180674531108078
0.18170434051393
0.184269108324253
0.177369993080233
0.17748895533848
0.177589669570175
0.18082203140006
0.176331470041306
0.176800124282591
0.180718590506189
0.18065705638443
0.174906864514266
0.173944628044355
0.177057072399491
0.175790427877531
0.177337063134136
0.177924072463167
0.174455111372604
0.173871187051652
0.172506976874957
0.175536537897964
0.172074866748359
0.172181593616259
0.171774691913401
0.171026964147805
0.173221153433967
0.16899200036855
0.167725551305652
0.168151883990035
0.163886470606234
0.166839508353622
0.16667805706065
0.164648474662739
0.165442255202943
0.166894879558785
0.165678744527846
0.164732300674721
0.162905206686639
0.163847054801601
0.163333203625125
0.162499833343648
0.162088536583706
0.160228454282244
0.157949010614806
0.157559388798239
0.160063989121892
0.159774391854566
0.157640309448886
0.158179095366004
0.154259489768616
0.155112076064866
0.154898411257267
0.154930456302724
0.154754284278663
0.157332628660823
0.156473427004747
0.154269872285888
0.151234167496736
0.151620697199382
0.151603552026722
0.153200167293507
0.150529154211215
0.151970205313636
0.151016687022325
0.153817947750082
0.150254888359906
0.149434252717598
0.150334330118534
0.148769013208971
0.148219158143745
0.149924840686411
0.145220653449166
0.146601240267183
0.146438865439848
0.145065037812128
0.1458553905456
0.145008923684132
0.144597198199028
0.142081924624221
0.141262171994008
0.145295686641901
0.143864775591881
0.140988475128194
0.13917518802022
0.139962219613363
0.141414902838685
0.139663187827365
0.139558716722544
0.140066111173344
0.138768138004434
0.139889929194755
0.135667065421714
0.137278899979377
0.135090984798096
0.136556344824188
0.135030950875217
0.133535460590238
0.135214730685184
0.136415291663307
0.134849626204133
0.132468381834058
0.131398209346451
0.132018215280875
0.131116358289081
0.130802181733616
0.134920535955945
0.131925622820961
0.130223276516401
0.130033033559191
0.130767098868159
0.126825522688141
0.129271188620136
0.127810149027043
0.126220771642137
0.128050430199582
0.128448937995293
0.12686547120115
0.127976888197194
0.127928026730418
0.127914653177951
0.125872241967018
0.127875040676726
0.126629096417279
0.125652740166689
0.12342525814989
0.12907832465071
0.127331700923688
0.127455651022022
0.126902380623336
0.128217906205075
0.12624691968347
0.127865398364476
0.128350690796774
0.129007164869961
0.127788252330454
0.128132442736614
0.127997525763792
0.130390260635326
0.129392583153521
0.130299742431615
0.126346266021982
0.127205899895453
0.110397588733897
0.114812779346299
0.117776150067077
0.119448016220463
0.123131758780304
0.125583034673402
0.112182085772991
0.10935120892736
0.117271065090397
0.125506664366545
0.107878804933385
0.116884894944451
0.112235035533865
0.111548331431574
0.113950093811777
0.112466235770508
0.112230450435992
0.119819656962045
0.115940526815437
0.118372968172644
0.108827213612
0.123013558254834
0.118668799754895
0.119262291379097
0.111059395146458
0.12334706067751
0.109837014003493
0.121578335610777
0.107302100789361
0.120714801427066
0.110405328482825
0.120489384562915
0.105595229051263
0.118939578882141
0.104106439677649
0.120332555476112
0.098663475731889
0.117549658263205
0.0982506561673394
0.11452066607386
0.0984667407505595
0.121442229464872
0.109543567940246
0.128342477480902
0.0973562661824754
0.113621995324474
0.0982979102617599
0.126326579231249
0.112416455425223
0.120028696644456
0.102084021785408
0.119834308327668
0.120658023355293
0.117078770259597
0.112574214883326
0.114350986250373
0.129585217453215
0.10334254421883
0.127700126151647
0.107981067598229
0.129798658224201
0.100370906365582
0.132698938932656
0.104977182471916
0.12622924142899
0.108889003796756
0.122139325460352
0.111704459164083
0.117153662326842
0.116080325912842
0.11403670618388
0.115284711508391
0.115103622858035
0.11167828112769
0.114638874598667
0.110358859674604
0.115261222330963
0.108956732609688
0.115492655487638
0.107303602444328
0.11273206274531
0.107640524593967
0.111185125010797
0.111803647241501
0.111547947462424
0.109608577526107
0.11152307471063
0.107945831969263
0.109706150736091
0.107694589269616
0.109533802241836
0.109882459216173
0.112407033239846
0.108532430361809
0.109525520414694
0.107822456370122
0.109867451382536
0.106976604502608
0.112863824775597
0.108612820133441
0.110425154354472
0.112490679357139
0.11176654833092
0.108499506651976
0.111126660281138
0.108737465480985
0.109542673719426
0.108235044987785
0.112335957360187
0.108576922527451
0.113803682312069
0.111061132565315
0.111644288708737
0.108891348686564
0.109644332282452
0.109909277555756
0.113052937050298
0.109662403966857
0.111194454575258
0.11132997327885
0.111663843955133
0.110069256008087
0.113520941475645
0.110398030414233
0.112115095573525
0.111267248869261
0.110598740705565
0.107188543703945
0.110770207719279
0.110077268715298
0.111923003848368
0.111271944980502
0.111503556525596
0.10972697787609
0.112186236751777
0.112055085762009
0.110788138228901
0.107322159462826
0.110302775494912
0.110390051498371
0.109991827351918
0.108454097587651
0.110395293068851
0.110586221385771
0.113043492814566
0.110409041675445
0.110763264555314
0.111070971750569
0.111119114902664
0.110375616923215
0.111430645122959
0.110507046761677
0.111105705788092
0.112734637284978
0.113831507911641
0.110598122843129
0.112143121670291
0.110903586439992
0.112283426373298
0.109054526640322
0.111576846243027
0.112224515911333
0.112225762545733
0.111300308221169
0.113531996372765
0.113372009532322
0.11317228389783
0.111988442703635
0.112563075670322
0.112543287508066
0.113450818090828
0.111842432883132
0.114751701098346
0.11552771108099
0.116417177267366
0.115527913314269
0.113609807945885
0.114136598436564
0.116738684948368
0.116523615175059
0.115760293525817
0.114976646463022
0.116216961291974
0.117124766392425
0.11703712718789
0.115172793681598
0.116666475600188
0.114220829985544
0.115478341365873
0.115807823367528
0.116523353917833
0.116082452093883
0.115969382078949
0.117656685163793
0.118286175139388
0.117818124569412
0.117567570827842
0.115705901416909
0.115975471080644
0.116772686155871
0.118083794494832
0.118743241599875
0.119210368307772
0.117772242576566
0.118973863317456
0.117486791121827
0.118737077411084
0.117609356420913
0.117135866754907
0.118459370726863
0.1205114506051
0.118240539781792
0.119367196917109
0.118693597158508
0.118797962505406
0.118962107765594
0.118694510268728
0.119564789957604
0.120437023339818
0.121207400030753
0.122545566823671
0.121828048603729
0.121340928234937
0.121412998364638
0.123420369643306
0.121309798576731
0.120831091144387
0.122061321931146
0.124034694037548
0.121348595852739
0.119922118007722
0.122659385001076
0.122999797497217
0.122649799281401
0.121563121022826
0.121650810360986
0.122191327603284
0.122073130409434
0.122206056555566
0.122121168875916
0.123833822965069
0.123511381875055
0.121931682192516
0.12192852583777
0.121278371266882
0.122053633382605
0.123138462586544
0.122001677833237
0.122747785736263
0.122952299669088
0.119962031567873
0.119764048117984
0.121122010498409
0.120563913511127
0.120483681727293
0.120281096643189
0.121653347476735
0.119041648711537
0.118846870310657
0.119802979719669
0.119044119632884
0.120985045888814
0.117973862394457
0.117648456955719
0.117068350136385
0.11732808996747
0.118603384066095
0.11778422311591
0.118622686470781
0.118138138737357
0.118573722153509
0.119206357886249
0.119194878206281
0.117562659370498
0.117470501717314
0.117999044784065
0.115777001381164
0.118055157382299
0.119396082213688
0.117797884876077
0.114068585238969
0.11620196433688
0.116110253342993
0.115091785366511
0.1158912557025
0.114842768702906
0.116809694762559
0.115082386385101
0.113105257580401
0.116014455343419
0.115522975689082
0.115671359098444
0.113457724193542
0.113015223479193
0.11325021074845
0.115371796151077
0.116113336227444
0.116389714369499
0.115704630436223
0.112887014637193
0.112708143297441
0.116796589333703
0.115724400140705
0.113266118039836
0.113681144595043
0.116470898247751
0.114997112027226
0.113805801881403
0.111636945540789
0.115540926077992
0.114262449820964
0.111417684067854
0.112666663165687
0.113249808015341
0.111942488400247
0.111783240576109
0.113056038677573
0.113017246704862
0.113792469222961
0.114180301906033
0.113687730884184
0.111757743063652
0.110308771389294
0.110708066991187
0.111098589306626
0.11399509726322
0.113213210537139
0.111094683889496
0.113770202995929
0.116207444916087
0.110102955058337
0.11296224610959
0.111939489534694
0.110151079658607
0.110652695440857
0.110973692403627
0.110003908888276
0.108178971187433
0.110433073509823
0.112177559235739
0.109218055538439
0.11079453018481
0.109518271677105
0.109810311127527
0.109528275266084
0.110061726245029
0.108058921706968
0.110233105512705
0.108754542998805
0.108039154775894
0.107913619781555
0.106470882624393
0.109588281498012
0.110701566882946
0.111022955447268
0.112331279704995
0.10817772900685
0.10514899435861
0.1052642357337
0.107576932436838
0.10535491283419
0.106406950161164
0.105057407960141
0.106719326347735
0.107127672895274
0.106872183150203
0.103138660999763
0.103077353936772
0.103542033669869
0.104630818394702
0.102204700729113
0.101934396594021
0.102311769754846
0.103654368620803
0.102045383287225
0.10214894999232
0.0972776354810844
0.100152024376673
0.100506031111514
0.10276942548268
0.102524980453159
0.102595084883055
0.100228950153803
0.098201389066478
0.0979213870560429
0.0994709373541976
0.0982270373143386
0.0973662227271267
0.0953884081070197
0.0975973793026893
0.097250733445443
0.0971006972676662
0.0971723666777311
0.0955712468666205
0.0944523582581654
0.0955553404755845
0.0946776237431273
0.0951107688029545
0.0933088292468259
0.0939896556457063
0.0932369597600409
0.0948720531636952
0.092688509682887
0.0901135673955236
0.090927694525818
0.0918020651705619
0.102965450227291
0.104371842503247
0.0926537518029252
0.0918053260899916
0.0964773583208812
0.0924846033804368
0.0910078589324163
0.0905479967198798
0.089789522049196
0.0914793869525487
0.0913301414583074
0.0892323553736229
0.0913127670003668
0.092403028315473
0.0910756366413018
0.0904211694982622
0.0892743304239454
0.0898549487505614
0.0894702676857812
0.0920026919932032
0.0896212242765554
0.0882840188745912
0.0897037392559706
0.0895140448200482
0.0894479916355658
0.0888392476731569
0.0935522629593466
0.0988102461600448
0.0941571405829686
0.0908615274978444
0.0886465301936748
0.0890422872244146
0.0890866528677217
0.0897856943924574
0.0866223171703412
0.0879350999997148
0.0880889866576507
0.08761873446044
0.0855379124846083
0.0867342447904858
0.0853715708051823
0.0853208513539538
0.085729128559043
0.0859157088762737
0.0848281346516784
0.0860850529815468
0.0851720693320241
0.085472132584913
0.0828827425168133
0.0869860169871418
0.0876787746907846
0.0870612999982337
0.0809176856335953
0.0983706742723505
0.098907241751631
0.092020823527602
0.0824962374752891
0.0854804004773587
0.0830228763757096
0.084526174726902
0.0829752914030557
0.0838305340433878
0.081467248353098
0.0867997384814494
0.0827373321022842
0.0844696052148965
0.0832241360995811
0.083871792625143
0.0828779945464258
0.0847121073456938
0.081194187019566
0.0850400894398644
0.0843027045827906
0.0828317943953217
0.0895930067254353
0.0991187614038626
0.0868500659493219
0.0887312651682583
0.0802286569779082
0.0889165227120252
0.103082564312889
0.091396891226474
0.083994212163248
0.0834785089233222
0.0843990879918082
0.08282518856124
0.0851407177225079
0.0807130168207735
0.0881385190451251
0.0878262917114238
0.0858397944507135
0.0867038250153156
0.0863481803215524
0.0821602528996923
0.0837081041188993
0.0826042408164327
0.0806980707709901
0.081893396706089
0.0813310209446576
0.0827528884939622
0.0809335282974485
0.0802161840133419
0.080389724708955
0.0811587351556672
0.0895996939746833
0.0885218676089235
0.0830097242092922
0.0804449345424188
0.0838043913104002
0.079768199436992
0.0947174278688749
0.0915076588906054
0.0848076313334646
0.0810861585395048
0.0821129566390865
0.0826025578407584
0.0812169682269347
0.0810435572453056
0.081219950953347
0.0830516500253827
0.0811659034706587
0.0850880870481529
0.0834971799709956
0.0827689101254738
0.0798728518309769
0.0845941589077833
0.08046065164486
0.0833806594030406
0.0806140894967829
0.0843459331344344
0.0813146465986236
0.0843574352622888
0.106408003879453
0.107828056779443
0.102571696135035
0.0931656286475607
0.0895769563804176
0.0827013955943024
0.0832761132242299
0.08017899795716
0.0856776731721278
0.0831814712254705
0.0843115155251043
0.0831062756149478
0.0846434169794162
0.0809225148499402
0.084420211649154
0.0792290607278702
0.082930268734863
0.0811735522660465
0.0848379005218713
0.0806803976025532
0.0855729195719227
0.0797539111771939
0.0833950169213335
0.090488532275645
0.0918412946695054
0.0822158126036156
0.0840053016951767
0.121019311132887
0.0990851030893391
0.098639289324171
0.0807625022177212
0.0857734260826844
0.0821973397674523
0.0842002916991794
0.0861982993836525
0.0918245351571347
0.0809420983564303
0.0845334461915212
0.0835340690784391
0.0867514187323952
0.0831391661904378
0.0828511374358857
0.108139655300257
0.119979271691217
0.0956329969603026
0.0925342092895284
0.0774755120376184
0.109987868902733
0.10756602634449
0.0946354496842979
0.0896421194068094
0.0883023278158459
0.0852811042639177
0.0890022176017852
0.0850067543955118
0.088630233719623
0.0938788851028244
0.0887447272965369
0.0878384015854751
0.0850103172890939
0.0892783485735139
0.0893295664703165
0.0902219441157926
0.102217007705771
0.0950149573284762
0.09057253916505
0.0942126371731767
0.0908908158149594
0.0916371873253699
0.0904511720555651
0.0887438554822344
0.091561514941011
0.108130113970803
0.10292899322111
0.0988096303642259
0.106994829084011
0.100419108724712
0.0922307499052394
0.0941066477561018
0.101607335888392
0.102650855997549
0.0849062091579735
0.126862134776822
0.106912874831498
0.132437376427816
0.106094260099899
0.10315470344166
0.0896429966871811
0.0987874347231581
0.0868654794281738
0.103003165595423
0.111490229977341
0.0976144992903935
0.0987594815886236
0.0915779790230041
0.1154717495476
0.105242887975875
0.108600479757872
0.0963630290807533
0.0982947102127927
0.0986503227129298
0.120523999004897
0.0929084683277012
0.114167419031506
0.124381374470181
0.132395196348071
0.127343067204727
0.101263304571634
0.11590730214783
0.127056991302745
0.11317655164753
0.104459161792771
0.0985280921262551
0.110176546751572
0.0943115719248282
0.124474120374808
0.13250947570398
0.113824253694479
0.112016233900448
0.10570735270944
0.116442758546034
0.132529831699916
0.118612490700681
0.109875228411899
0.111423215569013
0.109569985187168
0.115535739860933
0.169638935853724
0.121715278210103
0.152367610750333
0.130656457342907
0.147583474054292
0.123502869120461
0.134616437666115
0.116934877484584
0.147771524315843
0.135889012848519
0.133517160879464
0.113051473660947
0.162028243777502
0.131369724609737
0.141586258208744
0.130386168500561
0.129952469374037
0.137305428990361
0.193143331276794
0.185277800856961
0.173143551539258
0.135725780274757
0.155520951952001
0.161375666831787
0.146178247835366
0.136748031868791
0.141315407460949
0.142077137072617
0.143625648129313
0.146504384024861
0.156067748742769
0.143195808255379
0.158950199608821
0.142402095793331
0.168656302937083
0.176460434247308
0.240049721914675
0.178225792296385
0.190491332889276
0.192494374832595
0.190769307108315
0.178343120404638
0.166171456962864
0.169729989620753
0.180200578665439
0.175643057116855
0.171838252363901
0.176594119291257
0.215254827568955
0.18843635035085
0.227947205175594
0.189995012737302
0.207392577023361
0.188678973542648
0.263300569345646
0.309265335373817
0.236655865361561
0.234485035320194
0.214500837384363
0.279824862984335
0.270283761140102
0.246656236410296
0.232025021307376
0.238307295552138
0.235410383805944
0.255789342913773
0.261511305447313
0.272133747904095
0.287035909426614
0.27259189115683
0.275814300617733
0.32084221986996
0.366508687934361
0.372692674457666
0.313835801882586
0.321910851765988
0.336468715036518
0.342755066236216
0.32639449010278
0.348453785700992
0.322715178981114
0.389869942576044
0.38772863987236
0.385499530969955
0.364023835732338
0.399003040414512
0.406655216884879
0.402784662252883
0.465274072771456
0.42663193600146
0.441719003660528
0.411379404145881
0.445078247002604
0.41923615347036
0.453813461002675
0.478905177658013
0.478755514313625
0.470909884522609
0.469821927510199
0.471867057361994
0.482730269128871
0.485616505630402
0.485371835240128
0.507320980971488
0.549572310842232
0.551302693263072
0.724150847994863
0.533660661433027
0.538509866279026
0.506936501150912
0.538972174962492
0.553741723357786
0.566286991788678
0.58785690310273
0.567516067225864
0.527503288863453
0.541069115533806
0.539438588391012
0.531641631135556
0.538750437498934
0.53600434777042
0.520760860192469
0.580020538469392
0.523283773636656
0.612148387479672
0.582506539040126
0.563651297611615
0.516758389747325
0.536875277888818
0.514342373419846
0.536854944121735
0.506749793763039
0.557769037683587
0.540289551356341
0.533357131009373
0.508294583315117
0.513711831570923
0.538492766898266
0.533911725270489
0.50623304435404
0.497377239815515
0.482889420734248
0.493898492696124
0.469379494502254
0.534763688425087
0.52350816104055
0.489550858561134
0.467888364485291
0.479678910353073
0.461169431259799
0.463243914880208
0.455474650293078
0.471338905954611
0.447894807230063
0.457512002950803
0.447782750538277
0.450352277509857
0.4408597134045
0.443897046392571
0.445199424948973
0.437528494685397
0.439775729512164
0.43479617395387
0.433405761354333
0.434635403332021
0.425476621541432
0.435908672240816
0.431757495727193
0.440963997671585
0.435508070511579
0.427313074800929
0.427291389805709
0.426577200837713
0.428365343403759
0.430304572558551
0.423026848690191
0.427501775604375
0.423717227954343
0.42116250646727
0.419725124948616
0.42238078051267
0.416470236580075
0.414560981261353
0.419098124960141
0.409004481588754
0.415586527749386
0.412405672946369
0.412923701335143
0.504982358309123
0.422845780594971
0.426672482697189
0.391103648355975
0.419807590464764
0.38304704776342
0.41188541777781
0.451550563810626
0.420186054191617
0.398538832652838
0.389697071569226
0.37668242784143
0.413061686759161
0.381161028729099
0.387646782562907
0.375447819918014
0.371625631819714
0.469384277239
0.422475162372472
0.51339775437343
0.428813088894566
0.398976507199252
0.355186931774423
0.410466863644752
0.382744303855107
0.369469762308685
0.35444895490334
0.35064976832585
0.41193067985994
0.355907182747377
0.357455635310799
0.346235329048767
0.347536535278203
0.381872089959198
0.379300148798749
0.354931735573382
0.394662178338428
0.369379830521158
0.371766760257146
0.399260148085072
0.430964329162111
0.361052619704911
0.327517163812445
0.332821516394062
0.318831817265837
0.350667861698325
0.37799511727162
0.328385750866951
0.341810201035158
0.301257937828538
0.317670768651922
0.309257734826061
0.35303612358992
0.30549056615596
0.346719007790041
0.334718927957392
0.304349675071798
0.327149861560821
0.317362369557984
0.370032680877754
0.351562630589423
0.31338268620294
0.288846034649996
0.357881474077346
0.325367014620104
0.311704542852631
0.308301589059766
0.274545505065103
0.309150813688202
0.307513822070623
0.282807336006079
0.314086656517133
0.303516552709455
0.330500969269806
0.341464716011909
0.366712156895201
0.347032534974745
0.282541166417589
0.276092883068559
0.268720962487124
0.282637262850205
0.27323386990993
0.265235281789795
0.32961822501234
0.267698444803764
0.299805074226414
0.317813156721076
0.290596389771863
0.28045846301661
0.279149057532733
0.2774798081083
0.295160467431037
0.325546036301291
0.34339857217449
0.304309447363474
0.326910272534106
0.318479936387607
0.31388548071227
0.307583419152239
0.313109571445983
0.315477260755824
0.322513321601768
0.334999946536191
0.330615223664319
0.336382535483152
0.348167791814405
0.336198844977288
0.406981829881608
0.377956083759558
0.371110238115482
0.405116481250909
0.398223168884433
0.467670126657286
0.405364010757334
0.412748037916614
0.404526765183581
0.413886932137308
0.421303540792662
0.419008791950128
0.457217635407792
0.472595889901089
0.44485291966649
0.451391262949787
0.449218708309619
0.462539140420383
0.466058076068489
0.527570321889587
0.480911011080096
0.608571272662782
0.511654583909735
0.522250851331262
0.485838992920095
0.491370354363389
0.494722046686267
0.497097443478911
0.494099953945559
0.491521821744399
0.50283401086166
0.535470635830006
0.505843921394047
0.517593465278904
0.501905358866167
0.513549714195217
0.505672702628582
0.516536371489141
0.511410519314977
0.519284439880329
0.531346993859164
0.529255780806034
0.538635202004118
0.637020357513165
0.553218682994577
0.556247371473665
0.545945381541363
0.569605070856727
0.549100473143268
0.565957622432559
0.582363209020156
0.579585306397586
0.572805093025719
0.579964423461721
0.572707390258261
0.57615019918933
0.608701174062154
0.624296499355367
0.584544656759919
0.617543162479504
0.572528296780952
0.696429585255731
0.640250948324404
0.647900537931427
0.619571207645176
0.630592531011303
0.611607226445296
0.616459621103103
0.617024329192662
0.632134572485996
0.623340959391773
0.621501767891897
0.625829191447997
0.620468411491932
0.623843531889416
0.618342886394457
0.630088600917402
0.656001129590865
0.628801227313595
0.62530528279493
0.621149752534995
0.626583935845918
0.608964459176918
0.65958374633545
0.635618200464721
0.639933695732896
0.613758517259841
0.642733539297215
0.657214760635042
0.636626436546244
0.615006795497107
0.623061658367717
0.608910573347471
0.634808485248309
0.604768787275733
0.651332037066155
0.655250343749037
0.644088545151954
0.628571642700456
0.631314534942769
0.629723758632165
0.638810229027835
0.644590516962063
0.64595633166188
0.648349645856736
0.656206623876837
0.663601028380533
0.659794357344553
0.659031299669939
0.68112675967786
0.688154480545925
0.672947693658421
0.664681787082744
0.669955897344853
0.652612893640962
0.668250258170488
0.669022246748948
0.661954553201597
0.646705437444742
0.653224351084515
0.632411165404851
0.655336345624909
0.664613900902238
0.639197391781289
0.649381709532097
0.631453141364578
0.627146129380106
0.622974035245125
0.617437606289466
0.612205114050608
0.616991767188098
0.614893718820057
0.601287438951511
0.600431156593159
0.593968179918911
0.602092986015383
0.59173430977024
0.603899736896467
0.598043739065113
0.592370522981749
0.58699627257596
0.590115826688435
0.590726651583615
0.593260800227586
0.587870702999059
0.580078818443776
0.600322653270069
0.608395721196624
0.606172773739637
0.591061915563864
0.592313139585817
0.588353200034405
0.583242799433028
0.585837091710446
0.578338476380659
0.585505079155074
0.584533794394343
0.583965806172682
0.579208492563179
0.579820849622627
0.579599915460984
0.579489561377958
0.581619224716644
0.581847303924602
0.5712420267549
0.582120742139725
0.569666188506265
0.578853602307527
0.576115779956018
0.588924917708394
0.569526246551677
0.584947510117067
0.570050179734791
0.569927606685021
0.569364415212086
0.565888540919762
0.571027348438764
0.575462941612096
0.569368499188467
0.566833800658834
0.569246720320709
0.56805927199531
0.564912263652528
0.570238569723125
0.561220693949234
0.564486681052811
0.564297067432222
0.553568656995342
0.55276204262479
0.55639155146382
0.551261175339885
0.545485127914176
0.543583309653026
0.539679351597887
0.531183666323162
0.53451949069032
0.524416790477613
0.524182489089874
0.517356172282329
0.516327817480732
0.511063750417554
0.511664782112357
0.510639115825907
0.507139368493991
0.50187774988436
0.503726065355113
0.492223147200953
0.497538598998122
0.498987368375996
0.499660495844869
0.493713622151955
0.496535479162202
0.492944587005522
0.494208076908052
0.498907728093413
0.497138372288424
0.495508470224628
0.499293301432501
0.49706456088631
0.502250298968192
0.504763922664398
0.509121665476505
0.505647761725586
0.506219242275543
0.50855037373755
0.515792379425402
0.51134858955743
0.519696106444321
0.515890343744842
0.515694861766206
0.513493213087831
0.51945309855536
0.518920780027982
0.523410699228346
0.518922660485575
0.523492796851153
0.524474708795506
0.523379582678428
0.519785478325031
0.520007681735235
0.518377339447144
0.523540603278166
0.518576222360588
0.515278103719986
0.514780788888933
0.518734363217888
0.51436268124219
0.517421528409639
0.510857983109915
0.514835325477153
0.508334652492925
0.507073338531179
0.505252473024965
0.506033467816838
0.499907509840807
0.502487782248154
0.492298949406004
0.498782584034293
0.494470305421147
0.493972724023804
0.492303851621611
0.493933168673391
0.489708814384475
0.488832389194015
0.485063979913495
0.484837722376215
0.480539219555707
0.485574801666614
0.480020935373106
0.48177848554445
0.474296702399636
0.474434581237817
0.474050218518514
0.470892417618114
0.466455719756333
0.465630789834341
0.462871284991794
0.461899440110036
0.454997085528467
0.455640068147892
0.452614931932773
0.452403803154773
0.445295474422077
0.446915532523045
0.441411875389006
0.439236856202641
0.43459193634079
0.434972459578563
0.429863171693203
0.429879291003197
0.429287210044746
0.428577813002377
0.42582641226643
0.426564430964983
0.422140039671403
0.4235640933804
0.424136146040828
0.418521986779653
0.41809074547433
0.415830630949498
0.409926113538194
0.410692476697383
0.405888163519523
0.403911847718314
0.394970769442505
0.390742233350478
0.385706594022889
0.382459594474475
0.376201020155898
0.370093421302433
0.367939064463728
0.368259013422664
0.364450881228335
0.362794923147571
0.365764150419665
0.369753140642644
0.370229959910815
0.375477940648109
0.38100404666569
0.394081502047324
0.401783417757741
0.413278794567239
0.425167420046048
0.439884959201728
0.454395902414711
0.472045277911997
0.487319763393056
0.503784896442406
0.524227372864693
0.537826274435949
0.55437067889933
0.571978714412811
0.585864041799508
0.606709768369018
0.625159698680978
0.640642179122979
0.658663076551778
0.679799606230493
0.697850686387584
0.711991029867332
0.730851295961831
0.747640132206254
0.768610633152798
0.775644420022056
0.787330129586605
0.799941457106104
0.815232601140867
0.818910944808031
0.832573250109093
0.839666737551802
0.85015121972538
0.845377897200627
0.847215081331281
0.854406977683486
0.853176998773974
0.860102153582199
0.845847704131768
0.848217137862708
0.85520381721251
0.848996681637326
0.84625541207992
0.849939843001019
0.854046319396289
0.851687285903329
0.852747044437417
0.846325651996653
0.849657483612613
0.855666384519699
0.84918322562344
0.861398666233178
0.866618774482464
0.870772315828239
0.873225212537294
0.888744332713593
0.890626648653155
0.905994618251714
0.903818539586657
0.925688856580868
0.939060767464794
0.942835272215122
0.954179234113037
0.968032025036025
0.977795706096889
0.980529523516937
0.990724887075742
0.989197127208125
1.00020416178664
1.00873480729651
1.0234510740902
1.00974782183516
1.02040619465177
1.02287645047221
1.01755453632733
1.01758281566039
1.02037194178094
1.012049255627
1.01068736314485
1.01175713626372
1.01019205708182
1.02324634072001
1.0185626943399
1.0265639580638
1.04279612545327
1.05145394143639
1.0529603596274
1.06502263543094
1.07707906173679
1.08896793110977
1.10772193125103
1.09490935379482
1.12358092973037
1.12142002958507
1.15243723745465
1.17515011032147
1.19478237021515
1.20234067524247
1.22437650124873
1.21363125709399
1.24368921512199
1.23398375378152
1.29284027653097
1.2929559275364
1.3132847166551
1.34421023991844
1.38582516344374
1.41739238380189
1.42203028271553
1.4482398618752
1.4607803886015
1.47011180560092
1.49590478298777
1.52779709906504
1.53219053253342
1.54315840599378
1.53000627626988
1.54668811670055
1.59660477325429
1.57120451910236
1.6466953285484
1.58436853023406
1.57162541841097
1.65005084833865
1.62745703507298
1.58852354003595
1.57965040435484
1.58629856656044
1.61289955228742
1.57404435387774
1.64706223447186
1.5844173150628
1.66728025125777
1.60179010478339
1.60606656675972
1.60259218916343
1.63819966627773
1.65393785268553
1.67489941078825
1.69873492934437
1.71193549273325
1.69704222437865
1.72795047471591
1.65650100685854
1.78894929297734
1.75460321427307
1.7786719839441
1.83488290874482
1.81182055126468
1.788889615659
1.84606780887914
1.84255988598857
2.05002012953213
1.89926544337748
2.01347313667062
1.86559442047999
1.94885971311953
1.9094957300036
2.20510589999908
1.87033295772423
2.02531211127339
1.92269503806371
2.09077137887071
1.96213384950584
1.95465276495086
2.06375532056625
2.18191061628283
2.06365370463935
2.15812844863005
2.07503108095482
2.45960208780605
2.0239493493181
2.09768926121522
1.99525857808315
2.4654467136699
2.13668694834825
2.20147367652776
1.97919716445981
2.05105349149821
2.06829201380999
2.21110139249241
1.95107585669189
1.96455315349251
2.04929637484747
2.08524184398672
1.94824511587581
1.95284998325737
1.76975492147514
1.88398911862888
1.79040999766754
1.65637991803454
1.71216587833552
1.74948061549719
1.73240132312802
1.7489536652075
1.68630416913021
1.71433554113925
1.63770844427676
1.65548140419125
1.65558402505016
1.63578955933483
1.56680906806984
1.57453733131914
1.54381216375982
1.60204758603669
1.55379426061228
1.57198785452962
1.50173215805857
1.45713368802271
1.43816151632085
1.40983975079214
1.36296297025131
1.34628859193703
1.33842050144713
1.30585750716919
1.25905161592666
1.20625246730697
1.14990005177322
1.1316999155366
1.06340286656106
1.01730615730924
0.964973441475677
0.93943636349488
0.894777064052389
0.866702930971014
0.826626565207245
0.799328709762471
0.772737286933384
0.745190956777097
0.717337354448209
0.689890705712492
0.679894852256906
0.652560219166323
0.633216113270841
0.621102875717074
0.617186323300248
0.602567848147019
0.600664531295041
0.586417488003381
0.584247866030821
0.585429746006652
0.56989603074394
0.56572953961828
0.5632809430378
0.570224448362635
0.568963681183591
0.567998409244564
0.569068979966546
0.566070172055625
0.577259975211578
0.575568917779741
0.57599865143239
0.578842960838513
0.572980871390463
0.577764692638904
0.573238813595125
0.577167657420565
0.576188521932969
0.57362010133117
0.572895867724932
0.564172355467211
0.562847518049703
0.564596752726098
0.561147916731688
0.560364828306557
0.55025434588274
0.555240781946287
0.559708589703361
0.553180904956147
0.559767365045035
0.563911245576384
0.569477897816799
0.570292020655947
0.562592660446365
0.562903391932634
0.572658210367934
0.57622693180829
0.572534314369038
0.583256154663638
0.584566856524562
0.578353903208162
0.577191257836956
0.581992087829079
0.570758900158473
0.582692538172225
0.587317421957102
0.586147683625516
0.582106083348215
0.577011261045301
0.572956559256071
0.575551561644589
0.58257469387329
0.589637134660206
0.582951857369398
0.588080678680103
0.595995289185245
0.596253655272343
0.595748239988915
0.611060733082399
0.627322446266946
0.639571262906389
0.644975453880593
0.665365155900506
0.671012610802892
0.690524305586976
0.696208252524576
0.715054905778529
0.720154284859659
0.726254016766535
0.728381241725221
0.738174836586245
0.716634671201
0.717120540249322
0.714149823030624
0.708566471345303
0.677535272740633
0.676968670834077
0.677702593989426
0.674058530277848
0.652436483699377
0.654153801926826
0.646597597463009
0.656198019493644
0.648899420919954
0.662525534168377
0.661478702583538
0.668747538894838
0.653937199655289
0.661823210249617
0.661146283064957
0.656424128013707
0.65749787606854
0.658710638818139
0.655088124938083
0.645690148510347
0.629014715643979
0.639012356851214
0.628682416900378
0.641119035202203
0.622022892401479
0.624142604969384
0.620368842196271
0.615609684005832
0.620704971608618
0.603736047870079
0.615386709065517
0.622011852121337
0.616534457802521
0.629121956859048
0.610948122155109
0.597219684382805
0.610610848750534
0.61540566259263
0.603675578101144
0.605640048351699
0.594924380716846
0.602286062246891
0.588355194341702
0.600767837323974
0.594250814365076
0.59098930103575
0.59168761815132
0.583227491850996
0.589124062891385
0.585385335449134
0.578012865398245
0.599374516584436
0.585010409210848
0.575933852763693
0.577254632210235
0.569689796595316
0.555329971619468
0.563168748847389
0.55684956909367
0.55423531965204
0.550540967193562
0.56463615018292
0.553649833933886
0.564684741989499
0.558077741332968
0.551543408773446
0.557843141197839
0.557729661011703
0.541613128719951
0.558905606483066
0.556801859059153
0.570388963429426
0.552856133196741
0.580408112423963
0.571445199056185
0.594770515054034
0.577922347732605
0.576465578308128
0.57729220316479
0.575943285721752
0.577914365352793
0.593411827299901
0.599237475208388
0.591302286939233
0.57818688244199
0.61746681801771
0.605752028499457
0.607384213356455
0.606818671706642
0.619172741244796
0.611441229980514
0.628835045455168
0.673226555157596
0.678317272394533
0.66090249512373
0.68560965674153
0.688218679678828
0.692913694442291
0.693671037098003
0.743170778079694
0.726477064677569
0.763414581055292
0.780355155932468
0.796602712287136
0.82637926624676
0.84099244193176
0.824678078212157
0.846647691169535
0.880888039579759
0.874979201721765
0.881179010830915
0.890475952466638
0.883890636028664
0.88936508951372
0.883104597402705
0.923686705718988
0.866452238957554
0.91472404184745
0.923395975891765
0.901388492552226
0.915098076474483
0.866842052887387
0.875901395534998
0.908191714099775
0.90109819755962
0.880524849677261
0.837933804825971
0.858459119315081
0.837375223768276
0.881631920387822
0.911593313142739
0.944791103684738
0.910405735180705
0.837348410465316
0.842653523459811
0.843263658669597
0.80005186074886
0.865692799595517
0.82427056504641
0.864337687260555
0.85278350648896
0.838547704200203
0.843384319953297
0.837142489992292
0.815626384937373
0.877400639253138
0.82490588169172
0.877991889782962
0.866613195760476
0.784313110321913
0.805593690894422
0.885985664676309
0.881085071129274
0.86208111099828
0.79823938761251
0.805881015004196
0.802931189360997
0.825840703339417
0.903770138487721
0.884595398250967
0.868579878873066
0.879153985229909
0.818448966926614
0.880820213272053
0.809083040296611
0.851771584406937
0.889617252448577
0.864463009330136
0.840420012754711
0.924955301785616
0.966117263448807
0.99810044534722
0.859369236151668
0.862125094039607
0.894609237285736
0.962813586342066
1.0023896129103
0.979726400907589
0.894181603969193
0.914190279275168
0.921627026841746
0.977648052418209
0.992689297618282
0.960241946024802
1.05774405998933
1.00161066913953
1.01301305211906
1.11713505436635
1.01847705693739
1.03655687081545
1.14716062620136
1.0633929227621
0.884284245662493
1.16842213871501
1.18646740230087
1.08628186573959
1.10460136654194
1.15063453580211
1.35165052553738
1.2837248440615
1.43871325797925
1.27519134982322
1.17762167408906
1.24717084737743
1.28215242348087
1.28470403547211
1.09618719000683
1.05087111247766
0.949461893771472
0.978741282875444
0.852321407017616
1.0787289906051
1.14995836282377
0.908713609963488
0.872225835806055
1.00594067530837
1.01294343604892
0.960088094600321
1.09247416479531
1.30851023224145
1.16132978706309
1.03768182532801
1.06258899104569
1.37041723506395
2.50468233243182
1.93232579305063
1.6591494353088
1.5387853727242
1.6212625201463
1.24404306669035
0.924196779680163
1.51603566129085
1.45990844471699
0.893811473721492
1.20800222944212
0.884033379024328
0.983643599370401
1.1698341527349
0.940701363980271
1.12428504857809
1.20334332215999
1.28058428133948
1.39532101279745
3.09142188095071
0.949652786399038
0.910776625967475
1.56612009814515
1.38384934955355
0.888828797102609
0.802276841747225
0.944092676518356
0.826460618813561
5
1.11920216026467
5
