3596
4000.36533379555
650.420452594757
1
2
2
0.0863068165168042
0.0834448311159528
0.0913408726991235
0.0959477182212111
0.0890594212659203
0.0925789578874794
0.090281305548856
0.0919772018377304
0.0922418930818365
0.0981355456126116
0.0895285775724193
0.0936474500055024
0.0877727730916599
0.0946313655265367
0.0781842518313932
0.0911569514859279
0.0877570038698868
0.0823806020978053
0.0821137053572849
0.0907232294283454
0.088390625427434
0.0883561087455369
0.0832265935996964
0.0834057310228235
0.0932760096666047
0.0892966803993038
0.0791584185776383
0.0861727765801268
0.0788323052026957
0.0956361797620069
0.0844587678013659
0.0954347512641821
0.0929604128252583
0.0835451467505965
0.0838262766408022
0.0871809505974598
0.0789373009820431
0.082517229037321
0.0819367870655105
0.085918490330664
0.0917554456322211
0.0914148457381233
0.0854918870636446
0.0893620356464107
0.0823173652551075
0.0940205886255549
0.0975433252212881
0.0868324832359108
0.0879731988727978
0.0818221485974561
0.0848129013360185
0.101058241117456
0.100910599951936
0.100416038551182
0.0853989143647475
0.103142212787233
0.0959478430088262
0.0900957149976421
0.090778068114546
0.0905379451639771
0.112806458696753
0.113297170702599
0.0806900073060672
0.0895753311844524
0.0862942875752809
0.0906410910708541
0.0884638653239161
0.0964106231706031
0.0781936743455614
0.093050299450731
0.0815708325956428
0.10962553776538
0.101325768002825
0.0934913134907066
0.0972703791420391
0.0928502534677418
0.07883681533979
0.080577509010971
0.0765877026222812
0.109720614963687
0.0892360705194939
0.0988885519228243
0.0814346501723362
0.0872129028039093
0.0865491762244191
0.100298292949192
0.079486522814493
0.0909264397610875
0.0996266006678484
0.0912909516201785
0.0874985687816843
0.0823509576028239
0.0746147385975888
0.0928064398048683
0.0732956875057632
0.0913205366665921
0.0833776390173082
0.0926896192816968
0.0750088414174337
0.0995454400879995
0.0948522760408538
0.0992706168472575
0.130768325989663
0.0859971680075238
0.158389813640327
0.0959867632199521
0.0940922810481191
0.144864726273591
0.0869423931592834
0.102025959418519
0.0736998473067844
0.0916835003356666
0.0862758862920037
0.0954737681159056
0.0697618529520891
0.138237573192913
0.109296635488336
0.0990231615019777
0.0809930439680858
0.0937439820032344
0.0663554344293102
0.123967254289455
0.117992385185799
0.0831196002636227
0.103052988623381
0.0875588879517054
0.0824268302808728
0.139500825583881
0.114734568822914
0.0817804593673478
0.0783947905080393
0.0830141668357783
0.0785905213189639
0.0795976043604399
0.129592597850514
0.086211310803431
0.0947835212333732
0.0816443784029998
0.11734202711131
0.143076940256049
0.0852369920812454
0.0870007237121541
0.0751958378537225
0.0975497025899274
0.123219686600531
0.108031448286894
0.0848220015963495
0.108403838119243
0.0926597634142344
0.080256796358701
0.0831481429210794
0.079161261202702
0.10387807827835
0.0964646824437791
0.0469769069301891
0.149290198377423
0.154448561673757
0.107362359429507
0.148710042089033
0.0734694396204477
0.103464771967678
0.0744989396046693
0.0864187971887958
0.0797864176610176
0.0897608883258549
0.0694836410416823
0.0986837547372282
0.112895953087019
0.0860639079504968
0.106362506148076
0.115334183899909
0.107598007127785
0.0855482288021757
0.165711292897421
0.0995777524120309
0.0831693585687779
0.118630949816545
0.0962425658471514
0.0747680691257031
0.0925148322954288
0.110744045194761
0.0762830694887642
0.0919127531714588
0.0706361119151649
0.086984694729629
0.104820905504973
0.082786931583069
0.0860666808193456
0.0937446463656589
0.0747600109940924
0.110172117328315
0.132820799544937
0.1160422488418
0.0819220694500278
0.101035158888315
0.0583075968125724
0.133870967305719
0.112430030021329
0.0878173616469668
0.082303956065266
0.0729165593083128
0.0786103320040007
0.0804552496324019
0.0762251802013351
0.0742199187278651
0.0603917225805467
0.132729464219459
0.0902668753228852
0.0889290326729467
0.0748733665536896
0.095690201502615
0.0764927322544798
0.139559905331928
0.107574757555428
0.0752156386711853
0.0870726717671148
0.0721168188782125
0.0964074529408114
0.101298192849443
0.0801980439300892
0.0864589859693027
0.0773295313730481
0.0844977835979047
0.0800758051116558
0.0778820618395514
0.0847500270521508
0.075632032769843
0.083026397343219
0.0784102153708648
0.0880684266169848
0.0966165418846147
0.0837079415068357
0.078565597448723
0.0836013571441623
0.0744316386032633
0.0936290956009011
0.10558188523848
0.0813366294109626
0.0897923379516975
0.077466864216425
0.0804295490808761
0.078517992266565
0.0859763662128822
0.0821262277810571
0.0894591421855033
0.0775808306416206
0.136188213732884
0.0766966596802602
0.0965677372007466
0.0677966367758112
0.108395090206387
0.0922186512242187
0.0909436029555385
0.0836430112905426
0.0837163859228869
0.0760209188085317
0.0906406633662929
0.126428545523082
0.0915814491085808
0.0878585557106213
0.112826195922623
0.0928942315470235
0.0809209361534043
0.0888739426887974
0.0681135532524793
0.17961458163782
0.103622381807888
0.0882751296908388
0.162971254046308
0.101178137737858
0.0986851772286857
0.0982108358535045
0.0727966439569234
0.228779688691568
0.134449043498935
0.093116774544155
0.0942400202093241
0.118102479782733
0.0850715576680871
0.0997903708490953
0.097753290698412
0.0996408606276314
0.12678337028867
0.148590883742318
0.181382289560305
0.0792430039657731
0.131536529127653
0.114847302095536
0.0952173161513056
0.086320069803478
0.0841118509038323
0.0790286520765121
0.115043543673177
0.106680420091078
0.112163743311249
0.107666641222113
0.0945328678989602
0.127964824797181
0.0929219810817136
0.0925137928804337
0.0970399957143581
0.108780354245285
0.0815639642761222
0.0949660943420582
0.0858666419752507
0.106355479420864
0.0871295168325344
0.102657269929761
0.160033837665576
0.110855385897511
0.105193416070648
0.133375015404397
0.0965700680684731
0.0963061265809457
0.0936853149415514
0.106261525174983
0.0872781249570126
0.092076617568262
0.0854036582514661
0.127244051087707
0.0965050684936387
0.0884597534536939
0.0948425999465678
0.0911738981176792
0.0899799473344543
0.100944211815071
0.0967613487236026
0.100383303617671
0.0991843654297777
0.0984346568619378
0.12255282833383
0.142808333272278
0.0939217998454988
0.14491617205429
0.132673569170912
0.10633838915044
0.113485671929408
0.102747090762364
0.110095568407772
0.0991582978770532
0.10921268300626
0.0969724476483394
0.107276865318116
0.124524555325026
0.127127189796206
0.113497957425052
0.130281320085777
0.183062820757614
0.192976533628382
0.129023620652507
0.129876210859301
0.104292050708773
0.170961272046646
0.154078522012409
0.144390672576044
0.160350060902543
0.12152554619855
0.138124443710608
0.109356915890978
0.132314922694019
0.122729365409886
0.137793696271845
0.124056697184429
0.14125908464996
0.13700784146952
0.14339990580914
0.135116801285644
0.156241045607384
0.186756531301806
0.158678252320874
0.142344509045761
0.15012333884048
0.138940459718345
0.199687122609616
0.18273256950491
0.212210853003782
0.202674903732025
0.192018120180378
0.218688361084137
0.16225261805015
0.167270897659318
0.157918291083775
0.179138114270361
0.17839392002393
0.177235820298494
0.172505869425146
0.174657227401726
0.176234092388013
0.188034503948621
0.179702933115155
0.187489714695003
0.185218503987713
0.217512756145742
0.18635242175267
0.203493175054508
0.193043985294663
0.23844945377461
0.255576928008357
0.269787145279102
0.217703235571464
0.205942146616099
0.215471321074933
0.20520107737876
0.211361643832363
0.219687391047686
0.236458156881738
0.223401926110377
0.267054222524088
0.247884830864129
0.263543755552514
0.254000966565333
0.222679645032718
0.259430206335782
0.262787961060894
0.253186630837536
0.283355167078007
0.263459476798964
0.243310097631185
0.280059487409982
0.291466287589153
0.277115384054532
0.296948974530467
0.256922814954536
0.265550903720964
0.255684460240477
0.282847269404809
0.284755282172851
0.295835097541491
0.299203748233725
0.291472707955543
0.29472776363861
0.306978238724893
0.300302388350668
0.329089338970799
0.314778879498883
0.31206304955221
0.332034122484544
0.310594021021875
0.324996069576598
0.312072127859956
0.34554371361271
0.369456096943545
0.35660586627867
0.378101615729956
0.327196225904145
0.346111220648073
0.334303660805087
0.346273861760853
0.341249589515297
0.363514259256962
0.362460267805361
0.376189216356057
0.359665401047909
0.370431273987576
0.367208850882807
0.366843270781328
0.375611368829983
0.388613482510432
0.391945619845505
0.404200056867012
0.39723886005081
0.399426675579848
0.449649598750494
0.455818352080013
0.45456872473478
0.468882269120591
0.413521214020547
0.427356770160373
0.415307743363625
0.43768816410902
0.416155960325077
0.450662583575444
0.448496611350109
0.449323937498736
0.455507077423555
0.462897207882394
0.468307347327346
0.476637288411657
0.475677925360372
0.486958603263568
0.50121821274952
0.487570557775444
0.476142685639606
0.505935592643347
0.500431172011614
0.512434577080717
0.484735739703602
0.525859325250596
0.515188720376242
0.506199449976222
0.52048834805871
0.533725255007766
0.526231393825524
0.54106876759638
0.548089253677076
0.548957837019837
0.556927768433749
0.570178290123182
0.56953860146377
0.573249614452751
0.558360508195878
0.561658121450453
0.55702257380969
0.572121305960632
0.586919460339887
0.593139488246459
0.590797887895223
0.58765958996741
0.587243190511094
0.615529342496271
0.608178041853679
0.668198655137839
0.622197741991901
0.604782274650865
0.624392770121313
0.633930434188746
0.63351556316085
0.642679047335868
0.643473189366582
0.647380872034582
0.642904487200686
0.64720301157275
0.64516301376317
0.67463867400157
0.700906729225775
0.697933601321714
0.661903677747879
0.674375829994771
0.685324415397999
0.699461091607553
0.691676331762047
0.70095504355007
0.702899304721224
0.737728619171962
0.7473094641748
0.727405359092649
0.744544221224475
0.730666753836958
0.697934092461018
0.764494722972303
0.750352934612443
0.767981435283061
0.761937603849662
0.74897300272623
0.773944014582208
0.840343645845357
0.793202023338124
0.757199505441522
0.798048014321885
0.787607586275949
0.764592297726907
0.811828345011193
0.793612022557788
0.812429032059981
0.823375953952423
0.838173596621274
0.827628757769519
0.805189436332828
0.807755549606467
0.862973527045482
0.829478692846059
0.831775456136667
0.837968155342199
0.854229317315228
0.868824878137646
0.893774414566344
0.831325716751725
0.816031817590464
0.885616529391384
0.875789914059865
0.839285666251743
0.900358637553809
0.892754880185847
0.886276445961068
0.952762181241487
0.960667315362268
0.926699684888972
0.944292676900384
0.907901610678512
0.918009740134953
0.939742806386688
0.946662372701199
0.912949751930895
0.92576856014954
0.921753906669319
0.957632032446239
0.956297217296121
0.962521344852705
0.974286478227379
0.986988936205853
0.959200382827808
1.00907789995392
1.06996338362059
1.04826297663317
0.987476975331965
1.02592872246511
1.03019222850054
1.04991200917375
1.00891563466421
0.962865870402938
1.0093918756168
1.01395819055049
0.98313733416635
1.02947278697042
1.00886640275484
1.00639570631928
1.04435301980128
1.09304451757829
1.02095592262511
1.03982214085627
1.05599778632714
1.09382987614484
1.08061425587814
1.08256790681009
1.11352631299414
1.1640983586218
1.09018855769322
1.06172217310623
1.04727750055087
1.06417339058286
1.06482218368712
1.10694921708787
1.12843554258936
1.14143367502905
1.13806907274749
1.16297479148881
1.09200568923234
1.09792466636808
1.11929665035155
1.13088419627302
1.1608111863166
1.17593286787344
1.14858633685943
1.12618569470427
1.14059715580055
1.14473937513832
1.16769653096166
1.15811256141335
1.07363626526517
1.11575483850343
1.11262801289026
1.11890225293526
1.13578318536126
1.16250228545354
1.18134079739829
1.2268011221259
1.37283198908641
1.24150245773552
1.10246378514428
1.16086487230422
1.20440079807816
1.21079511497758
1.1905087738388
1.28080127419819
1.27194275744532
1.18449448326285
1.18126520713535
1.28404898635783
1.21278773569682
1.18138405805392
1.21108235790515
1.21946279561053
1.2644289920414
1.32051911728876
1.23177115872814
1.24202556643906
1.30152669070737
1.25964376454772
1.24343528017534
1.22218348724676
1.2530157484408
1.25846039322028
1.26422606564933
1.29780267657536
1.27519863637595
1.2749957078953
1.23830230092993
1.27673471999623
1.32255323897909
1.29471709673424
1.3105379898586
1.28293528768336
1.2860629256329
1.27982716153642
1.18421343723336
1.24317370706794
1.34048570664611
1.29578833270802
1.35862295370804
1.30840483192645
1.28991248259329
1.36101717049449
1.27926121832629
1.37009528629424
1.35596491830064
1.19238766063691
1.24292464951965
1.3437146008186
1.34732830153312
1.27967333302013
1.25823488489187
1.34040154316087
1.39032037985589
1.27653872994999
1.36008237370617
1.3472957673573
1.2753100143216
1.32086489970027
1.25795540385717
1.25688318862142
1.32044355455678
1.33837460076413
1.29652876871773
1.34690464304997
1.34828524671555
1.35001859533036
1.28262790554622
1.28487579997389
1.43233499374673
1.30240633461204
1.31762253999141
1.33404739450531
1.32194054319068
1.40161654336525
1.34778151997416
1.32502637554482
1.35321220190452
1.31619185233405
1.32713344489845
1.40007398589948
1.33186658239568
1.300433319886
1.3355669350622
1.36426782823759
1.33747280917044
1.34083389165446
1.32666602087933
1.27546324780436
1.35131830578942
1.28762441438387
1.34754949370497
1.43296352484507
1.3522491532023
1.36745500339058
1.35439943302864
1.3186700658396
1.41898738499726
1.35112583567563
1.38118678259204
1.41515097486193
1.4071435900954
1.38681620051013
1.31774853535841
1.27098427645328
1.37323030984753
1.36668738089388
1.30216672036679
1.2785202864173
1.33431822978633
1.36300108938393
1.36694965504352
1.33499747229768
1.35736121973781
1.32127173076303
1.29342561038751
1.33884244844645
1.34377754747329
1.30691414181584
1.31198583104954
1.40589485311222
1.37822576293862
1.33327885014442
1.41225692541935
1.39619797111086
1.38465619383787
1.35411876653373
1.41463276705094
1.275980935887
1.25562498588064
1.37499112767117
1.362633890789
1.34582351410611
1.41174779339835
1.28562101717628
1.28773117432038
1.45688783681395
1.31932614764135
1.21063252223686
1.36869688835048
1.36237278508164
1.26634591714581
1.2881152357747
1.38578928664105
1.27462308421707
1.26768604220082
1.3331588924266
1.33078085572835
1.32348235137086
1.31869852383714
1.35348989381469
1.29395422180569
1.31906067422348
1.3596693242232
1.24584471324215
1.28412947400473
1.28846248983872
1.30764875251173
1.26528355239377
1.29428674484388
1.30239091948182
1.29355841349376
1.27249445949975
1.31987523221407
1.21066977256289
1.21496633357995
1.26015934398962
1.27710889869805
1.25282792178127
1.27936017418852
1.25671567019607
1.29199519538796
1.30147079339827
1.31721962758061
1.25100244007806
1.20763130271564
1.21853460213337
1.26225095451985
1.28637039157878
1.30240701888352
1.26503798134543
1.27272903895438
1.2259789780002
1.25980666428798
1.20427677875142
1.22977484359844
1.28297466091454
1.20741951313651
1.25201775641069
1.26162265721978
1.19672212411613
1.23147994054027
1.18247958620438
1.20554505418861
1.19922846758477
1.21407454138368
1.16517616359273
1.1897028532341
1.19883943832722
1.17005402674599
1.14461297896002
1.17093526868362
1.1483923853703
1.17869761983606
1.17656705672816
1.19775001246498
1.13974322505665
1.16887832197983
1.15267821927371
1.13581274414365
1.12197257435674
1.14752551643053
1.1179460684988
1.12194341298609
1.12860726794029
1.1678174697272
1.1218747097492
1.13039965716053
1.09920109114233
1.09122102500472
1.10473980937032
1.13500423708933
1.08519961044392
1.09112172397813
1.09094205680273
1.09772388287647
1.03443967554869
1.07567203091557
1.09253012515026
1.03238668099313
1.01683984277372
1.05771505952898
1.04888528277937
1.05346672723845
1.01621597085322
1.05526971718428
1.04393091098865
1.05978752621046
1.01818267966519
1.0837418405106
1.03336605625686
1.02615717270467
1.01006843902901
1.02636234053345
0.994466095337472
1.00221059030988
0.983837914730776
0.968100507445091
0.962348618852577
1.00162980083432
0.949068306077417
0.977269713433064
0.988145402764959
1.00242407957535
0.957992876987887
0.942967454251641
0.939514357860379
0.951855153205337
0.930066696836566
0.941358018712217
0.951491252715077
0.95351074126958
0.916148398678407
0.920688305957793
0.908870774053038
0.908051365969848
0.91728004493694
0.910397383873873
0.895938939396357
0.930220385396759
0.904322606680445
0.906394462403761
0.88344735837154
0.865835382213212
0.872702819509451
0.885496363670475
0.857402208418969
0.860361058745227
0.858191364834813
0.876893432231681
0.847523532044536
0.854471864392194
0.8451424111831
0.817979064253471
0.839462701456684
0.854520918780787
0.810372148455511
0.815443365436463
0.800304081767828
0.839287581901983
0.808634742310979
0.8092528531033
0.807266236908918
0.806781107004485
0.776283992866982
0.772382322180798
0.77771435943498
0.783080458847344
0.772895848552993
0.797457885648458
0.766252509166337
0.775919340520064
0.763470370669258
0.748363564816128
0.748951945415302
0.756601424746948
0.74623356761515
0.742245025807621
0.726037861152281
0.741539590963342
0.716491842332331
0.744545189457158
0.726491965187989
0.735860018217677
0.710137272651328
0.717041910987904
0.702176409032803
0.712587492011198
0.708249652935523
0.697805322706327
0.698908126682971
0.698420870547935
0.685421939351073
0.686091967460943
0.670898415468788
0.679190630908731
0.669422944781421
0.673542986571639
0.659098979374575
0.663898922834855
0.662566129832257
0.659381746418165
0.647447396215653
0.671553710125395
0.660414561928536
0.649991845789153
0.63858145992295
0.655120154283183
0.632878933471642
0.626065888921839
0.617044041623248
0.63100297359005
0.615593992063563
0.614390607991563
0.615266740741686
0.628828682562293
0.59539922495879
0.613828794508312
0.595990843538145
0.597566827219545
0.586581233297326
0.597238464336961
0.589645135451583
0.597106015889093
0.576489734536163
0.585434516469165
0.583335239427789
0.595534376695528
0.568585802915931
0.574986031858275
0.560443676958081
0.575944472776713
0.565056037687764
0.566109281504997
0.554902082056923
0.559170061460605
0.542279251505695
0.551114968371565
0.544665456212764
0.541411319400943
0.547924437702741
0.547954241995623
0.524008917142063
0.535095448875645
0.515140279345522
0.522823345077671
0.52825708156731
0.528783368546225
0.518152244834846
0.51526661075178
0.510832831075388
0.524621702018087
0.5105658368756
0.508512578506674
0.499718872549069
0.501889442628759
0.485785656963139
0.504335007902909
0.494767431364868
0.495341687189855
0.491339113837778
0.48948291354405
0.475833758319272
0.491405996689262
0.473430466388121
0.485453297413321
0.471661521283183
0.470467601929446
0.474036332043184
0.466774579219637
0.467667964626389
0.465905109916648
0.465787618477937
0.462682266797399
0.448570795600112
0.460715504632614
0.44970936596408
0.454642324872345
0.445239467296708
0.449818093403697
0.441521320907108
0.452276169432917
0.440540375424544
0.446949116805108
0.435259172962249
0.441648505950258
0.435206938474614
0.441454748690377
0.433578919796098
0.439710708581866
0.432151042456952
0.439796609824739
0.428352908281821
0.431716089336162
0.424531830270581
0.43075697198304
0.421323834711974
0.42288075330983
0.422762721738357
0.430371376165282
0.424076541503809
0.433098383622414
0.42012317258722
0.428764116650741
0.422068340883975
0.430255987689131
0.431544477367099
0.429752263871774
0.425552609777289
0.430350414324381
0.426217468012366
0.439205970059005
0.419773429849698
0.43688626935462
0.439569291884133
0.434377146462644
0.432184598008318
0.438403164577647
0.429364661564994
0.444666741074381
0.441763337931538
0.45093161836188
0.446710139364387
0.448683090147724
0.450933539946522
0.453295729503038
0.449325882219588
0.455367649766417
0.449610516709037
0.461297126420693
0.453260407654061
0.462413842741855
0.458499867041919
0.464897062605841
0.457760277086888
0.460733507456183
0.469390052134594
0.470621860133736
0.470462942010922
0.479996369784782
0.470197371456245
0.491344021099557
0.474241571012857
0.492359878335386
0.495533373440982
0.495416271981441
0.486706063908574
0.501853051850071
0.497745944849009
0.509364535872563
0.49931669458004
0.50954274989444
0.52238756414262
0.527178086622328
0.508638554444455
0.538432169699082
0.535526606223786
0.540307954744084
0.543453716849421
0.553420646106574
0.545120022608295
0.558281590277654
0.548260193583897
0.557386300055184
0.551666558557781
0.564809969603435
0.563226007142292
0.566539344085432
0.563683197040551
0.568688536673455
0.576933006717904
0.581340384835303
0.570970931632396
0.58605480288547
0.572700045698518
0.577414483651862
0.565789516894808
0.567154667480607
0.56265305955073
0.574182797114797
0.561339312946796
0.568925540449749
0.562955424001051
0.566019822210818
0.553922322185804
0.564419555592378
0.558365556504408
0.564219650783354
0.547120833617682
0.554965014573253
0.566152833514824
0.561525957393487
0.547739826033491
0.549836157397318
0.541689036864568
0.564127730778056
0.547032986922469
0.560728532771202
0.552745969190062
0.557906234993922
0.557754044742016
0.558142521625694
0.548194708995919
0.555216986315097
0.547816392360332
0.55614874821434
0.554197447245616
0.556961025823094
0.556504929876507
0.562829949474858
0.548602960424359
0.552852596655655
0.556889443424819
0.558617272659782
0.55001346970853
0.556601319004798
0.550534998896137
0.569183045560511
0.542942123835629
0.565957879316521
0.541364239818356
0.553656455518659
0.536701625280307
0.549664644248822
0.540342052086187
0.548283625645113
0.540097795839876
0.55494476782511
0.521978817215455
0.536281932313389
0.52508094104224
0.524327678566825
0.512421419986155
0.530142665306755
0.518421257019074
0.520469993189552
0.506999529032186
0.515860616148204
0.498357819142169
0.506462154990987
0.490872501097678
0.500152012678284
0.490476734142622
0.484423981557396
0.494612065915599
0.490253746306986
0.475474399500934
0.471820569310488
0.463643600292253
0.474013764466205
0.471250677616371
0.468589222188017
0.450378438005022
0.462208637371317
0.446908446621373
0.459638633985494
0.441903768242829
0.444074463985304
0.439541057984192
0.44584184818
0.433299241901993
0.440387339051439
0.425076826123528
0.423017112660551
0.412954492989354
0.422326496644615
0.412870654675672
0.424794826246715
0.41048353261578
0.412122809530525
0.411572971616131
0.407198117350345
0.401528992976561
0.406713754766514
0.400712602063714
0.405607016162351
0.396622346750458
0.399539369507652
0.396214335933225
0.400854960433786
0.386235520620207
0.396635877408756
0.381633099949651
0.391243966662129
0.380547863474627
0.385939797526657
0.379784411971624
0.382095792495012
0.371311788792194
0.379613763740802
0.366879529550107
0.375355470891873
0.367617435624874
0.369325586909696
0.368007242343134
0.374309289602427
0.361133329433843
0.364768628183654
0.360488804406294
0.36259255209096
0.357699259885722
0.365341259151521
0.354360253605997
0.352274397325737
0.351436731500424
0.350942860939555
0.348710399905876
0.350192099652189
0.346887443233678
0.34732224659917
0.340767145702275
0.347682168650298
0.34421205800537
0.345796028644212
0.343597044449688
0.342083343979558
0.337033011887624
0.340574052865064
0.332147093629301
0.340521698356665
0.327756139270043
0.337902505368333
0.332369600573024
0.334097016815354
0.329891608329276
0.32552983240805
0.324405113506471
0.332419515256236
0.322342492596896
0.329256476465053
0.315874567988196
0.325396389665414
0.329033192898109
0.326781449994845
0.325247366756878
0.327688488437881
0.31987991517345
0.323215805355723
0.313467949619057
0.320489377102714
0.314606896255403
0.322945482549037
0.311624261491828
0.315977923677596
0.314621485198006
0.315005148043683
0.311615733683658
0.31059737842963
0.311225032068934
0.31517790663468
0.311181966957718
0.309226160765085
0.308506608771682
0.310597104839749
0.305709610784695
0.310896905997055
0.304194362967496
0.307702548334135
0.305372409936162
0.304088980471319
0.303143055828798
0.310085911989967
0.299884567764503
0.302804182841561
0.295768197180276
0.299787920206995
0.299611739131482
0.30033566437117
0.291659968791453
0.30455798924566
0.295537772589205
0.297415768702431
0.29135448197336
0.299945297977558
0.293123631041744
0.294169592546114
0.292812899892166
0.300576601287948
0.295175563649194
0.294069008826534
0.283945293075846
0.291843619696681
0.294492202218241
0.290166830308841
0.289737948166202
0.294003660977605
0.285806955507194
0.294964428663271
0.287048776986254
0.293170684847313
0.284988952175944
0.287845044935491
0.282911225555706
0.289894097737274
0.289202548575009
0.288560455507746
0.283504503492762
0.286725084302807
0.281184555571298
0.28831057412891
0.284895068094561
0.286722242789308
0.283966137090708
0.281694855737531
0.279651809942918
0.283965517808103
0.277220699682181
0.279134045787598
0.277006776394616
0.278347321923907
0.277727088880505
0.281671388363214
0.274023768754456
0.279707138741576
0.273304620843796
0.273524543742168
0.270743860567231
0.276866278699602
0.271879255084704
0.271725555113199
0.270270385666388
0.27001342398856
0.268792391030326
0.271661704496874
0.266324298614945
0.270790387108632
0.260505212224331
0.261566421973379
0.262126217603472
0.26940480231272
0.263373644895496
0.265852859723845
0.257294572844128
0.263959603500838
0.260439174524393
0.262711280171533
0.254298154144915
0.266600144113633
0.255314107417914
0.256990379176512
0.257281177542348
0.261053239598803
0.253935567192011
0.259689108411001
0.252493755550391
0.255598220600949
0.252420435126322
0.252583915027051
0.251455922370907
0.25570022312794
0.249223475961607
0.252900620512731
0.247856002677812
0.250341328032168
0.242900461613448
0.248814521916036
0.2467293712893
0.247407177230061
0.243883141512576
0.246659278990092
0.246073977987854
0.248896287996918
0.244003767836828
0.249184206894796
0.239071787279449
0.243262928842229
0.241401017571233
0.241992356780166
0.234557121945811
0.239930920181322
0.237316177990581
0.23677178440267
0.235165183347075
0.231396043240362
0.227836310142344
0.233718834642356
0.22526982652498
0.232006399697914
0.22885202093834
0.230140011263922
0.228574182485143
0.230498571390873
0.222661708482024
0.22437794728781
0.223657711849897
0.220426284871172
0.221452107848575
0.220814320244195
0.217824122762236
0.220506075604634
0.216674291686814
0.219556933321071
0.213935044257595
0.217227164247757
0.214765901006874
0.214623914697028
0.211578461718675
0.214804881181975
0.210157018672252
0.213328250282794
0.210684795519658
0.210473257666897
0.202894661148307
0.210070132273271
0.205538847895054
0.212361734223988
0.2058781770468
0.206800559237434
0.207238435018956
0.208075140373952
0.204007677950373
0.20634120839105
0.203705570206372
0.205297012078469
0.203028060492256
0.206251363477101
0.203253473644244
0.197450072110576
0.197830679795807
0.200323700246118
0.197178069090558
0.201908047620429
0.19877239285226
0.202708338420044
0.195967311676827
0.200393972917572
0.1965075473592
0.201394821729084
0.192690790809273
0.195024155619352
0.195539198136999
0.195946117415826
0.194881290956641
0.197509197167001
0.194947506401022
0.193532664041622
0.192355852309777
0.194137338815052
0.190221316671593
0.19202671579959
0.187156334209365
0.189481506989873
0.189385208089541
0.187431575389438
0.18697343882892
0.189868294539224
0.18763221864802
0.188130046508008
0.183780987632814
0.187129116849102
0.184628740673678
0.182955458761013
0.182890712766455
0.188106079451215
0.186831319828579
0.180837692134584
0.182774205565925
0.184686811698684
0.181392242494288
0.18315829027431
0.181854987811086
0.181953908266746
0.179864998779869
0.181647679492069
0.17833528352563
0.181761837460761
0.177363718704669
0.181467629188639
0.180675107504227
0.180451349516861
0.178095566535099
0.178119465413734
0.176292866691153
0.180351420458107
0.178481422303343
0.178063430021737
0.177650642661372
0.178684023507052
0.178717952112303
0.179015335386237
0.177149110790451
0.176697709933327
0.169848976727911
0.175779151422106
0.176807193520596
0.177941166976486
0.179522875846802
0.17623602697732
0.172872700982626
0.171337585270895
0.172803588788731
0.174944761521683
0.172708076160317
0.175948457098932
0.172808465570727
0.170931866371403
0.166658195714778
0.171120798379222
0.167828287856682
0.169537903848397
0.168811114983441
0.169330298440306
0.168038956637582
0.169252876667585
0.165260398380551
0.166472601918669
0.163383338867906
0.169509834866656
0.166856961587693
0.16443014426828
0.166553767921933
0.167118533328911
0.159558510263855
0.163454802870076
0.162595486036641
0.164497383094411
0.163906677148404
0.164950726357248
0.163992800514031
0.164539285075212
0.161941665368554
0.165646975968792
0.160274873772943
0.161004798616662
0.162923405924963
0.162717345156376
0.160795318206239
0.160109185722084
0.162250294406179
0.160847913006461
0.159982377273543
0.158724319322373
0.161058312379666
0.158123461028208
0.158305900665667
0.162482412008683
0.15826275979445
0.157974024460714
0.157880543312296
0.157429890012275
0.157499251473931
0.158396941417818
0.157506594253321
0.15698582625309
0.154442935137259
0.156864045545312
0.155660658881243
0.156536337212522
0.153737603128182
0.155815593947495
0.153857731512195
0.154580124583313
0.15242782096357
0.151011443051959
0.151781528849466
0.153343990038144
0.151375133000284
0.148863775766275
0.14679181003698
0.148395331554368
0.149559807280726
0.149055832723851
0.146966412394505
0.147317687667499
0.14671241567546
0.144369402760612
0.146321596604522
0.142595028516344
0.142848129479286
0.145412500015544
0.142659266053063
0.142964328561339
0.141630303637648
0.143622561605489
0.141704199497466
0.140001255646686
0.137354356645543
0.138121975636303
0.138340826578249
0.137873177232028
0.138753448246028
0.138908039955052
0.13870831225061
0.137915698847519
0.136771729230709
0.136440642853231
0.135503594421106
0.135546817678322
0.136819376776371
0.137470086620452
0.135250469096602
0.136987847521459
0.135121550994193
0.133778141746012
0.137338914125771
0.13632249893567
0.132533592947231
0.132129478120372
0.129985460688292
0.134142186543101
0.130626937623747
0.131308418618099
0.13030963894252
0.130647757309907
0.129957334905269
0.130675995314591
0.129505673241188
0.13092681368764
0.130218378680384
0.129145387370751
0.127722073274249
0.126559058693784
0.125861504051174
0.129284242845486
0.126035613482026
0.125969232906042
0.127638611365409
0.124629881973241
0.125141280251498
0.124638398219555
0.122053315002743
0.123279698691735
0.1218624498014
0.120305472210938
0.123888244294603
0.12065438383677
0.121697938898544
0.119655800778282
0.117957527762263
0.121372634416669
0.120201022506652
0.117083843571509
0.119601005290658
0.11788408853882
0.118852236078292
0.11867543943635
0.118978381930622
0.115141209933348
0.115718102550353
0.113502777746001
0.117060872676188
0.116466206586584
0.117108095782348
0.115412064105201
0.114366549930982
0.116770937696443
0.116616724724783
0.113994552628312
0.11677467501982
0.113930270471266
0.116505941350615
0.113999712915065
0.116225087245141
0.115610224204613
0.115120121071126
0.114733372597554
0.116390499750741
0.116367924264092
0.116816888741174
0.115809201868552
0.11789500829644
0.114618874822252
0.116092673449955
0.115905377941053
0.118717425895481
0.114109128308344
0.120011012368971
0.112898420062251
0.113936608583587
0.101208539109697
0.102056165995918
0.0992093861501513
0.107752979162617
0.116246049273948
0.113650337694812
0.102268296372955
0.0980758669024236
0.105901466129392
0.110750908088241
0.0964737697200657
0.109012640595515
0.101300843888783
0.100983940539756
0.104276932772054
0.106182702026008
0.102845681802989
0.105958206718577
0.100456736947327
0.10955455501473
0.0998302198690604
0.11273219633027
0.107085488387158
0.108416584205922
0.101902153829188
0.1130581447461
0.0989107703904495
0.111508541381606
0.0977387243512612
0.110966676049553
0.0967973233886948
0.108300625238038
0.0940650027935989
0.109553695876249
0.0913901875215005
0.109703309742985
0.0865183904168821
0.109191884214114
0.0871120412535114
0.103815076403571
0.0884639007931737
0.118325571348462
0.0966104489453234
0.122343951275792
0.0872535889500568
0.106857744637366
0.0896474027967204
0.119657212581339
0.0969568543022448
0.117448776749326
0.0899461851005759
0.113196757584313
0.109342403194778
0.111002011388317
0.102819185970246
0.102211489672043
0.119772562085821
0.0933376838630026
0.117900836679012
0.0986037492657774
0.124534506189728
0.0891862399445879
0.127784382419539
0.0931549382315956
0.118726583393511
0.0981801660308704
0.116028568474462
0.0992549214519922
0.108842644734849
0.106494600148589
0.102381627956953
0.105439267238477
0.106341054357655
0.106202585374291
0.105893793952697
0.102767671591911
0.109303001818042
0.101734557644554
0.109289392696945
0.101152446863566
0.106920658700112
0.102151999168118
0.103615659008913
0.101162631704109
0.104474066085795
0.100792768132983
0.103773668683528
0.10073396719691
0.102625161219478
0.0970715689097805
0.102060143432739
0.102116763057147
0.105522036639249
0.101361721226881
0.102987823283915
0.100077868032421
0.100989707921786
0.102097647755975
0.104995441911002
0.101712426305456
0.102773255275517
0.102174755058321
0.102902607339319
0.100698868137794
0.104319958973073
0.0997469632901381
0.104938828741886
0.102890191604536
0.105304485224045
0.100027195571223
0.105510203810367
0.100942005099505
0.105334933719094
0.102262381480569
0.103202209490041
0.100042761766152
0.105448960794118
0.10419124854379
0.105573338653203
0.103323424874685
0.106310858079983
0.103288859639314
0.105303134654739
0.102071738311004
0.106042397216524
0.103021195180268
0.102324483851228
0.0996141650377877
0.104254811728626
0.10251767350158
0.105141968746131
0.102822132080208
0.105034765737624
0.101547300175222
0.105427419172558
0.104701844452644
0.106093362325205
0.102516679869089
0.104557188477841
0.10256916368601
0.103450841218817
0.102000001357631
0.102971455693695
0.102660678265394
0.104821678725768
0.103225702228252
0.103824549856322
0.102644895796549
0.102804261168418
0.101802816467007
0.10563958580047
0.102170812438567
0.103251249693675
0.104464123389195
0.10429193644247
0.104205918315725
0.104994990619462
0.102873135312656
0.106025573231359
0.103292849180638
0.105010467712048
0.106119740135818
0.10650576455383
0.104568702221843
0.107124433376744
0.105368593929195
0.108007556651324
0.104507133066421
0.104636194976337
0.104953097300801
0.107883171349583
0.105676187484269
0.10527548887355
0.107165458753683
0.107287482392427
0.106429880420208
0.109297917990643
0.107834410161903
0.108927610740761
0.108531802097077
0.109540072852576
0.10750632123011
0.108397428877449
0.111000873755854
0.109766962665349
0.106794225882776
0.10987605876815
0.10810874014495
0.108882497150842
0.110202738142127
0.109720020672851
0.107386471776536
0.108847379042377
0.107298658182389
0.109459425219462
0.109619095201777
0.110104506771326
0.106511438573261
0.107422046845712
0.109365289152589
0.110284204967009
0.109836218558078
0.112335481967529
0.110545412566633
0.109638191296589
0.110155603066774
0.109897922382451
0.109344432719024
0.110043129621527
0.111816821676002
0.112199954668081
0.110875748457083
0.112401410604592
0.110881820007765
0.110439099108813
0.108749802186645
0.110922872667704
0.110688079599972
0.11314723066347
0.113301707346669
0.113521913787803
0.113933081224974
0.112811494172731
0.112808840452979
0.115472258928067
0.113484691123672
0.113720965368566
0.113906802936147
0.113033413079969
0.112212524509645
0.114817859568457
0.114221632530199
0.114502417135812
0.113994207205865
0.113318630955175
0.111548145508633
0.11358173841512
0.114089546302962
0.11526462923121
0.114492749965999
0.114946756252032
0.11502647385915
0.116105685507185
0.113354972496061
0.114838451509431
0.114555117150075
0.11296662721323
0.116441652168646
0.115742525676908
0.11276781709361
0.113134241619982
0.112081019720247
0.113013650614301
0.110313970315695
0.112185080215805
0.113877462874607
0.113083804595588
0.110531143271167
0.111386845841271
0.110398413604292
0.110236404757494
0.111956015106737
0.109257153694698
0.110063434304552
0.11014344496045
0.108762363415535
0.109152304054094
0.108208595502451
0.109503107854143
0.110624387759681
0.109911306875013
0.111507735318554
0.112130435075704
0.108615127629531
0.109133724781372
0.110119019832153
0.108096479295137
0.108531814564457
0.108778889156649
0.109370869260107
0.10752495094249
0.10823190854516
0.110873513591782
0.108499586036185
0.106619531135559
0.105951636418067
0.108002134723239
0.107780751268129
0.106686313974206
0.108726533726983
0.109446999482417
0.109242350902577
0.107335774997242
0.107892249888042
0.109328446502631
0.109199035772583
0.107631061183961
0.107150831996172
0.10824131025107
0.105770374818808
0.10522086568115
0.108017238768724
0.108515277633549
0.10741539978602
0.106588204668058
0.107334120847431
0.109023028940152
0.106651908963317
0.105941437175128
0.107617413209442
0.106352193145351
0.104212053203175
0.104126302193318
0.105592067734469
0.105375976680368
0.104241793734669
0.105293244267149
0.108115953352166
0.107191871283683
0.103472521641872
0.105972935120851
0.105071786647629
0.101666471362513
0.104213458076378
0.104026389490663
0.103480466626998
0.104315699272757
0.10364292900355
0.106010486318077
0.107309863097566
0.104316776112819
0.102863177132701
0.103120937689159
0.105274144963797
0.105263008663024
0.103563549219228
0.102796957224855
0.102450010792154
0.102067616531138
0.102918607876515
0.103207478638537
0.103196312807775
0.100710732273589
0.100240232691432
0.10050491998773
0.103778219743193
0.103745426652354
0.102787810458672
0.101783298257053
0.101787748474568
0.101139340238423
0.10113584823146
0.100869275156829
0.10312920829161
0.105456899714455
0.102234281218799
0.0987080749319501
0.0977330299525712
0.0978424920723432
0.100879245197352
0.10093726285917
0.0991715704627178
0.0997495777058163
0.100438137148687
0.099705596517032
0.0996929246283101
0.095277000389818
0.0941874007164014
0.0972981709685567
0.0987138919229659
0.0941020076005723
0.095640609586638
0.0944895343493068
0.0949919474935011
0.0942129076048627
0.0949104910161956
0.0927461835613144
0.093174935978131
0.0935651428338991
0.0962764709847128
0.0970180066565846
0.0947470438924151
0.0933134187078402
0.0928661695675816
0.0904780786799383
0.0911677369091233
0.0892734450016142
0.0895441876286956
0.0899044013832504
0.0902427002272904
0.0889189385721837
0.0895584081024079
0.0902930513015195
0.0887563582367076
0.0863490757628816
0.0883960586520431
0.0880219357224253
0.0878859845627892
0.0863748042647163
0.0866049086169428
0.084512051066881
0.085550915692389
0.0868050094817218
0.0851629991124515
0.0842031018409619
0.085821186421086
0.0951535713736828
0.0979097789464824
0.08919992705037
0.0860905945232325
0.0884430178908805
0.0876767547727481
0.086175404773419
0.0835041839540939
0.0829642340126422
0.0866953673964862
0.0837672850076425
0.0819101297050003
0.0836399527498515
0.0849323171446715
0.0852976687009652
0.0823429615227451
0.0826420062410438
0.0823853235176885
0.0831479803224778
0.0856715064552623
0.0820208453087574
0.0815192225322238
0.082294123115805
0.0816529416847329
0.0815880649569364
0.0811586245987188
0.0851309958909104
0.0899441177971219
0.0864051362376449
0.0850017343038859
0.0815338445812353
0.0816534867253232
0.0802797541908197
0.0806868521046821
0.0803049062211005
0.0811692884881743
0.0808000394524944
0.0797451584684959
0.0768001160507235
0.0791606740725953
0.0808680658764413
0.079211063803758
0.0783710025903862
0.0785550000546959
0.0763997363411496
0.0773144109748023
0.0770117700098501
0.0787625670036991
0.0769472647638613
0.0791468671094101
0.0807585749632438
0.0795275927874624
0.0731309717984294
0.08887997908252
0.0927221355293636
0.0842291559310196
0.0749714370871696
0.0775181543076571
0.0744344461923169
0.0764486567812981
0.0754527322275107
0.0772617604676683
0.0736045376143047
0.0769585273825198
0.0756602705501925
0.0779793765408095
0.075974439984251
0.0746569917678023
0.0748207479644993
0.0767796537093093
0.0730099987343292
0.0760279555041083
0.0750402607301457
0.0757292609710361
0.0801267653453692
0.0901603749720633
0.0812509097040625
0.0787356803791716
0.0705849835530849
0.0806033559550615
0.0956882983412514
0.084832217200841
0.0760771529385317
0.0737026111103735
0.075407287618819
0.0757636353688666
0.0755377747083824
0.0706138197870895
0.0783743227522766
0.0801935290607945
0.0774873593729281
0.0769040595323102
0.0761868213797466
0.0738317724674994
0.0729951715487303
0.0735264010460987
0.0730170206789143
0.072159844713137
0.0726320896478889
0.0744280779243946
0.0714507103896843
0.0694785430671386
0.0721365139222242
0.0706942550639278
0.0794341778880626
0.0799910175408385
0.0730628737665486
0.072347160760417
0.0730463415431908
0.0689038589521134
0.0834364849931521
0.0847287931761384
0.0767990741641556
0.0717877308233225
0.0734580949654244
0.0712229445904099
0.0706481253809781
0.0730622703220202
0.0716502440464653
0.0729535253565294
0.071357037089367
0.0728159538064596
0.0722576484957292
0.0716547591531579
0.0710708303151179
0.073860613526946
0.0687769218429049
0.0730753633043461
0.071331845797846
0.0732394605310423
0.0721889529651573
0.0774801063906998
0.0966636124942359
0.0956794660411009
0.0892927118569588
0.0836471447381614
0.0783153514865327
0.0700303848275652
0.0737044746557772
0.0694574783041787
0.0746530072163496
0.0733998440243925
0.073979619694418
0.0732234468259521
0.0764900304350936
0.0709509009285794
0.0717219731550721
0.0676854339542568
0.0735635415005324
0.0718004317237976
0.0747658963617686
0.0682264096571788
0.0704643327464871
0.0676835539839166
0.074757110374511
0.0776951383853606
0.0827075979478697
0.0717004314227991
0.0753491230780252
0.112524686891928
0.090126515994008
0.0843782251149654
0.0720348165377091
0.0781200602583186
0.0712352281443912
0.0729719035535187
0.0729901764129827
0.0792124397743801
0.0717902661479245
0.0742913352374957
0.0723128923128288
0.078101283976979
0.0724774022019111
0.0703075831555931
0.0979612974180903
0.108681151690764
0.0832545315211246
0.0799631587675466
0.0688216474873142
0.0978015609711296
0.0960384175954432
0.0825191224127492
0.0771784978136398
0.07877201439589
0.0747600262030902
0.0753912979287134
0.0732039090929229
0.0776861445800018
0.0830363335621199
0.07706353286346
0.077712663505574
0.0734987235964304
0.0770574342956391
0.0816702875366297
0.0792357000168554
0.089441812970098
0.0832410945824382
0.0792576298949311
0.0831649836785804
0.0799460647150678
0.0773264053511503
0.0795825851214138
0.0777741906368509
0.0777560449339532
0.0947512581596321
0.0908025846529818
0.0862323454068134
0.0964421384227848
0.0887599676588881
0.0791038425264679
0.0824483503807826
0.0918483041578784
0.0891155637403032
0.0736227626741445
0.111924085171302
0.0962299386141462
0.121047251074636
0.0936399979664074
0.0904950189001742
0.0774831066515727
0.0865411301440428
0.0731317409622335
0.0917962170803514
0.0988321415904215
0.0870816803734237
0.0862071116396191
0.0796523672203412
0.0990943822173759
0.0937824010837342
0.0939020814307477
0.0860790207838559
0.0860620902026749
0.0855295065643128
0.106446791517746
0.0795534381891639
0.0983960992438625
0.11398972441593
0.125450152231628
0.115658758687855
0.0902581135815124
0.103574527422343
0.112915391591965
0.0985292437691155
0.0912806497929257
0.0851705082015546
0.0937009415792325
0.0826802847016618
0.109130118148675
0.121934294840865
0.0980134844779609
0.0973110153808878
0.0932897241926699
0.101887604952323
0.12096841521813
0.104572294098855
0.0948298438438023
0.0993917686879429
0.095555600810151
0.0999975172561493
0.148491065830241
0.108943515713002
0.13755688114669
0.11994624730728
0.133250439202137
0.111783854380057
0.121812286567155
0.103955773505611
0.131812505370618
0.123011579485823
0.116086063722192
0.0983254894833006
0.146862213899944
0.123076705539906
0.123842146660224
0.112863891894883
0.117155676663531
0.117897011381776
0.169746275857891
0.173297842408358
0.158414911379368
0.119926045025017
0.137576763679559
0.142708726703957
0.13027587869235
0.121646530411949
0.122456544098514
0.122295121398618
0.124168785852901
0.127736812289845
0.138394132298533
0.126329663350021
0.138940397506624
0.125230059549975
0.148579663684671
0.158687326327822
0.219352213359559
0.160996662774543
0.168166107645782
0.168448738766443
0.17318123328839
0.157350843247948
0.145493786718423
0.149230900188758
0.156935442459836
0.156389588923446
0.152907693773112
0.157910230566201
0.192949052602791
0.167202086213714
0.205186255044963
0.171862176925659
0.189911546578936
0.165200964491729
0.235973603619422
0.289484484778746
0.218910437255645
0.209684859200724
0.193992287531315
0.251274531903264
0.241042817819922
0.225205479408328
0.209965151502303
0.215244211353785
0.214401899527699
0.231533457127231
0.234072750245913
0.243238775467383
0.260498819750944
0.249290995466063
0.253299995672539
0.290853803703598
0.340745863220097
0.355280164496908
0.291002944444977
0.296174892408537
0.310775392315008
0.314146747423501
0.304180168605871
0.315584861585253
0.299603234730071
0.360736999142548
0.353731316923995
0.357210676899256
0.333035405487974
0.37414136850218
0.370093749637603
0.374982237193902
0.429630260523635
0.398557597418011
0.407449242115377
0.376822588356161
0.407651899185276
0.39127049372012
0.421316775856403
0.436800725689764
0.439333314923474
0.432684995583899
0.433995998488447
0.436131640323297
0.443575786788444
0.461909055046964
0.45394564377
0.470169461043762
0.513231469765444
0.522976794864971
0.635029881781598
0.505877031624026
0.504351224594904
0.46460029232483
0.512660888590907
0.512106861618295
0.518064917685933
0.552327052012583
0.514527123835858
0.496459072681233
0.485387005049385
0.496189185828944
0.488696950613899
0.496753968129528
0.492184010903601
0.492109764413619
0.52771626889991
0.491741234550899
0.5734318571804
0.539369233600095
0.520614808164749
0.473365356842064
0.495984225011907
0.475125950044666
0.494450449036984
0.45749408412618
0.507050858554203
0.481843537292177
0.483638213239701
0.462748425475235
0.465899524666872
0.492583696542263
0.482026065302492
0.467152131620473
0.449067458920741
0.448873280812841
0.455902348574126
0.426664380524737
0.484756661495875
0.45731399248205
0.447367162549081
0.420764849771166
0.429470816971116
0.407218188272647
0.41445695973639
0.405311046237592
0.425980778372229
0.404524451011666
0.410611928663225
0.394243077484049
0.401122585656793
0.389588130822496
0.39358918675024
0.39501084594269
0.392089672676311
0.388617999929247
0.390012111240024
0.384175625079151
0.38622573832223
0.379667043904762
0.384955802500607
0.376559626818836
0.386085652011459
0.382022927958003
0.379245677162461
0.379915463150486
0.378124922649994
0.379707957061932
0.375594225574141
0.376877271596003
0.375041961102157
0.374023304474232
0.372203730553847
0.370066635545153
0.372092312962144
0.370486097342079
0.370047449423301
0.364307768873957
0.36545799179261
0.363525041276261
0.363304753585048
0.371734555274827
0.442210764090116
0.376120803444527
0.377636911155635
0.344084123640141
0.36966029567737
0.33565141227825
0.355121919296796
0.393343346419946
0.377902840549217
0.354100585919241
0.345156647108287
0.332922227344226
0.37057357724184
0.334406256206119
0.346323570830046
0.33196281855092
0.330393140029048
0.404610857129775
0.383066624527147
0.469975409119918
0.404190422763955
0.354439747181988
0.312781780171702
0.373331447001757
0.341960931131859
0.332931295509268
0.319273472265956
0.315577238440586
0.375283238655621
0.321722745084043
0.324211599912173
0.304318438693256
0.309541272458878
0.349317792896069
0.341995672997577
0.325081877183223
0.353726220879968
0.345347119970064
0.343417585080249
0.365652642365146
0.389025450718975
0.328204755802046
0.295208070342131
0.299014112148531
0.283754639269251
0.32321744262619
0.346181030483064
0.297718864333071
0.308641268408351
0.268599760652264
0.283310496743638
0.274616962746667
0.321174431703402
0.270881875493874
0.316454079708006
0.295711197298654
0.277862360167629
0.293415571406325
0.291782472651285
0.338081920551845
0.324544124738303
0.279826375923407
0.258757849910892
0.325114585610375
0.296833583819262
0.284700565904189
0.277443827945873
0.247380363889511
0.273231897953745
0.273122650630064
0.253128242723594
0.28649104431093
0.271820825614197
0.300601590787899
0.314159056256927
0.341410315021651
0.314103292067126
0.258201206176693
0.248774266967265
0.24289217776638
0.251540451023785
0.242263064442913
0.237121194262654
0.298347331866323
0.235287333488197
0.268963136680875
0.283130171384451
0.258728632783971
0.253245766348431
0.251515422345849
0.24671926262537
0.265025966434752
0.292955137510598
0.318902773198291
0.276037686839631
0.30124355744573
0.288832270844154
0.280015516973299
0.275231189506527
0.283380515510474
0.275997797472791
0.287713314279055
0.304799728717185
0.297764218683138
0.30132115257069
0.311603061952506
0.302269343379272
0.369120055771991
0.338446007690448
0.343420293978884
0.3759516280474
0.374891637956547
0.423602324755579
0.368390548485985
0.377103818346853
0.367702099136473
0.383049993273419
0.391221044823031
0.380329537707512
0.421940319970531
0.43339608916504
0.412185444594608
0.416340756295574
0.414425185786506
0.425679569297302
0.430986902161426
0.487854942677616
0.44870584949997
0.562628317378916
0.477387085880149
0.497787757703195
0.444487715436454
0.455490752086389
0.46788605026586
0.465429378125094
0.454278918156395
0.456850850672095
0.473512153720149
0.491559456867648
0.465160241355591
0.476924676815018
0.460021111178423
0.471653419657369
0.469123822750928
0.474005341283966
0.477057343558043
0.47725906380976
0.488042777489832
0.489678092598265
0.503128475491677
0.59104231941054
0.513307566914096
0.520590382082774
0.503996450940201
0.535346152689324
0.504502002620584
0.524870161362097
0.542908741280644
0.544171174664154
0.532066088901403
0.535735402394437
0.535497106233107
0.536816417555684
0.558863505067234
0.575148676155413
0.53675833120641
0.562608363611832
0.531265519624998
0.63721054281499
0.589275525243792
0.605000114517234
0.573424124379659
0.581516327172633
0.564313837785039
0.573913682846051
0.56579163280625
0.583361276410955
0.579755742727968
0.581147920310817
0.575762344547473
0.567862363046701
0.579219851591898
0.581508706032409
0.573019237622153
0.607497009456291
0.57399610396126
0.57855644373482
0.569573350277498
0.583681665069841
0.55751102040993
0.608769222459029
0.586748081042529
0.582421018076987
0.568173657363532
0.593121510585858
0.599439543686008
0.58981352210262
0.558720342517158
0.576812098018089
0.559002692096928
0.58084047642381
0.551908853737766
0.599689311285648
0.602574359756019
0.592058161664703
0.581815328685942
0.582420562476089
0.581075683790851
0.591112973771575
0.583691806615606
0.589782248674907
0.589425975031174
0.600826765403148
0.605143198471181
0.607559234568995
0.603747483481403
0.617277813001116
0.626853740310316
0.625303823098284
0.612226502909773
0.616852744071233
0.602929340647628
0.623507442854235
0.610811797883729
0.617597641649551
0.5966118151826
0.611917749312412
0.591180554335383
0.60366562597231
0.618748328382818
0.593053751618175
0.602468000610685
0.580390454647033
0.577635037709186
0.575475037890272
0.570313307242845
0.56126001430696
0.568754271344712
0.563596159314418
0.561951192918078
0.554381837323546
0.558595410788863
0.55158822181096
0.552094729399024
0.558622723819818
0.541439054780737
0.556152997919487
0.542432929045425
0.542904738743466
0.539621945462284
0.547163894820451
0.540108314888057
0.536105818739518
0.56034056464948
0.566794194634527
0.566858174120492
0.547911488917025
0.547517921224198
0.545500809350917
0.53268992398156
0.53754592371727
0.533139676641374
0.543849205309955
0.533908886698642
0.537573272266795
0.534219581659375
0.538838551018615
0.527378116216066
0.53261361553592
0.5243785631551
0.531943984593898
0.528684796263925
0.532867282544495
0.518385805036505
0.528613189438634
0.522891573193338
0.535276617733022
0.516555868421869
0.52958198146392
0.516677468601028
0.521600665416443
0.522056090628785
0.52135008474577
0.523603351899738
0.523658822962511
0.515776353021347
0.514322163851361
0.51644612450165
0.517689304777669
0.512337377195687
0.515005646690439
0.512046578926667
0.511023758420124
0.505593302727482
0.506593740788218
0.496590749095734
0.502370642447595
0.493702169789194
0.492472743356131
0.484987815183751
0.48920053290236
0.479929323613872
0.478277899243313
0.473606546578572
0.471472502675415
0.465545081375989
0.466755404758783
0.462323452514094
0.457777715722253
0.461381675534193
0.460286631410039
0.452331706346299
0.45096004985363
0.446021136072034
0.449535760056879
0.447535706282521
0.447740460299649
0.444011715807307
0.446728103198461
0.442020569848514
0.447156086477227
0.446686943156053
0.44658771833989
0.444374017136386
0.450255797706437
0.449438385898066
0.453563950107274
0.450271867829932
0.454704293794502
0.454739780237287
0.458182051472666
0.457445630970994
0.464096064727469
0.460437894792231
0.463835782732029
0.462522526921453
0.468185109877735
0.465248619593041
0.468570767450494
0.475190712938645
0.470004843340478
0.466430893033949
0.470952867756423
0.469520764033387
0.469472849488298
0.468746185324557
0.468740932992718
0.464873822826071
0.468325670653815
0.465611070195143
0.466359358647274
0.465373064254766
0.460626569986078
0.460706709709244
0.461759192606509
0.457959552522933
0.460995744717559
0.457223971489825
0.457751053464197
0.456007037392393
0.455469243634434
0.451204757988335
0.45053944650759
0.447095448102402
0.447701403758639
0.446154781738984
0.443410676184915
0.443555443360969
0.443146398211454
0.437910748121211
0.440403504845383
0.436003197481696
0.434339189165609
0.432984480328241
0.433442308108941
0.428647970340615
0.429408646955595
0.4247860566173
0.421829450269583
0.422614061699578
0.418944524619676
0.415255838761365
0.415149339035123
0.408731688985354
0.408520803061986
0.404982140379262
0.403251623610081
0.399718385432543
0.403813358538618
0.394266414853186
0.395304716970173
0.390929274575864
0.388409771051491
0.38672655367461
0.387202047890404
0.3807400937412
0.383672954342204
0.381867565216499
0.383009741566397
0.379132265991733
0.382763239245725
0.379781771458572
0.380136828308727
0.37645980435435
0.375735327040645
0.373643893304909
0.37149429391866
0.369580273207392
0.362809456314203
0.358813585448075
0.3576714318765
0.352318859501494
0.347483544557477
0.343806202009658
0.338910608127769
0.331938901753818
0.328971593348809
0.325464354277673
0.325963532585396
0.323820059686015
0.322832183858504
0.32402513525273
0.328745225168291
0.32735556494266
0.338735789089186
0.339482621852006
0.351344149942186
0.357363622077827
0.370430680554475
0.380657987322111
0.395805399728531
0.40819201200789
0.424365634829171
0.438086095440545
0.453453822191725
0.470417532217595
0.48741692980681
0.505267130859655
0.52415464990395
0.541814047414922
0.559023175122302
0.579204049612267
0.600058913187701
0.61812487731876
0.64111238864029
0.664500606603052
0.679133680233328
0.696571199856823
0.716268414591913
0.738481511979746
0.749880239170371
0.761584085902983
0.780391516619055
0.79621241879545
0.814503812964981
0.816339901717422
0.830358361419461
0.829541877971584
0.839409796419453
0.831198803927221
0.843824025170488
0.842190387178583
0.83358822495056
0.835550483703027
0.834137636492204
0.832992404447279
0.829692486095807
0.822979848722138
0.820576781745508
0.812667438736681
0.821433620095292
0.814965315777792
0.812204514997396
0.812636370090637
0.814047450786469
0.817577265233841
0.820767744857707
0.830264861038682
0.827477884912666
0.835110491185107
0.839504400694413
0.84509185460072
0.853741865322319
0.85635805194395
0.874366196300127
0.884156757152785
0.898554676663042
0.897310429735169
0.913967062124083
0.936370201872834
0.941901165217733
0.935406978172265
0.951206986170233
0.9573894050184
0.958324270864001
0.973703509511317
0.97383060374183
0.968625852913346
0.970329717135266
0.970679359987585
0.967001672696994
0.980070157364204
0.968780362415384
0.975418559045389
0.966466249552263
0.969409692135229
0.971257432491886
0.980995386300948
0.990603135141581
0.992176791724586
1.00148262659562
1.02205231984706
1.03867648829073
1.02678809233194
1.05829517662697
1.06031343960972
1.06166854458901
1.08472129386733
1.09441128324039
1.09257699373144
1.12634581259621
1.13097687109932
1.13530720086335
1.15487538431765
1.17455749284179
1.205956641565
1.23123662204882
1.23364708206865
1.27073673708031
1.3065652395954
1.30945823491292
1.35264910260999
1.36134855859653
1.4042335703195
1.46019129164578
1.44022651337543
1.44230108449691
1.48172947496176
1.46200985552614
1.51032666976362
1.55992426655396
1.55191826449958
1.51532922897495
1.57384614052286
1.58397572118082
1.56113675935115
1.54074217646547
1.53793658851834
1.51227778864048
1.5650237212985
1.57196454759988
1.49146683571153
1.53077372938449
1.55132172312933
1.50671554819956
1.5765732674867
1.59171776431057
1.55538305171943
1.57488179718736
1.5886012598539
1.53852604758173
1.65320785748288
1.58371539286227
1.66367758946945
1.63074604809198
1.6719755533995
1.69346767546802
1.73023511740725
1.71079125144477
1.66261145796887
1.75284838239602
1.79207909536782
1.74431791753448
1.90876141063877
1.8774157516588
1.83726268568434
1.81278723627145
1.88130667730527
1.87468210591066
1.91538963678257
1.83906587836261
2.02669171437582
1.92372232231179
2.18893353097621
1.93672424112227
1.9066870894589
2.04786125474047
2.1002791639995
2.09452843013736
1.96243919048506
2.17631343637025
2.17518348794393
2.16980321578709
2.28976107136802
2.18160546829338
2.4770432901884
2.25795725450146
2.3346742765307
2.14061161091184
2.2953643028528
2.1293757990149
2.14575541843586
2.16829672641829
2.23358410938134
1.95976329319132
1.92397377759947
1.89590104692647
1.96135202757448
2.01607476586601
2.12161559150776
1.81951601995795
1.88572857694604
1.90099164022781
1.8752819222407
1.73328009928235
1.76718327103968
1.68342253287644
1.71580636230835
1.67602672748406
1.67538689786088
1.62513765538197
1.62634410837997
1.59062797332295
1.61446185538869
1.57560028510423
1.57455494731527
1.50607939852421
1.54325341166258
1.53202782808761
1.46331526582437
1.44119639345565
1.4611064953176
1.39433945461384
1.34607865519531
1.36658554278788
1.28833958987461
1.22061001470864
1.24850009121071
1.17122067283761
1.14618657318151
1.10310089258449
1.05393955586274
1.02508601414045
0.987072791734656
0.957156490122178
0.900286633236431
0.865848544626206
0.83130129828354
0.794560156377903
0.757145371242976
0.728586043001449
0.703784820471201
0.662640289988497
0.64902360528924
0.629194664306222
0.600907489384718
0.58159564967603
0.565622345193293
0.543515025769507
0.54094089325355
0.525199507751827
0.515425811278731
0.510803754062534
0.510020007158963
0.497176303830737
0.493755856665076
0.48466195343057
0.487083293829235
0.48275014233409
0.484044742306019
0.490626508444191
0.48979309339943
0.485564059556301
0.489125402207065
0.491266983587523
0.497757491308763
0.502260002992141
0.502690162073997
0.495402876375481
0.504233839638769
0.504871824352488
0.510877535902319
0.513761827050671
0.511319523868947
0.508252594459963
0.511155095607056
0.506510109258866
0.508411691518527
0.506356681199423
0.50954046290938
0.503335161607121
0.503157930136658
0.503980536320422
0.499815395141436
0.504887720078138
0.510347699833337
0.511119012190327
0.512273831986955
0.513412771561519
0.51606956227989
0.516413191373853
0.514728963696538
0.520771200893138
0.525893734811092
0.523506864303171
0.525369191183215
0.526591216975676
0.521770494085833
0.515526440005791
0.51813045365443
0.523590332679903
0.520621024758987
0.517985273873134
0.52065042576225
0.508313504669836
0.524266807749752
0.516044956690669
0.521773894398094
0.523100673310268
0.517060792214564
0.517709439121103
0.524708380645808
0.528872066072205
0.549091855913512
0.550570463527251
0.547337237444038
0.562449982274554
0.576778640551194
0.584421281302928
0.602993700201477
0.60844136080476
0.622130378044047
0.608096633170715
0.616938678258327
0.610089379639607
0.633675590120219
0.61318843183028
0.605127142396751
0.598745346707519
0.603390164127797
0.585492645876322
0.581838821300283
0.572725108260309
0.556184387600152
0.562218230558222
0.566087325111043
0.557012235169982
0.558222476843349
0.554478378137094
0.561638314015616
0.562551456947855
0.566128629742896
0.556821026640159
0.566029083532933
0.554335666575395
0.557183443686569
0.565930912311725
0.549348016871488
0.555179061750926
0.56078061796775
0.549340299649307
0.559180220286253
0.550714017020555
0.554697793256957
0.550493805039746
0.554951669584506
0.538496040399994
0.552459230888365
0.560052137300846
0.541059000556559
0.524904619806171
0.53398263887141
0.542584309414004
0.548587979644714
0.536540460678735
0.538336067836401
0.537741215064037
0.538656565968909
0.517964418700633
0.533791217415403
0.540773043008939
0.533804224578573
0.535084870617065
0.538123079419526
0.5295081864619
0.540062588313825
0.533693105866962
0.520863046166393
0.515119015580713
0.532941538341151
0.514627425316856
0.518083073201483
0.519151602279188
0.519000756588256
0.503509866873921
0.505283143282935
0.49415490598615
0.498482770543819
0.499328511899208
0.498074302395645
0.487280006083739
0.498228692268062
0.489679816789539
0.51108616820396
0.486933269026956
0.491099666825403
0.496592784243952
0.495019314719377
0.504446046779162
0.499922240470834
0.481971965586266
0.507098214924985
0.511357074723607
0.50939271081608
0.502235177044574
0.517150206122893
0.513351762185806
0.499163986078708
0.499624293597488
0.517215432163467
0.509653172408807
0.519701826173461
0.513129495002044
0.521495988693831
0.521270451663866
0.531452509432845
0.506578463609081
0.539688760184371
0.553799790939752
0.539661082409032
0.541765548007235
0.550817807662867
0.566282371881647
0.590203140033105
0.572506329555071
0.6057953082706
0.622382473459251
0.618500144105341
0.61643407982732
0.641021510585746
0.649429700977421
0.675412925148079
0.707582233099778
0.709797654928832
0.710042184480685
0.719904094240394
0.747409749552592
0.7731873881371
0.74395812220945
0.783650156778419
0.790520601669983
0.777578444202785
0.786328482071517
0.822286352692782
0.784024270211377
0.781066808987341
0.74959191190127
0.744253331143901
0.771706618222006
0.818276834804811
0.782172838592171
0.785494418576666
0.770436888795655
0.754862800058681
0.777879921989422
0.79055218892918
0.780495968629978
0.827842906746006
0.796011503963861
0.754469008662043
0.771912678638248
0.797539601846284
0.781239935778006
0.801076986192517
0.782526188021889
0.769039508139471
0.716014014116855
0.821347557971196
0.789274081077685
0.729349911551356
0.766941144220861
0.732126415507356
0.711872178345351
0.771071485733614
0.747749735989602
0.762506069118469
0.744692204735641
0.759265686900083
0.750479346589647
0.737925730281117
0.7163760638298
0.757499226491761
0.764181303656554
0.758280423979653
0.76087426431726
0.748380167601588
0.760157169459525
0.775236226882381
0.771809462482911
0.832646898111071
0.725628365795507
0.773530424012608
0.737841769778847
0.769116238450601
0.775033225957182
0.75452650765464
0.729145045357806
0.825535152700224
0.786614953222867
0.780884261217471
0.810134269323399
0.773638680406323
0.785049278956166
0.796174817929178
0.857600302727087
0.944980210138877
0.780630943983311
0.808541692516174
0.848405773450268
0.871635306796491
0.818618747103231
0.781167799837127
0.837495695403832
0.836951787810189
0.79746422258769
1.02775856817768
0.940738383584373
0.873296504844973
0.947564339143235
0.928624234415628
0.912017634829959
0.97456240131238
0.966533220613249
1.04384358858377
0.95689576170236
1.02354402312109
1.01118208240431
0.92955804175074
1.00408027685109
1.13523021342145
0.996779549300941
0.890447257709582
0.962484641879442
1.05472880144597
1.02306862043957
0.948665327686955
0.992920569833365
1.03253167154462
0.961538588710257
1.13130179434128
1.01998430160282
0.832379203809623
0.913440489368516
1.18744772958687
1.19645892249441
1.00138251569385
0.802665958695004
0.838388741856827
0.94226276290958
0.989514896316408
0.885094725656136
0.83020231954499
1.04345063564994
1.15296097520287
0.78413183455909
0.853244966168819
0.847311736066551
0.934990726298964
1.08739561408344
0.751389775128716
0.743063216054676
1.0576751472076
0.992193167294535
0.933343403933723
0.837656892311932
1.04414093855749
0.977439296305897
1.04696944210439
1.13477960023294
1.57055702778703
1.4710138156497
1.02078450942985
1.40981369126964
1.4537523664927
1.28912405986285
1.57988128008625
0.855690290075321
1.13680121501659
1.45277751381272
1.23969926477294
1.95638905753214
5
0.766661901405189
0.817570787560295
1.27585425075696
