3596
4000.36533379555
650.420452594757
1
2
2
0.0749029334850796
0.0781065805638478
0.0809482603992392
0.0817639222534088
0.0826981511959986
0.0902030860965461
0.0897845068647515
0.0845744960808199
0.0813489401527552
0.102838415121688
0.0802072384525007
0.0831016617514306
0.0821789798686778
0.0860299310110012
0.0771031512332736
0.0784434472281294
0.0799697868313408
0.0800942163389782
0.083233694722094
0.0796311725344151
0.0846935886483859
0.0869213251400077
0.0806036505601295
0.0786225716921598
0.0809632946968987
0.0844248539959813
0.0756683064998617
0.081545625949798
0.0800151412462783
0.0873028507608377
0.0733940447905289
0.0810452411342592
0.0825326252781933
0.0789325863675623
0.0766300486512195
0.0856517444893972
0.0736188358354528
0.0749507799267066
0.0733661701728474
0.0978172235691017
0.0915179684574536
0.0774664176624543
0.0807989311716169
0.0854509731675133
0.0844153208003618
0.0855227959830406
0.0845693267847563
0.0800680310793778
0.0798373743801203
0.0868325199476555
0.0782443873965374
0.0856229015405443
0.0974486021802691
0.0928511792418044
0.0733484629415901
0.0978663294128077
0.0912227437087717
0.0827696057358653
0.0845743902831856
0.0813382744031182
0.108223302978144
0.103729477387346
0.0782646126305377
0.0832117917498914
0.0846125097621122
0.0826696698710433
0.0781446119601726
0.0898990208936923
0.0718903553956041
0.0960298481667592
0.0809005741886759
0.104699737936602
0.0930310626053026
0.0897793524257482
0.0865429095471398
0.0846359986248846
0.0748077675507134
0.0752931367598051
0.0667450812299539
0.0933198924932282
0.0821192879020811
0.0862525743229409
0.0736339213551027
0.0814115148895328
0.0839075816955416
0.0997942707757954
0.0656624535109433
0.0925985378405397
0.0966234555526418
0.094185638131796
0.0690365833014651
0.0846135527967323
0.0647920013887563
0.0841240888369643
0.0727316335853762
0.0844574520384883
0.0783661136549683
0.0898826265558634
0.0709877678927436
0.0957522762675938
0.0865478202059229
0.0949578366251564
0.123276049539776
0.0841588829489114
0.154614696602957
0.0954627934244344
0.0839902584849469
0.134160102706551
0.0880514716111883
0.0924081171487266
0.0729784630895356
0.0923623430380861
0.0802585969538317
0.0893064740960338
0.0657963410646764
0.128858247280744
0.0994205136394444
0.0883252891009816
0.0742881172983313
0.0874851480748643
0.0577482567258514
0.118283038572245
0.115733990466336
0.0929441868208877
0.0950325796102884
0.0839274148594256
0.0701855712849317
0.131705266640353
0.114658203049975
0.0821600396520929
0.069856036654889
0.0832519036065293
0.0771435748915431
0.0811856633456428
0.119869223616409
0.0852478208647981
0.0853388387973655
0.0753572323076555
0.121169029605481
0.14565500153426
0.0817086057010227
0.0835636802092082
0.0645949214288965
0.0948139945304706
0.1173607642866
0.0981837773583568
0.0767699419623156
0.0978773950545479
0.085966201141385
0.0822550008190254
0.076629486920521
0.0788851478673817
0.0931893363535479
0.0942392487920222
0.0413905099607813
0.151785248813819
0.156163542281389
0.113006870265772
0.146048684371778
0.0787986973574913
0.0996808441276974
0.0693034450277016
0.087620611970628
0.0745062292064873
0.0867538074185818
0.0654281123390949
0.0938652754731452
0.108977127637209
0.0782278011760753
0.094392062980971
0.110023138457008
0.104271248525388
0.076270445785884
0.169201710537657
0.0858679411485851
0.0836767184022838
0.111878839214203
0.094348187428303
0.067970910163347
0.0901598777980554
0.109126587988104
0.0687046068500189
0.0893791965236201
0.0698736069277133
0.0914042726653199
0.0971329917793725
0.078113700258794
0.0789752255477688
0.0860461021604645
0.0651316912902305
0.105019410694065
0.135155147143171
0.107647313106844
0.0810696834682658
0.0891952931255723
0.0535924379937174
0.136562673037561
0.111457209878885
0.0848104586792031
0.0804100738236118
0.064496130343742
0.0773330473938078
0.0726503625598199
0.0736461123175951
0.0697727700452154
0.0643978024175265
0.127446640379409
0.0922585274602407
0.0906657753086227
0.0730083850122231
0.0924030755878433
0.0734728858182285
0.138149720928919
0.104121068105851
0.0729330871901228
0.0814524774378489
0.0690201360448785
0.0997235294437065
0.0907580888345324
0.078707308353378
0.0801596147179053
0.0757321217332197
0.0758939899061474
0.0720378694734567
0.066775864503451
0.0780833251335343
0.07483838354734
0.0834007059676927
0.0817947350902064
0.0815989770388036
0.0907338895860673
0.080822710248763
0.0750578856886428
0.0824001054340197
0.0721298290930832
0.0945033006262617
0.103705335392901
0.0835159315878602
0.0813662409582692
0.0774994724582283
0.0796157881490158
0.0763558899714432
0.0812098244402766
0.0761703822377464
0.0814194573466215
0.068553984772081
0.12707461167031
0.0735999241855746
0.0910170207909961
0.0660760139136805
0.108555360349517
0.0841203505126236
0.085355130678549
0.0768719256721878
0.079330316524378
0.072624135977998
0.0894542763482501
0.119399497633142
0.0852805021650467
0.077516789356354
0.107576460429543
0.0894976377341704
0.0803216375277336
0.0853761354423444
0.071919956681857
0.169445619600976
0.0920499672056054
0.0892803753743412
0.158732701589515
0.093028098475025
0.105752764317382
0.0903869744401934
0.0700168634585012
0.227067051474687
0.128776757896374
0.0922588725052573
0.0910806741020627
0.115741067540077
0.0743509843968512
0.103372204235926
0.0894202818188721
0.102670803609749
0.116005200849224
0.141050422234943
0.163605252274984
0.0711094234070453
0.132015409333058
0.114704268999668
0.0938282678488727
0.0773756826279214
0.0845535911847404
0.0790013128845568
0.112141697843782
0.101864691531585
0.108102118311869
0.0967924482725926
0.0857225573478962
0.126025788281474
0.0928773983959498
0.0846896703889073
0.0908349454835787
0.102317805772781
0.0765215233577219
0.0925421459566812
0.0794097270571141
0.10657743449445
0.0821446534670248
0.0926152603998873
0.149303454577131
0.101191323947702
0.0932186203823412
0.12756935076092
0.0845081736330835
0.0916113366819368
0.0839114344285648
0.0961812978487188
0.081690249349694
0.0837784445621942
0.0762210880034988
0.123277384419276
0.091529524547363
0.0848640357432838
0.0823947283465561
0.0858700011880438
0.0878879904717734
0.0911877437963744
0.0838393710012267
0.0907891500045703
0.0854823513735563
0.0880130713427281
0.113428278230042
0.138239474233547
0.0750749969594382
0.153329134314785
0.126805119234271
0.0985843613931907
0.0974208004134951
0.0914236630470923
0.101904796540375
0.0871121249907993
0.101742997480928
0.0930087751947741
0.0991965539324265
0.114115634231781
0.108639867451461
0.103606780627668
0.119598070610193
0.172861793294554
0.182801784214336
0.118945437557058
0.114317652818399
0.0871598417943307
0.152608818845561
0.140970850572042
0.14330358669126
0.144489489396067
0.102520659653778
0.118609456208269
0.100719786594197
0.120763626157535
0.108840841048088
0.127963544681611
0.110572950800397
0.131840821041492
0.122641253438387
0.131864852702327
0.120509812553885
0.142774804381628
0.163992171235898
0.147310097536028
0.125823580317578
0.135240014227202
0.120350763358933
0.191635564923542
0.154089699694769
0.209085666679252
0.171796882007071
0.168413691905757
0.196058656996107
0.139450426526616
0.149595060381174
0.134738158582684
0.150384351138891
0.153033176813416
0.157731149682324
0.144568617480688
0.157108270529053
0.158389337930532
0.163429839483254
0.149265960527141
0.165829120134938
0.154411679413519
0.195155496172698
0.17119349439965
0.185470750921705
0.167649237982804
0.202982414179758
0.226737716996169
0.232366938614796
0.18603878640136
0.186619201363686
0.185773606418696
0.175137524228435
0.192690433809274
0.178834980898666
0.2037172322303
0.194324682757831
0.239205633293219
0.223090004776113
0.2349694043738
0.226651898702048
0.191181824087955
0.236031259798003
0.21413436668583
0.231863607111434
0.258421685846151
0.222223530526293
0.215973009376128
0.254170195489675
0.243150243385248
0.233430221987092
0.253335399980944
0.221649071430335
0.230369923224439
0.224124104792432
0.242354286313709
0.24071471140648
0.268409678757501
0.247480021837109
0.2465665960704
0.254026208674236
0.260075510136102
0.254521040083381
0.28859042129373
0.25934182778191
0.266064311539417
0.281624367219952
0.264396688736964
0.285338365864849
0.258135493252483
0.298303507257371
0.320450398935439
0.300481696850708
0.308854916297755
0.274293507612994
0.303940451210017
0.291655626033049
0.296303371314637
0.279598836811656
0.314800799176848
0.299445813085463
0.310254163490478
0.310476644285197
0.309900109461907
0.310920687852262
0.323649689053591
0.317004437710937
0.321354306291126
0.330028593869262
0.348995956945912
0.33472789565094
0.338000270933504
0.374538965240576
0.392901205827636
0.393925534178921
0.391934954580509
0.339657568863234
0.368313823563121
0.350985018301519
0.359470209316748
0.361557903230163
0.395396335085194
0.383767526314341
0.385860267555298
0.378015967416648
0.390561275581241
0.387145156485106
0.403075265608161
0.401628314017106
0.407129899160811
0.410920081778172
0.417280025348002
0.40880191857475
0.440497507734543
0.422672850307402
0.459764589784896
0.413215607212538
0.445799088154032
0.434801411848258
0.433310531103777
0.437178352587395
0.442299442316868
0.453240054628595
0.461635933768681
0.451263863196382
0.449865297787726
0.470141779819995
0.477153334904504
0.476009312937275
0.495478611237771
0.463962974690896
0.491173990606931
0.488407888874331
0.50200883021508
0.487000395124439
0.496117336118749
0.502189140365086
0.531029093560959
0.510404465238719
0.557178930928926
0.546495694114167
0.551467832049334
0.529407368782067
0.552345717665762
0.543468695467395
0.534283629908188
0.544092460661259
0.556212196890237
0.547436438625228
0.564440222810941
0.551859962679944
0.552686818286373
0.53331756356498
0.569567559517117
0.578665408893457
0.567499155274358
0.575895731114767
0.588354634243615
0.579273157647392
0.628887192490594
0.593891882394928
0.593580351646648
0.599587382959888
0.614808958673199
0.610217149595955
0.624169479245939
0.605141175134761
0.618185181445379
0.60893019792606
0.644657630575357
0.624758497083809
0.658317222919047
0.636049079435072
0.657590223803281
0.652972060134798
0.694021868347558
0.656706317999577
0.666226661960456
0.690602166400659
0.663981111941314
0.634242020422559
0.721029001961281
0.702505543253141
0.69655006736279
0.683553672181333
0.701512701149508
0.703923593416755
0.713932861882126
0.687578530976118
0.711235165934276
0.702755104671038
0.729526836694937
0.715716138170888
0.759806571313355
0.708658034665497
0.762263768750309
0.719690821870571
0.747869856265723
0.702925476556133
0.741314080195014
0.753013304634049
0.733473679069781
0.751360005786087
0.771961815813311
0.776821948693839
0.79297546529037
0.765698510567703
0.791864683180834
0.823180659278183
0.810787116688394
0.794767979986864
0.804661497192262
0.822879751770703
0.820022781536821
0.813820548442195
0.825643667005644
0.78353446472965
0.794314565998621
0.798395892121287
0.824578550728823
0.832170827045929
0.841820889963837
0.845775796658135
0.847336423269169
0.806156605552671
0.839248344567071
0.865148120996721
0.864802047162157
0.845728413730523
0.894067121261374
0.854671969852583
0.906133013925271
0.847404243891586
0.890071603068154
0.901437282443866
0.869525707308484
0.891946656158472
0.899244267556696
0.888047754489411
0.895014615321642
0.890958430202371
0.956493138799043
0.914266356970805
0.950759327919767
0.947210365993708
0.94551453809411
0.907683688850321
0.917676650311714
0.920003879062784
0.964265360754824
0.946262836265727
0.96498957182203
0.978559856602821
0.96320923388776
0.954562714675687
0.984524296219331
0.980095307769734
0.990445454527016
0.936761597750697
1.01004317000729
1.00863936866159
1.01580637533211
0.981242042941736
0.951553433567554
1.01080921191029
1.06932243103371
1.02946312105968
1.00666755423306
0.948305835953018
1.0311018511382
0.988127709147459
0.949154750333203
0.954399882424285
1.01227487313816
1.02990212957824
1.02276380218326
0.996465742553266
0.99345723549675
0.98866816883799
1.02090624065258
1.05194369955023
1.02436198005379
1.00565801534911
1.06304000000071
1.03645093556326
1.07177939900519
1.0724435508905
1.07447534934337
1.07131349121764
1.08296864297372
1.03005178174983
1.07194636954132
1.03014938254526
1.07930312565552
1.07279264619154
1.04946836964325
1.03410095250402
1.06514932193135
1.02898058264337
1.06220064411361
1.09096245671486
1.09427390801245
1.1336534242498
1.13900271512966
1.05971271305718
1.02955750531316
1.0219593268934
1.06885920004211
1.14105849445889
1.16117965211721
1.1373350965984
1.14206998735457
1.11989816428906
1.18790369932763
1.11446398840696
1.13246463194524
1.14224280225646
1.09506513225493
1.123068298436
1.14761927378511
1.09158045691172
1.19285736047246
1.16522737258624
1.12404690103794
1.09429641355489
1.0718908616213
1.11834529481109
1.16015505071436
1.16100075587688
1.21546847302806
1.15013694292969
1.10072413972024
1.16594128327416
1.17608837396623
1.14672793964492
1.15596028530949
1.16072355242724
1.17840425261989
1.10977318744693
1.11293608114
1.12430944040041
1.14766269586855
1.15843992586285
1.13250901275854
1.18723372879193
1.13633741858164
1.1113930619339
1.15911387762847
1.14818722855501
1.16968882491199
1.20094781664429
1.20992275381324
1.11860447405899
1.12979640842896
1.15425267684602
1.17779356522339
1.12442295473461
1.13881238014109
1.16220535535146
1.17867187470845
1.16924073307681
1.18459379382787
1.19561395242778
1.1894515226664
1.18012319834957
1.12566032648084
1.15036756042667
1.17869275453866
1.1515394975466
1.16141714563722
1.19076996995957
1.16933786620672
1.13775327743411
1.17039286108884
1.16687673844209
1.17099311791291
1.212892837326
1.1648131117193
1.14733290189446
1.16971411412358
1.17964437792068
1.18589804046841
1.17538146687115
1.18804734717707
1.21144241587842
1.16279904928792
1.11297439736241
1.13483822239565
1.18221077659874
1.16255412761566
1.15606066451492
1.22111828941363
1.1803529978251
1.16175377600993
1.15741980752596
1.16130422331642
1.18596370121509
1.16034930921818
1.17470904347469
1.14640052925154
1.1520310538129
1.14125771044337
1.10138165589029
1.14744065760363
1.16570695420188
1.17188028530549
1.15969918946125
1.15022756804697
1.18770664995365
1.17769756617642
1.15547567479804
1.16342682483895
1.19008674742824
1.19463728568209
1.16834901492985
1.14986177679254
1.15113097464409
1.13848284136026
1.10644642248281
1.13267205854823
1.16259682591864
1.13888256622961
1.15886611166419
1.16060143515218
1.14422875492639
1.10517091917396
1.17657570012431
1.18836267090995
1.13404186895723
1.13950928136473
1.14986087607953
1.13314057829236
1.11723684008415
1.10679277393598
1.13498253842166
1.14737544551787
1.13167546783401
1.12957615541445
1.123289003794
1.12322646216713
1.12496559531867
1.09515274416634
1.10436655220207
1.09793692781711
1.1241011460465
1.14130322417329
1.11297731843619
1.09009827154802
1.09837283149379
1.08702981049476
1.10025016827317
1.1006369215851
1.07632575713772
1.10135964443576
1.09022938289774
1.08333340758768
1.11053971685555
1.06280823166733
1.08813918952402
1.07812846741991
1.06655799454126
1.08130081698869
1.07140135105168
1.06021641138735
1.09795313023328
1.07405087908797
1.06605380852876
1.06089636409002
1.05618706289265
1.04890327301347
1.03273749700327
1.03144493434143
1.05209702379593
1.01356635988146
1.02740209814816
1.01153886911556
1.02241826769839
1.05187232977355
1.03544146149653
1.0291909737885
0.993385851839951
1.01865348290838
1.02060402626035
0.995325160144455
1.01211510147621
0.994802478690306
0.996144172783592
1.00819621448963
1.02219497898791
0.988385932088726
1.01003815054134
1.00509220246021
0.99311679854783
0.982223128466378
0.985601561451716
0.962060118987069
1.00025821482836
1.00431439716212
0.94841485940128
0.946852549095732
0.936788214662985
0.932057297802232
0.946971939936842
0.920621000907826
0.9332266876423
0.951801598791923
0.931527279909688
0.914462261885675
0.918661962615881
0.908204953481123
0.929708875203247
0.896249323131104
0.905945444840218
0.922855972813741
0.922026644438735
0.895046922123574
0.90788104563787
0.902472489798916
0.911882373628098
0.90660788950398
0.895933222344004
0.877905743789431
0.868046103734899
0.851053376942456
0.872307369258354
0.859760891257343
0.870959451405425
0.856280646116753
0.857950659782801
0.853182983439449
0.857921309221904
0.837806038731827
0.849689055424033
0.831941889714591
0.821212990473597
0.820677908260041
0.82017515292795
0.808214724336321
0.796763604900372
0.794436053911046
0.819242017156546
0.811520091299095
0.799630329791203
0.792859476927407
0.816458690856979
0.782452663688946
0.78553798667033
0.777925857074008
0.783660071742749
0.76142871993864
0.760431265698662
0.750227024640872
0.755902943443856
0.749947312399392
0.76980264850325
0.757008484331909
0.750529967821142
0.746834800622213
0.736308307076011
0.736875709108874
0.740372580635672
0.722592952219398
0.719779309727484
0.712773231106573
0.712405236120898
0.701594850155973
0.716867685595293
0.696350775420726
0.706508144432855
0.696041297387975
0.684791792435923
0.694786066061351
0.693511478911793
0.672920095643994
0.675317314619507
0.677427227986405
0.672279897148817
0.669430711595186
0.674886242547271
0.676470290991341
0.670071923555379
0.6490108238468
0.663344734526338
0.651403901802173
0.666937036398069
0.657088348696575
0.647286270602389
0.63288138777295
0.638711667508231
0.634071930846243
0.628523924647525
0.623193345099923
0.631041365926355
0.618272435828509
0.619062415729308
0.610250351700583
0.618529198111433
0.604649055199267
0.594921362106767
0.590071157659544
0.611257998130552
0.596650069843614
0.613665146611273
0.596564675983034
0.588579839962541
0.569935842060176
0.577306281005452
0.566428684347689
0.577474603423793
0.582728883047563
0.574677174132753
0.567910305942355
0.577037949340703
0.562081622467817
0.561052087137054
0.557535066786939
0.555530741017721
0.552406551035421
0.553389377488242
0.536986518103104
0.543045054484991
0.533935232245285
0.539521796659762
0.532495840751323
0.536012375261764
0.524862406773936
0.523736382653361
0.518909674069528
0.522876670485458
0.515011212150829
0.518313385961181
0.519325016838353
0.513793646555738
0.509040349341176
0.514319724216709
0.504191299335397
0.501091997021933
0.502280216488423
0.499792684934029
0.486707699503766
0.493170148081545
0.49128512216397
0.497230322833232
0.486197574506641
0.487242447323912
0.478075235390923
0.472618970850469
0.467754318924846
0.486985047424515
0.480090747168114
0.474103636092565
0.464139934129355
0.466700747892802
0.451489187599327
0.455389889004543
0.453618489994037
0.460868985589068
0.457064412538874
0.457084731708721
0.44987179303988
0.455961617921494
0.451873295728823
0.444160412275344
0.437221808152409
0.443788529836661
0.432473648760847
0.440319293852942
0.430398984160739
0.432386011215588
0.420387970702256
0.430573622353375
0.426421600899072
0.425803089781574
0.424807178964622
0.422928883055147
0.41378719728037
0.419290186469538
0.410110967754567
0.411620702799825
0.402895213780575
0.405612576142592
0.399976490176124
0.408808158852719
0.397104720697799
0.401269138265886
0.394448229181532
0.400407983111942
0.398597152705011
0.399242707754529
0.389036998746791
0.40101087674893
0.395339683601025
0.391429090565093
0.389692802401003
0.401296535568349
0.390333383798011
0.388046774483301
0.387824837347916
0.39412321765348
0.3843018083981
0.390936369435856
0.387156031816156
0.38396504894411
0.379633770252354
0.37918021705366
0.377176444474319
0.384155922428795
0.377598108618072
0.384904276208997
0.379238428505727
0.382657097603714
0.375095426627753
0.383693741363518
0.380209087659533
0.380513839528914
0.379704246576442
0.381592800501205
0.380500854262605
0.387140776397797
0.378459691789108
0.386671641082185
0.380031173049017
0.390430473668011
0.385160568648623
0.390765083542088
0.38424476567663
0.392550847191079
0.388397447548239
0.397004264687951
0.395216949625023
0.400825255322437
0.406136493672115
0.396155927775785
0.396756051401644
0.411361656434524
0.40060982548803
0.408933451637872
0.40510686616879
0.409578796991971
0.405010792475382
0.414066032527258
0.409460273383375
0.423515877630097
0.410074443650365
0.422816134509804
0.422887458240811
0.417708526623401
0.415738529688423
0.421733128599623
0.426849781448961
0.439545678766565
0.428451331768955
0.438796265524608
0.437221248635937
0.45313033518034
0.43923253975127
0.450256230550738
0.454764108099398
0.466780984516979
0.455277906820443
0.460693749939949
0.463152436635828
0.472457296663204
0.466902121173622
0.485557994931163
0.475440046280537
0.487134443872597
0.495253853804204
0.500317149779506
0.497514662348535
0.505234879108866
0.501079493912404
0.51405058854831
0.503123839927369
0.509318654446959
0.512541801898504
0.519880677229919
0.51322301617305
0.521522932765652
0.507652713077775
0.521098227183639
0.525463284766186
0.517611555774911
0.507526771965137
0.52363992867675
0.52066465149307
0.524320022287172
0.511239925676756
0.519156811515162
0.508048593704329
0.512296345570183
0.505417040343371
0.513200128140247
0.501530641473258
0.501955114199367
0.505820133175084
0.507933838717457
0.497108774541649
0.501251065305257
0.502554104597552
0.501724953908649
0.500072289589456
0.505107747847367
0.494126749338133
0.501634687624136
0.49119787298443
0.494919538664557
0.50284239679583
0.506965135552102
0.501972384016111
0.500574178160379
0.498752431829163
0.507431545730878
0.492076886120968
0.498131524991085
0.48983350153675
0.503651965022514
0.493410804791302
0.49810638781504
0.503320937777574
0.502793774000449
0.495046209646127
0.502512649669875
0.491468671054169
0.494179248350602
0.495042319613499
0.491556131026526
0.488654317512562
0.485727486425949
0.487970921397387
0.497243631696445
0.49354002701257
0.487497848519207
0.483904591100361
0.485932437945415
0.484596115784805
0.484057052704058
0.476849396547459
0.479424721012265
0.47361619636673
0.470639141383462
0.460681226431957
0.470438740772324
0.462004532201808
0.461758478408663
0.452333894912969
0.455357592445152
0.45147372788419
0.442976040814279
0.443736003153137
0.438214205127941
0.437575477172025
0.44458726622263
0.431110359779314
0.439781721828807
0.423801447001184
0.423970875278963
0.425105394616848
0.419861447288871
0.420245090109847
0.417067161940645
0.408470291471205
0.409694770731945
0.40969957087415
0.399557128955411
0.393162831812838
0.404461353694265
0.39616518739785
0.390603033017894
0.385806570920136
0.392145463427484
0.38704529875674
0.382151591828577
0.385798982128898
0.381495296363858
0.373117037500595
0.378274360784674
0.3711435678057
0.380059416641766
0.363336391917319
0.371675535756006
0.361659395178394
0.373107678116452
0.366576448679915
0.367358903586783
0.356724750609594
0.359559849780553
0.355181347957618
0.368230370616112
0.358845888952507
0.365927542977817
0.353710156812333
0.352425344951629
0.352257148353722
0.35436794647041
0.347229810199974
0.341139678328094
0.342276516591642
0.348016675968084
0.333971886775198
0.336637544074965
0.332911497362313
0.341530826156514
0.337874686615567
0.334192789111286
0.334595010336138
0.336403295813814
0.327755542191361
0.331195087478937
0.323625433023996
0.330973959116714
0.322901648005463
0.324901565947194
0.324168202943183
0.324111848297908
0.322610204415668
0.322234656207505
0.312958924192466
0.31878979092234
0.313217246978807
0.314741624178581
0.305772054080667
0.319643601724128
0.306007364232596
0.312108742827488
0.306646073519203
0.31234641441485
0.303873314554145
0.307058024118949
0.300275463201211
0.305638193216112
0.304340615755495
0.307205943985453
0.299563666118652
0.305406456195508
0.304023135790579
0.300324205912186
0.29492914572083
0.302293844597417
0.297101205721021
0.299469298925574
0.302039027057202
0.297241785781664
0.291262057387196
0.302336156688376
0.29097073157504
0.29004284792463
0.289805520373919
0.297839977077802
0.292585233745003
0.294478403712791
0.291592412644304
0.294618962931394
0.287403494752651
0.291546417028413
0.287178775216787
0.285422024964875
0.285456622452359
0.287094496139883
0.285234349048702
0.287302204625438
0.281114615725418
0.285078440487358
0.280088520725721
0.280402114539041
0.279680306874738
0.282945754007251
0.277704297598719
0.281677758758341
0.279896088714842
0.280382032978138
0.272684881994925
0.278027937038734
0.273553787511668
0.276249578094461
0.273758229376668
0.277611612247947
0.27056381278517
0.27021672506722
0.270463177737891
0.276111996114116
0.269284895707401
0.27408323532854
0.265602110759318
0.272098854516921
0.270000819057867
0.269217983076287
0.267609122421912
0.271185169458223
0.260887978304278
0.274598009266865
0.261781064809292
0.265055596504694
0.262290846167782
0.274130095609855
0.261317995194215
0.266628891142063
0.268178334773061
0.267341422612288
0.263117843489615
0.263708064527794
0.258585480883038
0.268277226131851
0.261985341896832
0.268414281399789
0.262928434819459
0.259270872192714
0.260483420024718
0.257394702022126
0.25521640267813
0.259459940935302
0.260392265652061
0.257874244850115
0.256478710725967
0.254024256184631
0.254001641093461
0.255618379666124
0.251869250677176
0.258035771740647
0.253616013882636
0.256981777140948
0.249112230242382
0.251488806640681
0.249634336830831
0.250295194333189
0.249612801563556
0.250416398850027
0.245578429957045
0.250283338249948
0.246376205008894
0.245144806151198
0.249167409801619
0.246885021058601
0.24400561431121
0.241140758158092
0.23731791560523
0.243043815355498
0.241046528236776
0.243468529890508
0.241789766096506
0.240313392138727
0.232921824291697
0.241662167884427
0.23609200794818
0.23579285219369
0.234289894251201
0.238283276032208
0.233097883799464
0.237210347683016
0.232961250276713
0.237806989218831
0.233686177678236
0.233881832162369
0.232125596156483
0.231283543597661
0.227035093296514
0.228700633506628
0.228970834310623
0.229091411261272
0.229718372017415
0.227072855809916
0.227591941913772
0.229140762799835
0.224087867843954
0.225427325753699
0.222441118613537
0.224746534790878
0.223505396529483
0.226000290165428
0.217805242081665
0.221768006277254
0.216568124389421
0.221832603935395
0.215442417131742
0.218212066165943
0.218452937110064
0.219892326391543
0.212272540388631
0.215794331554042
0.210088331548782
0.214832890863433
0.207862770679141
0.207057458202432
0.204513365274354
0.21338939302656
0.204961774583086
0.203766509243727
0.200585244901357
0.205708520675353
0.204027139250854
0.202952854078869
0.204184693433154
0.203755331372092
0.201962495932854
0.201182987526468
0.197321117805342
0.197825786484038
0.19430923060859
0.197923545413123
0.196870405541011
0.194164507905527
0.189914347968098
0.195908549287689
0.191187465887676
0.191373969853074
0.188522371889151
0.187474694386138
0.18779468921265
0.189905791408178
0.188056485704665
0.186921082004489
0.185322200322232
0.187741200155394
0.183459343216684
0.185974230705144
0.183028519150386
0.181696838133674
0.181352276498024
0.183120205327007
0.182257746485995
0.183401451350474
0.177768388002125
0.183074335430799
0.179360281861874
0.181202547795275
0.175165320476943
0.175918142915207
0.17666253563477
0.182547407797544
0.177533908325129
0.177285076363597
0.176328408327744
0.174994118961114
0.172956781036529
0.174672264861797
0.173132068618697
0.174614076538597
0.173230511721805
0.170337627613765
0.168085288310682
0.170007103517213
0.170468154680834
0.171592977145315
0.167173987304995
0.167683108945525
0.165653017842232
0.165649916777943
0.162313387710206
0.167921224691574
0.161497784969003
0.169104464320604
0.163260587674058
0.167093620474836
0.164890280869013
0.165675698938305
0.160465425038781
0.160407306603156
0.161117473549288
0.159221049451421
0.157256622599483
0.157872807209969
0.157891469887238
0.162487389062391
0.159280780108197
0.161435370322533
0.159112817129692
0.160134095907498
0.158757455183651
0.160448329506739
0.15235830569007
0.154877868910809
0.155926904199948
0.155642556507153
0.156925872927448
0.159635539382876
0.152837746546933
0.157479173822525
0.154272642250182
0.157260647437028
0.153937162082448
0.152560039160511
0.151935406275224
0.155393693034162
0.152752440655394
0.152477847508772
0.151399880759776
0.155213724306015
0.151075000978038
0.154579128629463
0.151780541623857
0.149184515553153
0.150307685379668
0.152792540933061
0.150890136813681
0.150752482084191
0.151058872869433
0.150102036623778
0.144282979059
0.146891347237442
0.149125478711209
0.15197321120782
0.146413560949697
0.148896165175628
0.143595398873891
0.146650471819302
0.145762623449634
0.14670276321173
0.145135365326992
0.142793104066409
0.145141283784964
0.144636409413689
0.141939159028277
0.144267780887559
0.139989667515285
0.142213657913626
0.141380022613816
0.141926693743891
0.13687965905727
0.141104671917477
0.140458769369856
0.143086446173226
0.13532526879188
0.137142137790962
0.135547365880712
0.137275174328936
0.136723913753136
0.138112304825784
0.135683221410783
0.139679954920034
0.1370493003066
0.138103746733557
0.134278043862529
0.133426540947249
0.137600600375044
0.137272682589416
0.133481122412367
0.132899528124946
0.133575005614141
0.136171920440476
0.132122652100879
0.13293706906761
0.135001917031005
0.136063207142715
0.131579353417932
0.134497908083681
0.129597394527995
0.131521640590619
0.132166612485241
0.130428024880545
0.129996701535083
0.132566917090777
0.130093468929386
0.132705183927143
0.128512248289196
0.128098378708752
0.128672458260719
0.128740219382325
0.126955780592076
0.127672766760316
0.127699551332284
0.127912984238681
0.126879012732232
0.125877891079101
0.124968035490408
0.123876025091097
0.122713892124185
0.125248840963047
0.120404556068922
0.122107197162562
0.125280045464465
0.1240098902678
0.119875523021239
0.119515266607945
0.121368070211824
0.120079183667733
0.119849611164572
0.118095415763087
0.115955984584654
0.117514386599733
0.114308333178683
0.118058991404414
0.114330031011473
0.115652901766846
0.114503493402843
0.114217110129489
0.11171918431994
0.112459614640773
0.113889937312365
0.111299785925315
0.110803901583725
0.115084413570376
0.112864134077233
0.112848522796041
0.109404754335987
0.10950887577121
0.108880666881146
0.110670470371898
0.109454605922341
0.108059144281282
0.109264865846711
0.109795227673955
0.107892295799854
0.109405747374797
0.107069901690208
0.10752770567566
0.106895187922783
0.108259632986459
0.10437230341071
0.106513837465454
0.106701549934644
0.10406278276581
0.103795485195956
0.103273504741016
0.103638580109679
0.102465455090936
0.102186318853736
0.101925069744917
0.103215517588081
0.0996419935069799
0.0990931385488703
0.0996143533965453
0.0999006842240977
0.0984064830413608
0.099800776152315
0.101256059438239
0.0963004338012693
0.0936688400252456
0.0990984514089441
0.0976537352761254
0.0952233267839527
0.0956095172579897
0.0983078172160256
0.0958381142589632
0.0968812809490861
0.0946665133840749
0.0932285672317929
0.0924014572190725
0.0910773555832866
0.0913141656101044
0.0923723878818809
0.0914660540647815
0.0912575067981173
0.0910021043727705
0.0911639616343572
0.092135798425412
0.0887587009635195
0.0864479258256673
0.0890496093790958
0.0888537676746754
0.0873946576314374
0.0890350300638796
0.0870135057203519
0.0883243508679668
0.0874195218434871
0.0870907087875924
0.088967338787368
0.0870929946214034
0.0878725106539064
0.0859515110536379
0.0885288385899352
0.0861151169388324
0.0899265613809769
0.0877366595949158
0.0890220201703428
0.0869466110811368
0.0875862454956792
0.0871516143215673
0.089697665698029
0.087017643863789
0.0875383396540858
0.0878422730326479
0.0895291799135495
0.0896923264607686
0.0909469762612999
0.0876510501384689
0.0901773302254701
0.0842394229880421
0.0862235237400973
0.0738664074556033
0.0735948751616616
0.0719544591417617
0.0820659939914878
0.0823724535326143
0.0853009243274495
0.077470194503633
0.0691863663609159
0.0719227011201163
0.0819108269931359
0.0640828340502574
0.0785659091176845
0.0740034537336652
0.0746100010972865
0.0695695425273562
0.0727325843240917
0.0713095136822604
0.0767181926909781
0.0746191199096347
0.078703230244621
0.0703166389853112
0.0858876795595859
0.0784780214676872
0.0830420671672616
0.0696320088941951
0.0842742726445892
0.0697032796585255
0.0833085196545609
0.0660131805971803
0.0821513792285492
0.0669518314478452
0.0809260149670165
0.0644322195157076
0.0857992091022125
0.0627626906885829
0.0823031157484257
0.0597610852756952
0.0859479872659823
0.0558289238604871
0.0809655034973041
0.0548285514714646
0.0855333605089535
0.0626579027183499
0.0965817303422416
0.0557395935587307
0.0835364574821426
0.0571886066528769
0.094685347610789
0.0690649368817401
0.0927367922166273
0.0561344765613965
0.0862115455248265
0.0765997047243889
0.0855061083261904
0.0688284242103936
0.0754491503854929
0.0903206899575516
0.0663693854204098
0.0897056378328444
0.0683183189128816
0.0960592073556514
0.0605626786896713
0.10137920856682
0.0647841105842975
0.0937183255045165
0.0702449756680231
0.0891063237578341
0.0685533224383906
0.0804115468178458
0.0769900796190919
0.0771442425728809
0.0773180954040835
0.0746387690312407
0.0746173411912822
0.0780703480228968
0.0736543686841521
0.0795877970473076
0.0709836371426726
0.0781344449010261
0.0704169586634364
0.0771014685835095
0.0706963267462393
0.0737660261419308
0.0710879160425531
0.0762978963122449
0.0728489718025776
0.0745303627747928
0.0695169683357295
0.0747944260831079
0.0737074966134616
0.0746768831665424
0.0720065351602192
0.0763515467785295
0.071710437421823
0.0727982700114365
0.0717463883293999
0.0746574113662283
0.0691216795758087
0.0748273680488976
0.0719563049087339
0.0740484428424472
0.0723968097460415
0.0752491475312932
0.0719894565688718
0.0750432128340498
0.0699145499879952
0.072756276544798
0.073589278299983
0.0763719919662149
0.0720775359320474
0.0775669945482927
0.0739930203421282
0.0752936197042637
0.0735294701005709
0.0747153771918824
0.0716516198520498
0.0730930089120961
0.071200446330344
0.0772003074754761
0.0750096286657475
0.0762039184360801
0.074835127535317
0.0759757159162256
0.0724495304258887
0.0753016888249277
0.0710715027663191
0.0753222363658056
0.0693756643937181
0.0734379906443888
0.0722868430399596
0.075915268879003
0.0730307000843142
0.0761323745368372
0.0719951989969827
0.0748971884341311
0.0732178031529256
0.0748928091030933
0.0746183848318943
0.0748747781832392
0.0730114012084507
0.0751920066044942
0.0719093430963906
0.0724004027788352
0.0714869665560633
0.07604381845652
0.0723437462068681
0.0751153078199623
0.0742991725837937
0.0739792435790522
0.073110032135275
0.0760867291023891
0.0714430345298406
0.0730224423467809
0.0742385078738565
0.0765655247820995
0.07439565299454
0.0759599274620212
0.0731277607077738
0.074838358707385
0.0742750174728952
0.0746224151644329
0.0740511059245117
0.0759409735997987
0.0736417546609503
0.0741243547329078
0.0749409244140311
0.077598287974337
0.0746504455398252
0.076056284920297
0.0747947598314664
0.0774535467963735
0.0758882670590986
0.0763664234323336
0.0754684219687131
0.0789495472287959
0.0779632070903135
0.0770793478405171
0.0753156416485354
0.0776594713524738
0.0776273910640862
0.0785933742620383
0.0760701973986435
0.0773923024113431
0.0792498939641681
0.0790945293546251
0.0775395080944405
0.08124039135277
0.0763994777570246
0.079365318824059
0.0788718065896704
0.0795631585192598
0.0780985863293857
0.0792954605297894
0.0784291024215237
0.0798219954341467
0.0781551134090791
0.0790951194158529
0.0766068747436902
0.0769454887797893
0.0792481039213287
0.0795704100941008
0.0801236954296329
0.0812587892038315
0.0789477044466354
0.0798921718176139
0.0781109654484427
0.078660991097611
0.0761664604510686
0.078287043112018
0.0799936021208919
0.0808393229062625
0.0789166864787055
0.0796467002649139
0.0800006346320253
0.0791690752347717
0.0788359425248957
0.0815730619950225
0.0802225560124353
0.0811265833242621
0.0815929348811959
0.0846251926922417
0.0796321013709733
0.0815160011532447
0.0799083519629347
0.0817731462407413
0.0812768794973649
0.0823246168727225
0.0818052638514516
0.0843303952260075
0.0832760042240373
0.0840124542192334
0.081220852850285
0.0835264706383998
0.082545476835917
0.0826709310184356
0.0809315061091887
0.0825411801329816
0.0828024864958245
0.0830924760479731
0.0815843336511088
0.0829747972817648
0.0829090916651827
0.0844161575966109
0.0830711752860167
0.0834413783840998
0.0821094856160288
0.0836585716002234
0.0839985555251475
0.0830414729631695
0.0802661825255068
0.0821293638248288
0.0806472212712159
0.081035525256685
0.0823333303182134
0.0823109226568543
0.0803189857015793
0.0814938361050808
0.0808756012544644
0.0788370289799393
0.0798040346119982
0.079238853079609
0.0798547691512668
0.0783306668313858
0.0789232231045102
0.0802261630665857
0.0789887982568085
0.0794826221844457
0.0782449923098419
0.0791854919978748
0.0797326737498437
0.0807240855643603
0.0788055713566355
0.0768677666122651
0.0780203670439615
0.0786266136628518
0.0809211075850692
0.0789496523263397
0.0778348229311693
0.0787805953487928
0.0781195423603478
0.0783337165372894
0.0786444649042932
0.079471260422034
0.0803366699214553
0.0771082107816207
0.0779946535170074
0.0796842083622928
0.0766865427295608
0.0772992791417324
0.0783450149153408
0.0791183507866218
0.0787075240296297
0.077601533655731
0.0788820385059279
0.0779233765903735
0.0781591126064557
0.0788641238553918
0.0762305003578546
0.0770922265738582
0.0760714275624572
0.0773875802148841
0.0784169984306203
0.0783873431361925
0.077391864370956
0.0760619143940511
0.0778515695577481
0.0793353556784307
0.075564015238356
0.0747833117295196
0.0772254723883768
0.0758859094983794
0.0734335380180303
0.0752544208795912
0.0767902341008567
0.0766101858704855
0.0755491153534078
0.076556704554121
0.0770231870949442
0.0769678833094949
0.0760929340603079
0.0775816117041131
0.0744539118285096
0.0743731560505869
0.0758354010328974
0.0765348827310595
0.0754266791404302
0.0749248243452726
0.0765092517432396
0.0772709915296252
0.0758693314175459
0.074424072880204
0.0769202334186673
0.0751877064209942
0.0744778468198156
0.0753940041294302
0.0750976126608783
0.0733190164901225
0.0755460787684157
0.0749820618367871
0.0742438593935605
0.0754220870063855
0.0756666929566023
0.0735250454928665
0.0741369001808077
0.0737047114016656
0.0729936465747533
0.0753800296610532
0.0739304616525352
0.073593989958803
0.0740979544618677
0.073469847902268
0.0728101607579951
0.074056258961444
0.0767203435571966
0.0784317267494732
0.0750356462626587
0.0712678244471463
0.0696043077563051
0.0713555996216074
0.0726662370914296
0.072287519720932
0.0737527826366502
0.071921699803862
0.0714425235941727
0.0712954799192975
0.072416810903451
0.069474115990993
0.0696564983633698
0.0709528144090427
0.0707577918068835
0.06938534242392
0.0703123567442552
0.0680440719987434
0.0678709426806019
0.0684018766256075
0.0675097253795312
0.0648565017259862
0.0678663905430465
0.0681098778159115
0.0686864558693153
0.0707750985949028
0.0678440023872836
0.0671773949792528
0.0677930675973523
0.0646862200221911
0.0648794931480569
0.0640518467764455
0.0631006292189956
0.0620426519637148
0.0643317719377218
0.0642418086578704
0.0637807034745932
0.0630410553472642
0.0641687448517644
0.0640350400093993
0.0634458320041627
0.0608425091000303
0.0629747336465371
0.0632515930623334
0.061519159733663
0.058409068650541
0.0622661719670544
0.0626958721405451
0.0598771078304211
0.0612011818105889
0.0617814826380339
0.0700498530368747
0.0738778651841702
0.0646917610425702
0.063181368460431
0.0657581336733611
0.0624763358008785
0.0614723262119128
0.059955028456821
0.0603616030389128
0.0632243937857655
0.0610136674329927
0.0603833705435713
0.0620401026355627
0.0625755571834392
0.0611306537478418
0.0610927512772761
0.0611317202710065
0.05863063874101
0.059688008790854
0.0606528573676963
0.0596736436017838
0.060515283669736
0.0599470878999452
0.0596969954485556
0.0598997694695967
0.058649776455728
0.0630488473782919
0.0684579290450739
0.0665650682485747
0.0636338510341846
0.0590351758392831
0.0598948681999399
0.0587215679430573
0.0596009522800628
0.0605053305020316
0.0588385447392268
0.0587092016011646
0.0590230543201473
0.0578557879677418
0.0578330811924877
0.0594613561600677
0.0575459004386594
0.0565191004855056
0.0587008770884931
0.0564282132895031
0.0572611727638615
0.0579901849273097
0.0578238322573391
0.0559817373777596
0.0578969152306043
0.0589772969131596
0.0595477285808739
0.0558147385835058
0.0704881828014424
0.0744032526036777
0.0640751766030492
0.0568533695383517
0.0582326276283011
0.0558448537455779
0.0579784696341718
0.0558289429980811
0.0586215039336358
0.0566313575097698
0.0570896730152398
0.0563203476698231
0.0578675340323758
0.0558655272510492
0.0574867574714861
0.0559284485894458
0.0579815762735476
0.0556352809073538
0.0572390572196634
0.0570943516486843
0.0553599268276616
0.0622147021689913
0.0742502899054422
0.0634744795421153
0.0629038892615476
0.0546570196415505
0.0618589480438171
0.0778377558856367
0.0673091671612812
0.0567822066884256
0.0575848392059688
0.0566955570589313
0.0567793646515826
0.0580886283661076
0.0541059965418547
0.0602719223670689
0.0618550335560107
0.0605272429210093
0.0614411320417697
0.0595167221609596
0.0564358952409512
0.0555661398135903
0.0543177406289102
0.0561220501437764
0.0559240920923907
0.0531583399418025
0.0556119124973102
0.0535066539860517
0.0531237938038268
0.0546759901173871
0.0530553093502295
0.0625633843516865
0.061940224498956
0.0550242717855604
0.0549386147592736
0.0560314024612626
0.0531695325455431
0.0694211653981756
0.06797491129062
0.0588461970642012
0.0553141212669834
0.0557579996701592
0.0548154400216142
0.0550183437898919
0.0557854638832415
0.0546944411450788
0.0565698697974266
0.0549601026163802
0.058459209879884
0.0571644806933189
0.0546952151876388
0.0541405039775596
0.059292102974615
0.0546327697224584
0.0565636928172855
0.0554039829368804
0.0575127506833899
0.0562263765631744
0.0613930120276011
0.0807307786577228
0.0836771414886769
0.0732116844156916
0.0682300157017194
0.0648135214266262
0.0546150364314415
0.0571199112403271
0.054183281660167
0.0583562099240199
0.0576476470105612
0.0586579286068479
0.0568422570159251
0.0618433226327579
0.0562623442032183
0.0556996111426104
0.0543863723441084
0.0564261230692788
0.0545662004700329
0.0573737822526164
0.0529356219517425
0.0582554548215187
0.0533126111578743
0.057919118437583
0.0634670971480911
0.068988988769551
0.0571970939812713
0.0615331096644773
0.093530092989426
0.0774142449794724
0.0726128375325405
0.0590853700364592
0.0606646666271028
0.0557361965134153
0.0584319352253432
0.0580357171797305
0.065372363893718
0.0567549421180006
0.058066344357455
0.0572493442914829
0.0631440618705143
0.057677665192215
0.0559515891665925
0.0805158762394575
0.09306863695783
0.0710413352361614
0.0624429843580648
0.0512093179218385
0.0817733978035195
0.0838378736327433
0.0676948016976616
0.0608456207961763
0.0631584835539659
0.0588271535364077
0.0595285198771364
0.0568512592746291
0.0629342156447289
0.0681528853011361
0.0613195386142376
0.0631217333176332
0.0588335190854969
0.0606633589647531
0.0642774990143629
0.0631632069896886
0.0736823723398991
0.0683654668276719
0.0640007090536186
0.0678558877889288
0.064049909734529
0.0606215013812944
0.0626655099135833
0.06153098133417
0.0633206375207286
0.0785039998623381
0.0743100033190753
0.0724543483547977
0.0826551982325308
0.0735663878209198
0.0653194695554904
0.0673384994507104
0.0758880883656576
0.0720595911551448
0.0586140041306535
0.0953066787593982
0.0843895009800639
0.103375209137328
0.0772096889560868
0.0762451913075096
0.0619637608385226
0.069628043411774
0.0578982128448214
0.0758992298541793
0.0826813504977037
0.0738086096328632
0.0674869172421381
0.0642448139743395
0.0819987446788706
0.0782529639053416
0.0784397898080045
0.0698952756835889
0.0703575511165674
0.0702559268881267
0.0897540590612536
0.0675049684604998
0.0846531575017574
0.0973837035288749
0.105719157436617
0.098967562747511
0.0729971070278652
0.0880604650047577
0.0973100605405409
0.0848436981709076
0.0760272079600946
0.0710014166698153
0.0766393856456116
0.0671099227568335
0.0962326895246818
0.106439773209197
0.0859007919000144
0.0835533153575079
0.0772254759976445
0.08466307372636
0.103146682701109
0.0918103950236284
0.0776519001894064
0.0824570643132983
0.0769748667065745
0.0855053963230089
0.132755822398873
0.0962611946027112
0.117944964940625
0.104585863500025
0.116442366952503
0.0938582207209403
0.10554586758308
0.0854744834470836
0.112220220405763
0.109413585988886
0.0995720747848954
0.0799699389389268
0.127018745798312
0.104387828635804
0.105546604680664
0.0948486106064517
0.0952970246722827
0.102390699877588
0.15357336656686
0.154781233570804
0.139165243670333
0.0984201027295073
0.118433598240391
0.123126813930369
0.109887489503837
0.100311246446928
0.104001883607626
0.101905497382098
0.101584028132397
0.106757674527699
0.117112151221526
0.104727285386647
0.116213765886625
0.10272348035554
0.125773885342534
0.138443428469672
0.198741149404675
0.137038535094594
0.148806999502999
0.147379643481208
0.146813937545118
0.132826244971848
0.120427983308636
0.124045560261986
0.133475237277447
0.130906532239306
0.127576609662455
0.1318115467247
0.164323064998072
0.139444390222081
0.175553063071998
0.147496614070071
0.159562276209541
0.134622345877447
0.207554534123581
0.265826408531889
0.192629775027699
0.179287809074379
0.166682177315106
0.221558780061024
0.219094693446661
0.192598412740855
0.174712489660601
0.181063697011732
0.180240814839572
0.198032374864069
0.201390888257937
0.213085963691758
0.225004429377111
0.209179558879248
0.216195911251558
0.251936313301494
0.302550568359076
0.314368582211704
0.250081062258245
0.244585791571563
0.269119378792977
0.273059147783329
0.252675338665409
0.269947113890071
0.250557875710142
0.313897150675652
0.303800079089515
0.30749007657228
0.27463503883011
0.320407219801835
0.315541411067791
0.316338999975835
0.364825316887489
0.341849761802734
0.343367372136779
0.320982108448681
0.345082063355453
0.327455476298947
0.355526561460442
0.375032485270059
0.376599730230092
0.369683499294463
0.365699772099157
0.370209304453246
0.375458228763271
0.387056671959725
0.381535290750761
0.401479413375176
0.433565331779665
0.47624264323039
0.592009911561403
0.429913683072686
0.426487275041661
0.396467060553999
0.434205952021678
0.440514675636368
0.447057013484864
0.46764053499789
0.432589456517652
0.416759536091788
0.40761200528182
0.418054296801161
0.410080930198911
0.421665388899189
0.410667742653281
0.415271815354301
0.445834839347925
0.405568946942743
0.507633975556557
0.452298513521593
0.439397643476091
0.395799583545982
0.40765570784804
0.387304234488321
0.41160823219321
0.380497387501212
0.416899004705284
0.400816049264375
0.398763498211847
0.379961449804679
0.390559116254237
0.415996008090566
0.408407189634823
0.376603059667755
0.370629155036358
0.361503907827663
0.366260737340969
0.340057079937398
0.414166786803807
0.372098632798731
0.367422987652424
0.333089165532119
0.343560642449121
0.336714285851145
0.335946874913545
0.323377219387803
0.344652251503717
0.327800063300771
0.333906291823203
0.319177530720326
0.325828733506637
0.31017038542925
0.322630763576898
0.322144170766788
0.316401557148256
0.316631761734105
0.311746421677313
0.309168656165087
0.312416875786598
0.304265291462084
0.311994912957284
0.299682975370092
0.312590287466554
0.30693260093133
0.306080495017649
0.305116965857715
0.306462337417452
0.304988506250559
0.299293226600768
0.302278423092475
0.2975123299046
0.296384029579656
0.299426209506278
0.296997313472519
0.296756081104016
0.296913425298469
0.29482855933794
0.29332741173328
0.293469610595533
0.296663366400656
0.294448682247388
0.304201723890658
0.365263644667286
0.302417070515164
0.304547434799103
0.276104037230559
0.30176472478875
0.270933526288202
0.295065875158406
0.334782507520722
0.307813957726546
0.288698914515511
0.280499468391541
0.273053672868071
0.30949672353555
0.279623417314542
0.282768800102386
0.271068650539829
0.278075698795496
0.339172301877875
0.328469706939679
0.415653988625124
0.34710728474296
0.307725000205557
0.262170090536826
0.320531092770388
0.295050268660373
0.280214591634402
0.263402419866045
0.265378493797325
0.320224693844636
0.274116040635418
0.272733019566146
0.254546033495545
0.263687479134903
0.308338337085039
0.298922748924738
0.278137671566415
0.315586289616009
0.289484042823944
0.297368669984005
0.321072592806161
0.343045632382159
0.283292458024466
0.257707057116374
0.255583306291418
0.240492696403753
0.276888073785627
0.293435296042153
0.255501404022149
0.269593798710405
0.226777229055793
0.246539795055768
0.235210496309119
0.280849361720179
0.232802371954547
0.281170668348426
0.259324511494981
0.240340577424456
0.257797525148613
0.254002866027446
0.298715288779061
0.290459368306698
0.245303430592603
0.224311354908733
0.288100519388012
0.263195428402944
0.251303602690784
0.240507323912775
0.20977414117927
0.23885749178615
0.236606855108445
0.21621254713781
0.249763893365548
0.238831932666805
0.268319680642477
0.278344810286095
0.309903044586939
0.282257294568801
0.2200570799283
0.210802241702802
0.203806003644716
0.216377311965435
0.204736653591844
0.205777042712038
0.2656340417311
0.200567202421643
0.235947017411042
0.248528999469047
0.221617773325624
0.213923872943077
0.214111585093255
0.210320325202943
0.225281748173472
0.255733267876402
0.277198775168209
0.232750346894173
0.259486875099017
0.243687990593932
0.241233094807235
0.229221521760228
0.237458151450961
0.233663302788024
0.249669578000802
0.258587789876507
0.254108197947898
0.256462844536444
0.267709032874338
0.258484304706866
0.329783365418858
0.288781664412134
0.291719345394721
0.318986503969587
0.320903902127631
0.370698907262863
0.314018363286529
0.328533734914186
0.317712888030206
0.326476007059373
0.331557304461346
0.326674738075228
0.374366933397049
0.37307301118375
0.360002776758526
0.35956097753637
0.35984480698355
0.366267637756539
0.373910002968826
0.41955714788202
0.395706337789343
0.513247378027991
0.419058120729878
0.437386290848414
0.386914599624794
0.397093395369786
0.403207762133159
0.401737347862695
0.397026984467323
0.39353226691418
0.414627113521417
0.434617954963833
0.406738496303976
0.408697956070278
0.400903547306634
0.408720095939232
0.403713961233159
0.4157036251277
0.409598326303199
0.414321940773682
0.429887097912623
0.416859967686135
0.449655339014757
0.513469709706877
0.444475638744375
0.439728986073054
0.432789788736239
0.462276859909677
0.435721889496099
0.454522061250892
0.474585007978815
0.464684294341183
0.457958402102681
0.459379937906136
0.461335058798758
0.460221635492926
0.486950167831688
0.496113422392545
0.467512054457745
0.486320422174373
0.454609014592885
0.574019656240432
0.504857142249094
0.520311495898656
0.492321389729388
0.502730689120767
0.481362454795242
0.492285651985516
0.488642513725175
0.50059014724062
0.502771979254944
0.501341553220288
0.502857494955035
0.492766871524473
0.495319587002271
0.492595316442357
0.49775319349866
0.522592158129722
0.492903604156761
0.498969940225705
0.48457071054088
0.499156951356367
0.488289826731432
0.530998964616757
0.495326391822868
0.507731877991138
0.488880362306726
0.504171805715302
0.520061362254115
0.508794727317096
0.480286995426377
0.486745242990321
0.47582843511493
0.492506116919315
0.472544368464802
0.512336421894003
0.513796139121429
0.512064639347153
0.488433743587173
0.499892625713229
0.493798323952249
0.500955896875448
0.498424618214519
0.508588617741153
0.513092986060691
0.519799732430299
0.517813975461828
0.512873554562472
0.516956130737948
0.534310753411198
0.543081523623977
0.539933773886001
0.522321818216503
0.535578455880058
0.516690313419866
0.53471126554799
0.525774710979034
0.534328945312599
0.512432365866895
0.525317021006784
0.509599739812121
0.531217922291915
0.5464156438368
0.525051214486845
0.529641034275473
0.505450638002548
0.501270406488788
0.500704035938138
0.498913702893244
0.496458533820107
0.49850132904514
0.500962595452722
0.482399226118254
0.49060628456429
0.488173455559398
0.48664075020682
0.485087042323646
0.486339907341061
0.476707084214002
0.485586368260714
0.475059222101376
0.480096727364249
0.473495407470381
0.480405696882139
0.47025703533603
0.474064963850386
0.491582025282217
0.49657081830917
0.498734731871453
0.483422261265533
0.489224317551969
0.47906714180377
0.476936157229985
0.474804078428889
0.47073925083756
0.47632532940426
0.467310225847936
0.473061118251559
0.465776444277562
0.465117347233396
0.462541871669713
0.465100615277783
0.458859413492917
0.457987334649938
0.454529759295358
0.457480459048658
0.451171422504168
0.454356412841023
0.453734156651253
0.463929717395987
0.450818032393672
0.464432132037255
0.442439542799225
0.4490213847804
0.447847741754553
0.44742395299832
0.448216085542439
0.446466269378574
0.43790902324893
0.440007037119641
0.443849080542154
0.440181897984249
0.439464750799287
0.442314802895314
0.436523046532246
0.436259109791744
0.429671249084089
0.431672848389266
0.42902635708947
0.431979521460855
0.420922665653045
0.42506430101787
0.420033507951453
0.421931857464657
0.409540924352622
0.412599606401297
0.404671523440552
0.409445086240377
0.400191432974276
0.3994312600452
0.396672357263169
0.392508419808737
0.394536464233644
0.393160771947965
0.386274473353454
0.386335825823551
0.380836748139224
0.38428174252563
0.379881537679953
0.380998353844648
0.376709423866981
0.380578516859748
0.379620752002182
0.379724921555723
0.383369623790131
0.382413391712048
0.380349003766461
0.383557471855553
0.37801832592763
0.382285056724532
0.384053061569891
0.383985211674308
0.387315979318081
0.389718166805014
0.387979239291028
0.395144199074837
0.390065474818045
0.391524367431583
0.393360444748978
0.395936021216036
0.392674980928693
0.396861636188198
0.400934307793643
0.400800630650865
0.399808459406425
0.395704957248815
0.398972385350571
0.401121194442478
0.396776541179948
0.398766543330344
0.396273906709549
0.398545106629891
0.396192201630585
0.394443747161717
0.389839918385926
0.394783920209489
0.390255778833723
0.394902809191111
0.386170347428772
0.391810853370925
0.388303589671827
0.390050622611309
0.385642168276272
0.388782330589655
0.383477738508041
0.385154698423796
0.381625720322515
0.381009767483859
0.377854912715096
0.383608399962048
0.375291804325165
0.377615095503134
0.371304793289975
0.37146279867237
0.370304066798098
0.372384445834224
0.367164632299537
0.365489220630225
0.361491300767419
0.36309937357153
0.358539403348376
0.35736044981961
0.354486662381168
0.350682877972782
0.347107392960009
0.347458847787278
0.342286975421849
0.341128014390098
0.339286953971758
0.337277317847785
0.33556860467594
0.332722124939786
0.32868631864908
0.332162962252819
0.326495379299909
0.325998995961651
0.323741164038667
0.320667083615837
0.321418500629059
0.324748310588433
0.32168757490271
0.32508611560965
0.322186279970206
0.324717636989488
0.318633515843737
0.319448780493528
0.317438533435233
0.31470332899003
0.314243221605236
0.312427272949457
0.309727899049473
0.305577030334265
0.300756600522634
0.300362864883481
0.294124544326001
0.289803107346683
0.284544954276056
0.281231399881125
0.274539840104165
0.272556759816149
0.270953051357399
0.267971603228995
0.265799055913066
0.264555612189977
0.265526012600331
0.269912879676968
0.269274814374774
0.272880498409017
0.276872632908471
0.286176030395208
0.291542133563828
0.301463178869267
0.309427114461103
0.318700065998013
0.328433771856014
0.344010531678052
0.353429841045268
0.369530191388175
0.380650893983582
0.397215445521485
0.412793037231791
0.429068003623987
0.446946359149769
0.463980744892159
0.481274366744109
0.504889963811027
0.520575529633776
0.546312926921776
0.563745521926053
0.583270320537025
0.603772666876079
0.617718232610274
0.641871257446427
0.656883909899987
0.681710982465646
0.7027752844678
0.711510047318768
0.724245184518153
0.734721199654849
0.743639122169262
0.75198326253928
0.759426204177833
0.7611933410342
0.761349428368512
0.761000090396568
0.759988544816016
0.757830199561407
0.758236216617704
0.754631822936016
0.744302911285041
0.739800285475179
0.73233886950255
0.72675581929999
0.724275892087965
0.716553281711479
0.716151513410417
0.708485502837893
0.705678062501504
0.707721238237423
0.714851405661775
0.709995637666456
0.708937137078684
0.713720324670531
0.719143860184929
0.726557547873487
0.738090251675327
0.734504056201445
0.746587966696702
0.752763391993824
0.767026762496896
0.775152359376649
0.78276200541152
0.782974267103199
0.797888150911738
0.801637341970687
0.810669448467765
0.814059901001132
0.819428436855885
0.8158047637397
0.833467978954198
0.832036598198697
0.837358319161872
0.834704785735988
0.82901666782977
0.839076293957073
0.836944068259932
0.836294982091327
0.847314166989428
0.84357570870588
0.847548646687037
0.843266823100471
0.855369642117404
0.872761700583299
0.866580300440151
0.868076750404797
0.885797575199267
0.887877553020388
0.890803363337399
0.890783639244773
0.891044423396211
0.910183907178531
0.929149599615852
0.937576425051352
0.938104665901105
0.943447578207737
0.972725481007589
0.980201731329307
0.987405058573447
1.00415516412977
1.04219142402857
1.04151829908043
1.05937234091461
1.10040412293681
1.13022137950078
1.15732517125875
1.19008390922976
1.19705070636824
1.22519193839162
1.24709460065925
1.24231165347286
1.26826984679152
1.28178997201963
1.3146669146186
1.30303989487904
1.2906845272128
1.30693739933033
1.3221971203635
1.31452526443678
1.30477804724178
1.28209823492864
1.31510854418558
1.29741790376786
1.30097029616705
1.2656259728749
1.28666921345672
1.2782924303515
1.31454923646592
1.27744968291639
1.28313357335655
1.30036452586778
1.3140540349557
1.31297920789508
1.32455399779112
1.3439948052888
1.34117626936601
1.3695711153892
1.3975964066645
1.40045464971047
1.41402169406125
1.41528818329333
1.486962117816
1.43994379182781
1.50315448961653
1.47693709012684
1.49978640402451
1.49517581081403
1.52887973519769
1.54530824559757
1.6395839890162
1.60734534241597
1.68154192589428
1.58042816642609
1.69125242127477
1.70285767443147
1.77043635717906
1.74674525151347
1.77029510142547
1.6670970787826
1.73232031366857
1.75200290302302
1.86550008037218
1.85009844558134
1.88076372596303
1.88872119120856
1.76943984362974
1.90071599497709
2.02041275997777
1.90324659925554
2.19386482800642
1.93071071362941
1.97655038787979
1.96030272262351
2.22223056162307
2.00832914542873
1.98166445015933
2.11266297470621
2.00797960709573
1.88512838187794
2.08524160823931
1.84867519768143
1.93416567031454
1.95750359460143
1.90739946513571
1.79496622875465
1.73057993806981
1.82273200449398
1.77902198163238
1.75211674374046
1.79472642513727
1.70566403767835
1.70485291791875
1.73761234545537
1.72814560435084
1.64557904336602
1.71666291799783
1.66636731656916
1.68663373981056
1.62611481753063
1.63409563549818
1.59968729624403
1.62145484077558
1.55236686767324
1.52385721387861
1.5037862524679
1.50221786004007
1.44969792658414
1.47410771904318
1.41988595435366
1.36942835508898
1.282954259597
1.28611322709362
1.23922814185967
1.17793853938173
1.08626583285103
1.06386995606134
1.01421483119145
0.950002776786553
0.901698300596779
0.86138841811539
0.805023556718262
0.770391742929073
0.724951458823915
0.691489110732432
0.661419026495014
0.631646306003446
0.605807482491848
0.580897605918938
0.559945300057328
0.532993497869955
0.51218299342378
0.502760596267926
0.485921428894809
0.479330615038765
0.463779555372542
0.445534357447751
0.446843205520986
0.438190313941325
0.426984916049301
0.42542291278452
0.417519045980109
0.418566396220715
0.419067591522007
0.421032104949862
0.415883297517466
0.419484500066307
0.419565758007806
0.41864325777957
0.421732479790234
0.429150761466761
0.429296372627309
0.438955991660067
0.440027217405214
0.442929777754598
0.445016343738644
0.453312036036126
0.452122630367837
0.45722128872419
0.459310200859966
0.464541092414456
0.464006574064867
0.466759232039742
0.468997039581526
0.468321870017026
0.471523187936529
0.463908619356767
0.470471749474834
0.467985137121529
0.463924501238384
0.474010192234085
0.473142796479632
0.476957987969736
0.476320304310047
0.471248498479018
0.473112266162205
0.476616135243866
0.473062012261182
0.469494606196653
0.468442415260248
0.467429241393813
0.470141054542763
0.469685921431935
0.459397258170982
0.463821663697039
0.456651901289595
0.455188996972018
0.446913638258512
0.445503215667895
0.444666930573782
0.449646287902802
0.443983951997447
0.44544968338322
0.455836461849179
0.449682799004897
0.44863671935734
0.462659889977032
0.461094232786312
0.465184312758249
0.466185849299024
0.47070593945366
0.478547968837524
0.481951021413703
0.496416934060249
0.517191728701271
0.510552288741895
0.516119361740688
0.514685546137788
0.5193611273382
0.513494239980717
0.521211548255378
0.515654165149238
0.503639586920485
0.490376159332537
0.484961623854708
0.472161108500306
0.474872424202106
0.471154248845405
0.471051809902846
0.459184211083185
0.455050916820568
0.444332157720951
0.456842579281115
0.454279551514361
0.459960884996387
0.462118369874038
0.469727998091221
0.46748322129358
0.473940659010704
0.464634156882964
0.46469077489132
0.471314964220916
0.462430845765114
0.460037065952854
0.462619574205986
0.457372978710383
0.467685202364101
0.461179539994114
0.458676158617734
0.468669051342497
0.463879787126633
0.466468696927042
0.467638758463435
0.464850447460931
0.456566933334697
0.460204815920216
0.471027773216117
0.461624965462735
0.466558597332686
0.470781171130672
0.465521054655807
0.469277303295463
0.466766435184351
0.456284099917548
0.457198070945719
0.462901400498228
0.462185956363602
0.453926997481837
0.462897253978011
0.465286922279577
0.465842029496968
0.452314261273955
0.457525577162924
0.443156088218272
0.457445179515362
0.436800101582517
0.441122874511151
0.443522523616732
0.445579544386142
0.43584439169917
0.429341419018133
0.427672009233567
0.435655208781307
0.41584211565505
0.416734722213797
0.405280269089164
0.41576070222078
0.399010593104007
0.403436869112149
0.408834523706128
0.403067778806901
0.403956276002618
0.423719685414015
0.404266842592382
0.404924204628089
0.40708438775993
0.418066569003315
0.407006986035957
0.417858823324336
0.410481171838779
0.419610201412427
0.413784087471087
0.416526920732466
0.427508649593483
0.42373734947236
0.408673662811786
0.434228890124925
0.434872729690484
0.435477287173637
0.431830689040526
0.436850936583473
0.43881587077262
0.44921812247417
0.436557620470898
0.455064957132763
0.44729248367249
0.474669779992511
0.473799698718698
0.471639537166804
0.497911171541722
0.507070668826027
0.507615563807638
0.521968424529025
0.519013495696246
0.534092030394498
0.525136059803959
0.548930586922699
0.569688881663227
0.613510892930077
0.579393830819209
0.581256981724839
0.613799955098778
0.625954641695667
0.628009907026625
0.635270173811114
0.614859122617861
0.649395643541064
0.639588968621198
0.667169130887616
0.645140459327553
0.633254029808759
0.652230507818345
0.643361661723516
0.650976758078576
0.66364519451342
0.66859546619723
0.655133662248719
0.61069757904713
0.69515621635952
0.684432827910652
0.648194220548496
0.642268814014356
0.654737579069772
0.678195406716424
0.676137699882993
0.668253889400085
0.683367722094211
0.689715730544738
0.688976275194979
0.677876936260553
0.715396388664036
0.648723680312111
0.672838685428387
0.65995322607372
0.642973190610305
0.670158623826986
0.668873310652954
0.631605255580813
0.650176032060132
0.647829369870857
0.660221285156689
0.626952097454781
0.626788458541517
0.626265614319582
0.635789957495597
0.597587733990423
0.651918570603421
0.614532956626976
0.643650408615873
0.610816327717617
0.641247362460305
0.639230223818023
0.651103276683403
0.645287543020826
0.640825614752349
0.604520795157335
0.628782536121494
0.631948324432478
0.646848917188928
0.65952266116754
0.639427478411001
0.664367759193627
0.664829086498759
0.680157439028345
0.697469751892734
0.660080377998251
0.647982854788144
0.645473131495083
0.708723600455945
0.651936891355435
0.682797542401457
0.678430115676824
0.695108694371678
0.68129841871972
0.764559108054458
0.741653041731767
0.735390190480578
0.716395872491294
0.710079664151177
0.750460593396237
0.777845903151053
0.728126990468532
0.814609750769957
0.799554673782266
0.770562329555068
0.801918873330826
0.894897562239217
0.851196995138814
0.889170348661261
0.845836260397662
0.865082769160469
0.847936585037243
0.819430253278526
0.859230988014976
0.918154174358748
0.88336318400524
0.877905951185379
0.91895841613998
0.82294614659031
0.869925837857148
0.948754670335584
0.785048756113973
0.827125389613123
0.683921865709331
0.698125347345669
0.814067454687833
0.893132545970242
0.946251858924602
0.858982715861399
0.823560039855987
0.905095611974458
0.798135246350942
0.845545608558191
0.956859659147991
0.907678727095124
0.644674748543801
0.705427822757266
0.905257746771059
0.967081710047282
0.701093784607305
0.689715393301292
0.9803086507704
1.02174012711721
0.801361401885339
0.695283035375312
0.797222304118513
1.04189000907536
0.901989598462906
0.813813324109708
1.15184697619649
5
0.833070284614625
0.660472764640111
0.808801175675476
1.0805829022413
0.747476934729337
0.851462665550339
0.946009579108318
1.28072828213764
1.16652120651879
1.25817578424229
1.0761074704662
0.864439952569805
0.86865118965497
0.897207045280273
0.834353510872238
0.559530177061031
0.623974558031385
5
5
