3596
4000.36533379555
650.420452594757
1
2
2
0.101092213541299
0.097408599918791
0.107522023943432
0.112509063461123
0.0964667608456029
0.109336547635918
0.0992482057204737
0.10328671458296
0.110140752017555
0.107652599729423
0.10925730676871
0.109380026729683
0.0986524295688915
0.101718444754823
0.099766151675513
0.107386175365211
0.0952268211405441
0.103244422478682
0.102768413224559
0.102724233718162
0.0916959999642861
0.111350798218575
0.102324442947955
0.104600068121165
0.103024104298144
0.0958599420991021
0.104351556209661
0.105877809088402
0.0981513891741892
0.106754472737973
0.101502973730328
0.105660111819631
0.106164125578705
0.0995334523734587
0.0955713932545294
0.105077492393814
0.0961067269329808
0.0935081269452216
0.0882923539565783
0.110582644619678
0.102632872038172
0.0985068349785372
0.0949254962989752
0.101146837888782
0.101605644520481
0.107814360030108
0.103456116161483
0.0932233946512368
0.103676857145903
0.105232307072249
0.102199689864994
0.110737855105447
0.121228873040401
0.11613142746212
0.100481562743032
0.118575099569842
0.0999730701722964
0.105451385981565
0.103056240004761
0.100898429705081
0.114026986787266
0.116811836109796
0.0891628801264901
0.10089881653012
0.104679231676243
0.0972733671784422
0.0973967112405974
0.0994248501140855
0.096687627010353
0.104285625752925
0.0994997776520982
0.128481270360471
0.114397679618816
0.105434855991399
0.107328732779067
0.0971189252892356
0.0899929338940789
0.0968893704651015
0.0920998572936813
0.11614930551299
0.109865699535136
0.107961286205153
0.0892999100289959
0.0962532403509687
0.111653708524363
0.116124111928618
0.0933476421660261
0.114367071353627
0.115721813056745
0.106266903708125
0.0953789076785112
0.100812318447458
0.0787800006995375
0.0931984577961863
0.0823139315595208
0.099777347619995
0.089996478899682
0.102728719531361
0.0899815307021009
0.11822778161332
0.108736096802483
0.121064571384153
0.131974923892532
0.103198592951315
0.170963232811239
0.105879399404431
0.115006586575029
0.147134597979341
0.101768070710162
0.102935356122178
0.0875412316350182
0.105189412545382
0.0935591397380338
0.103647806703822
0.0797768825655936
0.150594794257579
0.117799103765005
0.109657005556224
0.0910611032300284
0.107231209489806
0.0766715926727758
0.139357329113771
0.12218348939932
0.106683008425262
0.109738870586309
0.0965470284797872
0.0950165459536299
0.156314424766983
0.121660343747957
0.101845606840825
0.0865398145164312
0.0990850776705744
0.0857664997040277
0.101999162976998
0.130658551129801
0.10006121196479
0.108436024691481
0.0910148522504809
0.13017629648539
0.149424118353275
0.104078740845886
0.0991531006622904
0.0764395343925465
0.111213015322896
0.128372516080953
0.116775615700367
0.090251403185139
0.12368904445482
0.1002981339789
0.0945604202063451
0.0880588951392475
0.0937431768777573
0.11560452995963
0.109496532220711
0.0574169587508697
0.184615831470548
0.152221066130419
0.14342156400354
0.15588712357841
0.0885211418863134
0.109408754192601
0.0843444200088053
0.0964148896547336
0.0898067921846087
0.107048224801079
0.0800496781419645
0.109262379951743
0.111907058321263
0.0894481750660422
0.112311150768176
0.129661935938863
0.117979626286873
0.109726217964769
0.183021435694735
0.103011525227389
0.0986892487040862
0.126111061753449
0.106501105965727
0.0784823619506355
0.120891822386409
0.11414494446597
0.0857677966249579
0.0948122687472871
0.0857778781616248
0.095061804301793
0.120610714510754
0.0863077995049512
0.101119348726435
0.0947597734040436
0.0935747152852418
0.126102730841406
0.161651237520826
0.125761053085499
0.100435146878015
0.100687920396851
0.072938810879751
0.15315064619517
0.116286341685635
0.0893985978988097
0.0884880286398586
0.084143436894342
0.0878211668400401
0.0874209180433256
0.0961161139221017
0.0881249764807983
0.0833600055766981
0.143774297009716
0.100440083100554
0.0929134027742479
0.086072676981205
0.105281759230719
0.100134613338928
0.160625458472479
0.121891957174545
0.0949835229276606
0.0948154787627162
0.0808963830186688
0.11458511538185
0.107722191845742
0.0917811486905099
0.0913532095788743
0.092242643641713
0.095031215804495
0.0904587461273257
0.0931983963696169
0.0837000737189655
0.0843073544481742
0.0975916124489493
0.0927155841129517
0.0954795084294324
0.0988294364123368
0.0941693209610689
0.0893784489672469
0.0970997583355255
0.0887669073833961
0.114676005605024
0.112159175511562
0.0921920882807468
0.0917999360131604
0.0937497978719682
0.0880343568788225
0.0852569473331177
0.0919597257005922
0.0938533379254256
0.0925462717832731
0.0973097109414234
0.140836424020316
0.0859656490877631
0.104831892497912
0.0800905580007187
0.135128406789003
0.0954688246844702
0.0963830471964091
0.0909686638509343
0.101677742335656
0.0828651636214689
0.113914880175996
0.140054400563625
0.101092813017525
0.0878806156712568
0.124374892019868
0.1038527541566
0.0907271670563289
0.0985472045044641
0.096892315006577
0.190502991395753
0.105050030111573
0.108478718602468
0.168764271304763
0.108950952261733
0.112737309575557
0.106202606122232
0.101082201025912
0.257468139146864
0.142163538137192
0.0924697405436533
0.105945176574195
0.122937722996273
0.0903758753180666
0.11591158914414
0.105392574511076
0.119819463533158
0.136502551472296
0.164810863808911
0.17711336322681
0.0856801407473888
0.146682428808493
0.117122423371363
0.102423646483752
0.0966460852463892
0.102297255118363
0.093522283916105
0.141526218078146
0.115329334447292
0.126760505583803
0.113165310156232
0.109363293542684
0.144585175546285
0.106188590955952
0.100929172810248
0.109674017408577
0.111354709157224
0.08898297687884
0.105753952981254
0.0978432529432839
0.120996069710441
0.0957004873769551
0.123798383771197
0.180250489208571
0.115171120651755
0.124511170746856
0.142948708887536
0.103924886946374
0.106883972889333
0.10009526504225
0.11306511743245
0.102071413483216
0.102331995645389
0.105995840919347
0.147203068633541
0.101887606188121
0.108004821205218
0.100651318605646
0.109591963124486
0.10627222178901
0.110100373008002
0.105601126731203
0.116465725414154
0.103706896737228
0.108852826152331
0.137672240286504
0.156429370188208
0.105967237980609
0.185818863212959
0.141801745683868
0.114239424581756
0.121920358103156
0.114173638415574
0.118131927111293
0.114903852302205
0.127333595686067
0.111248644999008
0.127411478488503
0.142922549223833
0.14164604718803
0.13098425963506
0.141853814251972
0.203975351600626
0.20458465781029
0.135130670717101
0.135367879805391
0.124665697703625
0.193459334204886
0.163310439930508
0.182723884410759
0.167871632375971
0.131304847684846
0.151645094370616
0.120758264935681
0.146807763352578
0.134357888123011
0.152663623433291
0.142739613616636
0.156042510388386
0.153364178848718
0.169975709668565
0.146762300162138
0.176099355739298
0.208355684066011
0.170271181914546
0.159949310215404
0.171944598021547
0.155184339351945
0.220032040832512
0.194753345328853
0.262541184357693
0.212702588030021
0.228401525085967
0.22727051196035
0.179375452259847
0.183919616734556
0.175266922991051
0.192122786999635
0.195885278442158
0.192672825791889
0.19315319510606
0.195891175873548
0.201504138824278
0.205588624504024
0.19769709556127
0.205203852728183
0.205539603633906
0.234287549388538
0.208368642463703
0.233539272845296
0.217153406926156
0.265956341989971
0.288087934765702
0.284989253104872
0.227595774678278
0.228828322082746
0.236745121182007
0.230829708998929
0.242163074714617
0.241721444694946
0.255513477509915
0.252123821293878
0.304838525570357
0.271911058792436
0.298408644518612
0.271657740326718
0.249325364495184
0.297284103836574
0.28637209304647
0.296624361502619
0.316459309692665
0.294589113924254
0.279531510314854
0.317452621995101
0.304181539956477
0.301804514702486
0.3355906662417
0.293264215884284
0.305744996310535
0.299471382598837
0.318172130670885
0.313986279472282
0.336492956545275
0.307027590813462
0.322152828413188
0.325684467010424
0.341178713296428
0.325132602554319
0.367316765795865
0.338890117480367
0.351964238194458
0.358954560377022
0.338810604579515
0.359809165409157
0.347159349580098
0.390769914866507
0.40675963654634
0.386655134309608
0.414142961724822
0.377004848973801
0.388522434504692
0.386892185057127
0.39740539832689
0.380511402779536
0.405480168829027
0.401296614921246
0.393768033359347
0.392384878679871
0.423990208495749
0.395472607367074
0.417061790015166
0.402338285913484
0.421357804619008
0.439233952229879
0.423946881397833
0.436481781630994
0.455746669331932
0.489406122159714
0.4947606413948
0.500466736314918
0.509927794798062
0.459102801707934
0.474514316537919
0.47032853420065
0.484880470836355
0.462828773255223
0.517199198982541
0.480454963599553
0.504586887934737
0.499288643142174
0.529231566259416
0.51106730496718
0.527067004102457
0.5067293535847
0.551092201098757
0.535850528822914
0.542963618308617
0.496905247642752
0.540199396216207
0.555671323386391
0.576429268816043
0.554565996164161
0.584091353411088
0.567961594194837
0.564473603273019
0.57002199941799
0.576597644636213
0.554928562924508
0.587090044849127
0.559269882054121
0.611951938787642
0.584401521055354
0.619633040256098
0.615967869629134
0.613161388594523
0.601537527191909
0.625646082517325
0.624403152717732
0.633594260701844
0.632356770625881
0.657567397851879
0.656810477711897
0.674589409470992
0.618004122968621
0.67422731612132
0.653459213703289
0.676490112446586
0.629753860367722
0.679932901103979
0.697291021909595
0.691874659538845
0.669417314241837
0.701832439559811
0.69279287380794
0.716213574940063
0.689207134638786
0.699399601053869
0.715838460531295
0.724291357650879
0.773378101982435
0.750232491233586
0.710498395515552
0.728470120804378
0.753721156677122
0.770150953996745
0.737213693466936
0.763084289798026
0.78224954612232
0.759704652118626
0.744730906137139
0.815637427868351
0.785027136802082
0.811478545205803
0.766443999736883
0.826353389453544
0.785052992040037
0.82613113047714
0.777046586733374
0.832099155037213
0.815610747953341
0.870905279270806
0.83414607270265
0.849823424818042
0.812470596821727
0.849222147603178
0.816758706680107
0.864927115872531
0.856502500174939
0.865556402823012
0.837266238847203
0.873623671018523
0.86746523118498
0.905178890642003
0.884692516154041
0.928404181163862
0.937166757623347
0.933023255356427
0.896847764816448
0.979672263105661
0.893962653073272
0.976611929162563
0.917781036463363
0.923389694453867
0.909049706687699
0.94419849299795
0.922219926333568
0.951600827726066
0.900286202939097
0.989410540615061
0.964510816005981
0.982262965475437
0.932377766929319
0.962028778996355
0.974917780564234
1.03585408567982
0.956655770792096
1.00907099758083
0.959425715603127
1.07905248852596
1.00503638873716
1.00025637358114
1.03467274538358
1.02556946989808
1.03717090865139
1.06732090892829
1.01545444658965
1.08029658281626
1.04757006243476
1.11271977969761
1.0309706279162
1.04623863642303
1.08182591412768
1.04446670685017
1.01744360443691
1.10466456792156
1.06147496121557
1.08275881875042
1.02842491656958
1.08716526931881
1.0804591262037
1.10638458340098
1.09728670829413
1.18651062531596
1.13862911898967
1.09941846643122
1.08919714033324
1.18839831595823
1.09837696502586
1.130478573204
1.13001487249793
1.21686848425966
1.12716604509354
1.10570616503468
1.10968115012762
1.22981930672135
1.2157770954705
1.18502934006812
1.14471085207255
1.25315533633277
1.23491445997339
1.19471379227456
1.13783523872067
1.20610396813635
1.21839773406174
1.20586933716108
1.19841879964729
1.22660934631178
1.21161244502019
1.21932742759794
1.14597280009868
1.16140638493206
1.2056689650642
1.21874176458291
1.17618890647798
1.24360792550408
1.12743638646593
1.22177479491933
1.25214088707453
1.27444229607892
1.3363906229785
1.2971588764027
1.31805915988282
1.41861780016303
1.23426379507968
1.28834105064539
1.15939872808248
1.23790934135458
1.27842206663017
1.3263153085926
1.35755632903998
1.41130301299361
1.167286352775
1.26781237222253
1.3870140767021
1.37029028551895
1.3163737469243
1.31134980837899
1.3261702322616
1.29752951232676
1.25673083459019
1.42005136272097
1.41307611452884
1.33652300631281
1.30692972478226
1.38695670527419
1.27486026818381
1.42048516599522
1.33474821279689
1.35076346802004
1.39030089351346
1.38683421604599
1.29743879890686
1.38511644829386
1.30095944448453
1.35412652810095
1.37142416524186
1.41799175701665
1.34607752025716
1.40931174540335
1.34437873613486
1.35754829055734
1.27350545534386
1.4701432107503
1.43855139414064
1.54549663659824
1.52168488028543
1.40183496732815
1.35639145846326
1.3258979103031
1.31353411178935
1.48152113616936
1.44373627980782
1.53858183452429
1.51504862660825
1.56737168054921
1.40776550649812
1.39669697566794
1.46676806384125
1.39167882468115
1.3925228995641
1.48761366652057
1.50473895032077
1.58437898011996
1.37941395001359
1.46145536942413
1.425676939629
1.38652105381124
1.37434549705117
1.49392246191861
1.4836296703767
1.42398728176731
1.44869536723427
1.50921276400149
1.40489292690098
1.48584756462098
1.42564406810169
1.40770408660962
1.38735971897164
1.4826563937007
1.49434638396773
1.51028559511539
1.41403285239652
1.43617002914852
1.48616903433494
1.52274841309049
1.35213077029038
1.3908272771121
1.45651973845354
1.56211724330598
1.57148423160934
1.42975530224411
1.36626464034709
1.37233513016838
1.4397355031117
1.4667759365568
1.48589623172734
1.52143516418881
1.57445668086291
1.46840855228906
1.41516563390899
1.4992139966095
1.43278579530564
1.47583624283326
1.51228795315942
1.54522061069974
1.4543566151698
1.4091512410139
1.56815318612599
1.45695327382142
1.367174724198
1.44197532058071
1.43651312800736
1.57930545536987
1.46075996925253
1.36569315381057
1.4339469999029
1.48489165462854
1.45181514376867
1.55544591193545
1.4754277045784
1.50427033537289
1.53739158999692
1.38084870275441
1.47559758489604
1.60761716563622
1.38468885588086
1.45765840919601
1.39070776242936
1.50662227766892
1.47774718196841
1.37500469307102
1.3997874818334
1.45352825702537
1.54911818141557
1.46801245175582
1.38329188367368
1.47213390366481
1.45468714726581
1.39080073942269
1.41154158676355
1.46685558217242
1.4681950964239
1.41541301655877
1.44044925743395
1.40066270046852
1.43248346013642
1.45534410312641
1.48014532533875
1.56875708303109
1.517313037637
1.41305379092328
1.40600605039754
1.46135896818879
1.42348921235454
1.46880047711295
1.41138897822706
1.44952242120262
1.44672261586681
1.49596096466943
1.44697270183674
1.40494734049029
1.38550133915938
1.39772040569172
1.49354969229976
1.41389659871283
1.39160803093968
1.48290927354267
1.42349557803473
1.46600416532416
1.44378396302871
1.39349618018353
1.35274605518989
1.38925896318207
1.43716605358977
1.35586659364694
1.37693900592716
1.36235723307477
1.41967850458062
1.4076846723207
1.38532752305385
1.4695165793822
1.34718232592111
1.34349531843196
1.38688418371702
1.36132808622214
1.39153235032163
1.35348288546132
1.40097277235545
1.37892972279107
1.32013426588922
1.42458642595913
1.38097466059622
1.33445469775278
1.32559388730558
1.34631524649643
1.32426153676238
1.33715810778634
1.39390404576975
1.32048258579207
1.34228780970897
1.39545024108649
1.3572177258388
1.26054857040691
1.28731865154036
1.34541432311656
1.30762672925688
1.35413648168254
1.32698295910478
1.31091466106003
1.28358505572557
1.26058022080827
1.30624474695845
1.26408143236207
1.29815739207896
1.3354502260351
1.31442093463224
1.31439380740032
1.25993482256375
1.25616677565086
1.30934684776086
1.23432364947643
1.18577627467197
1.17671470487588
1.19714135993547
1.25682417512102
1.23472928741022
1.17171247942742
1.21458923684713
1.21315088190345
1.19919592058839
1.22440784906165
1.23530737926168
1.20826639955865
1.17442196881307
1.193827748764
1.18553226687689
1.14772322887463
1.18268083433056
1.18105779852573
1.1546595570602
1.15714656025285
1.19746574887452
1.15328477439503
1.11068682684727
1.15029266252816
1.16790625730032
1.13499493962648
1.13899379674472
1.10197239631225
1.12452054142185
1.10084658985251
1.06715239674471
1.10920996574555
1.0976569485721
1.11165416364386
1.10569685392999
1.05078969263709
1.06555795452422
1.06352985946499
1.0709023676385
1.0216703145613
1.04624403991801
1.04123974066041
1.01524369238499
1.03749190299958
1.06050763902784
1.00932901679152
1.01393785541984
1.02390164991643
1.00172319308599
1.0257781986025
1.01322303104324
0.984218160138698
0.975348874031124
0.998804949542713
0.999939822576647
0.962070512048367
0.993271431882485
0.977793303241761
0.951770901722488
0.95194176401574
0.968605804855706
0.952032137607912
0.950525268556273
0.941632709820941
0.926444708941466
0.913621512160564
0.916677942846902
0.915577579180964
0.929337867957329
0.904144575504857
0.893231593812556
0.915266004740918
0.899433843996738
0.855795234592736
0.88611939358541
0.872235204891611
0.86904072015639
0.854316421461742
0.85742933517381
0.854384924444337
0.847827948843389
0.848798904168333
0.843217489629616
0.849038280728512
0.857377241291111
0.830084365875011
0.8139896562861
0.807394182954606
0.82548994283314
0.823031781304706
0.827379541189702
0.818087946595654
0.810672248220572
0.801668521327745
0.792043043896331
0.783183681625787
0.794483414586525
0.789277083379327
0.783449140338907
0.771194040348197
0.769522679467057
0.764260212780893
0.782623059513706
0.757701548716682
0.757456260038011
0.757504273677964
0.744666865769213
0.743393816812573
0.748545019813632
0.724689691064056
0.744656883531343
0.730664395484156
0.724952574165975
0.729180023040021
0.709203946499811
0.715659587321588
0.722490232875984
0.720511275563454
0.715382696456217
0.690722882123409
0.693858863067134
0.684101059180441
0.686926169267877
0.674465859476816
0.686143329069811
0.679349843930589
0.672403013253218
0.66944786066218
0.660973990602859
0.652153132685208
0.658133244248117
0.640749581530547
0.654375963817815
0.652183942900894
0.646127067849078
0.644670653760068
0.641830169959168
0.629814155623613
0.627033904609227
0.624548491150944
0.642129095956019
0.615933792910888
0.616647484495034
0.610703057361616
0.61361787169987
0.613164982499535
0.619939933280918
0.603184189508084
0.59881019014414
0.592724224099649
0.602315551103558
0.58164224090429
0.586852461193776
0.59957655297198
0.585847229419256
0.571714970410383
0.581561066984846
0.564234364163199
0.571305665839453
0.562404691252733
0.559608878928748
0.555542351398855
0.563533938474248
0.55513436059453
0.561617594011304
0.548891154916411
0.546169541006671
0.542687483594822
0.538786168581317
0.526477298825985
0.537822923146859
0.530454453664493
0.537037347225286
0.52555682893765
0.526616539024001
0.518016046029064
0.519908986988729
0.516801052443535
0.522778772499006
0.518125685424729
0.511249841529522
0.512011696337677
0.515989247979077
0.500627986442711
0.492850783491855
0.498836473632087
0.50030861644339
0.48391751603887
0.492785127100339
0.485599199842302
0.495348061026657
0.490238675366595
0.499633947459143
0.483906515105687
0.482802129366589
0.481005163756863
0.482755609647607
0.485516287938261
0.477082337252189
0.470929001297136
0.479171630076335
0.478153793869694
0.479971883591483
0.474882199871028
0.476038550633339
0.470084663630622
0.470627573671052
0.465301449302032
0.472494768240791
0.467232661346701
0.473575037466452
0.467389166441763
0.465747389433257
0.467828862930743
0.471428769720817
0.466780064605687
0.473556451527654
0.469138107841833
0.473255735045255
0.464280809471518
0.470604089302797
0.468912781501028
0.479676276561708
0.475832565434803
0.480401271184035
0.477954125389617
0.475126727933866
0.480594464625335
0.485730896698588
0.480856368345428
0.487978582363513
0.473916974448035
0.480821950480178
0.490403114011837
0.493340057930597
0.491072783433044
0.501112688769359
0.483317022819742
0.495513323921165
0.49446710632089
0.507973715123267
0.498894819760785
0.498834697205741
0.506485620690286
0.508787285446164
0.505051781015259
0.513056760536876
0.508461909593097
0.520776121031966
0.516950732641209
0.520098458118503
0.519250919610314
0.522196024586835
0.528036154020222
0.540934351238538
0.53673305948599
0.550257354868818
0.543230326535479
0.543760292260364
0.544474798011431
0.558467451855512
0.562257155852737
0.573832032402849
0.560489850102605
0.575780811126833
0.583048874163721
0.595236650905374
0.596119504862742
0.595191801551237
0.603819426912745
0.618190853639579
0.60149629660912
0.61528925730574
0.614545755315963
0.629618596425359
0.621647353683904
0.63162469277389
0.625490708109307
0.638499568284786
0.637742910994532
0.640236380050402
0.632660176466734
0.664537294878982
0.653425359514646
0.651670722707158
0.652872556878405
0.637894945013377
0.641464409793135
0.645567254691235
0.637289798332861
0.661422956771111
0.631878722668965
0.639918660946069
0.63739116529973
0.643257519114473
0.636877179635825
0.635408331964148
0.634350661701309
0.637464472376389
0.625588117599591
0.63340919596343
0.629371286598523
0.626565964674046
0.619715858881764
0.626395324802386
0.608889694104313
0.615669331739339
0.61737770494318
0.622778555417752
0.606639657329847
0.627520743381647
0.616622917952279
0.609478106943357
0.626269551880333
0.619359640714482
0.61227228957809
0.610604756834246
0.60184717353485
0.612238666410934
0.610291735201313
0.611608506845078
0.614676875100329
0.624604951644937
0.601466320280304
0.609758931147145
0.608694033258562
0.616609453860203
0.601624767765373
0.609646034820907
0.5992118159353
0.60458763674726
0.595426240069684
0.602747076848244
0.600628015533293
0.602027477694101
0.589437176228736
0.590932696850405
0.584598469999183
0.596420116553376
0.584290764971912
0.593628276587179
0.565280204961112
0.580720687038367
0.565004837232322
0.57256510131146
0.561130930523214
0.56100063155714
0.548503684840654
0.559322128269714
0.544410103385977
0.555993880871741
0.541723652748497
0.540434684451146
0.536879912513153
0.539792746435184
0.520045128568218
0.525719943564658
0.517981794591748
0.523843726737709
0.520033586801896
0.520265103744347
0.498975881032595
0.509696567182546
0.509807112279612
0.506891533202131
0.487912238016299
0.489844280378029
0.481029246829567
0.484784604751594
0.487142604235951
0.485549958634292
0.478882346642163
0.469915880423436
0.464183316193618
0.471555329667517
0.460255545083232
0.464841424594242
0.459218345810623
0.469286480829471
0.462092100696058
0.454372282483791
0.447764497881648
0.454868591389638
0.445481479676496
0.452262136532557
0.44078559897027
0.451842001660021
0.435892863320281
0.436666845359105
0.433034257635305
0.430129216400983
0.434263913921546
0.437106105937126
0.423053144517862
0.433961973446592
0.427299548936872
0.433500244562949
0.416437093041322
0.431241472218104
0.415959506810304
0.41936866374866
0.417420727202419
0.422327944285341
0.411152665849969
0.408124372176529
0.407468016384778
0.408364698658082
0.400273529970605
0.409425998644585
0.404905435351335
0.398989872436946
0.396053278291582
0.397615882602691
0.398307037976375
0.398524772726715
0.390626244272188
0.392266712046349
0.390013724065834
0.3891990949815
0.392098333004199
0.388691970071181
0.380618704916892
0.387669522624308
0.387270847329389
0.388699042357149
0.381192622777025
0.383204998783761
0.375988199677216
0.374926984297334
0.373919429864199
0.376515102014824
0.372947062704409
0.372962047316994
0.370686444337974
0.373522384868093
0.371325923438485
0.373796770695296
0.370446770824745
0.370503001357896
0.368758237010917
0.370054320144705
0.361865703154901
0.362060657022801
0.367784743255926
0.366927621182116
0.360782078407957
0.366771553104756
0.354464222599241
0.359265661242855
0.355581510231931
0.361720179826016
0.358414951171882
0.356923198869206
0.361950848486205
0.358611194692906
0.356622464333185
0.361291462060921
0.350460738023743
0.353572373198204
0.349947887792907
0.353483789614213
0.351255097585623
0.356014745182412
0.35170859750263
0.352450828977655
0.352082548157667
0.353346894039496
0.346005569311246
0.349188165804218
0.352130101717701
0.346897337917526
0.338762857484578
0.340883483255063
0.342588336435107
0.345185540577833
0.34078786099557
0.348462544443175
0.339643430722631
0.345093696804685
0.340614272880356
0.339963562636491
0.337436249394458
0.338462142660852
0.331737856591403
0.34145793124782
0.335257052395358
0.341146654429343
0.330982600937041
0.333901630115515
0.337019771145906
0.335585447685506
0.33309503691574
0.332386695827839
0.329196800293971
0.33496133137408
0.330596421232879
0.329618206953407
0.327274010189381
0.334758848192905
0.331883098291524
0.33869173489388
0.330844955197889
0.334094140456856
0.324150389864192
0.331211014878603
0.327223611474117
0.331548413986488
0.327713557561092
0.332802935329741
0.321164836971679
0.329652971757203
0.32135696847707
0.322897643025368
0.324793509870043
0.320508713761803
0.325725513229594
0.331864961066746
0.321672086431997
0.32324770366275
0.318738426824476
0.32042333351585
0.316728946999265
0.323420383438911
0.319290234397138
0.319939836599733
0.318780218275039
0.322591709336199
0.317828057120465
0.316389746465642
0.310038956844548
0.315193364975623
0.310711882640862
0.31641026355403
0.308671655060676
0.313445309298102
0.30957287228753
0.310258544297449
0.308496454424166
0.31309911502446
0.302533578037119
0.306952538465327
0.305331672436745
0.307311918060231
0.301092296635917
0.308187945577494
0.301683684592929
0.303902993982704
0.303566284336298
0.302456895772633
0.298309273338562
0.304575902057709
0.300517487858585
0.302351269594926
0.298898307810564
0.30082789748773
0.293257674186509
0.296904326375386
0.293644277337887
0.294017852123469
0.295538567702294
0.298938606621743
0.289661427078668
0.299321092892562
0.292067122077378
0.291546899091846
0.289838651707384
0.296657055913431
0.28695596456146
0.288432481946463
0.287990458347336
0.289185171611545
0.282892524650471
0.290207313369566
0.288309388947378
0.288479810999761
0.282836514978027
0.290875033120591
0.281554788296434
0.286523246714979
0.279088218997856
0.283961967402424
0.281037591825268
0.281959595930938
0.275490287366805
0.28075152682799
0.272542241996379
0.273060778685265
0.273848438373929
0.274318628376929
0.268666979154757
0.275447622543899
0.273297600027417
0.275600930000293
0.268816386846033
0.271381918577902
0.268069959068143
0.270557902048648
0.266375233980676
0.26519482943648
0.263072778550586
0.264099785013076
0.261467343387715
0.267835657896606
0.259817419316149
0.259645665430785
0.257753463596933
0.258642226961266
0.253291594611482
0.2589615666162
0.255499052019403
0.254293679699343
0.25123628584469
0.258966159401179
0.252152036993493
0.251412872849586
0.247774303725538
0.252687728872429
0.251369030036136
0.253579142793023
0.246035316228673
0.249212387366005
0.24839661280412
0.252128479721873
0.25106730374744
0.248758641937611
0.247978094054826
0.248683863097374
0.245261680242982
0.251591080645945
0.242798295663806
0.243939881763455
0.244044645223479
0.247762434468668
0.240594637820526
0.244386910707958
0.243444349320926
0.245395676228789
0.242674176646121
0.240746952218293
0.236054553562963
0.244737420097696
0.238223576260073
0.238985326173595
0.236786706950438
0.243399390597687
0.236518813670498
0.242268303257396
0.233080231842274
0.238231583048302
0.23415595896573
0.23732078273285
0.23373844358371
0.234524268694689
0.229713886690559
0.23702001170296
0.230988490130593
0.232436441502183
0.23255591605952
0.228611301877345
0.228500246145676
0.227445481890991
0.227067945424709
0.233473315263947
0.229601063720659
0.229369053101889
0.226409450357541
0.233411018601478
0.224660728053283
0.22509611524242
0.224360981990741
0.229904642400718
0.22564227003128
0.227666954195977
0.22256449162191
0.225231505693158
0.22615461840265
0.230180401906723
0.225043073753355
0.226403546127254
0.222381766799382
0.223667636186305
0.220854924196066
0.223645067168868
0.22049683616607
0.223327655487209
0.219396382780974
0.224341542190051
0.221338620450805
0.223601468286314
0.217441591745373
0.217576194797638
0.21901386532794
0.221611486809555
0.223487053607967
0.223504583306443
0.215187022823502
0.218964752581097
0.221140407768465
0.220440075938452
0.223367913306597
0.220204596590071
0.216462126208594
0.21670268850955
0.21367506355954
0.216548869917703
0.215367609772763
0.218311098863409
0.21420589839959
0.219055643112288
0.216162122903653
0.214198794862681
0.212446090301487
0.210909860173201
0.212773207049172
0.213103851566406
0.209983847191038
0.211994200470233
0.206098964070218
0.212217948043002
0.210660381070521
0.209696325164119
0.208216139016774
0.208597761724339
0.204399237437173
0.208364115090368
0.203934567415219
0.202074499639438
0.204213165763862
0.20474175975625
0.205562884523239
0.206341293738547
0.202373809076642
0.208759280931394
0.204290892473235
0.204554773605836
0.202237540029321
0.198954504090883
0.203524854309598
0.207209364559261
0.205095307287247
0.202809465537355
0.201285232060153
0.206437156522576
0.201681430380827
0.201489816134828
0.201013908161412
0.203612463549001
0.202525929562265
0.203372483581225
0.197146275984931
0.19877082032361
0.198107862599312
0.197049171377422
0.198373306274487
0.198390844906126
0.197705465593126
0.201143012653995
0.194888713182475
0.19805805878201
0.196130676692256
0.198834577203118
0.196762266301614
0.200339527486548
0.196496942992544
0.195036899638402
0.193131672530736
0.194452532139879
0.190945549301621
0.192476888454982
0.191164923313679
0.192126441801291
0.193371526708149
0.188978237588448
0.188344152036898
0.19190403115857
0.190952841596409
0.187060292928697
0.188591739789743
0.186965556386744
0.187536478232346
0.185638281566443
0.185337266542765
0.18212372494327
0.182947599124105
0.181698610427844
0.184781915667147
0.185156556389514
0.180222302317139
0.182783070713693
0.181551034790704
0.183941981385211
0.179227201783961
0.179021960361072
0.178326591029829
0.18052248138362
0.179255265352864
0.181225596465732
0.177167508859534
0.178460549211859
0.177546412817746
0.178377102476262
0.176638696049092
0.176447225961784
0.172316547643767
0.17588047906728
0.175398932277739
0.174113759177837
0.173193427150698
0.17221801183216
0.170414726422693
0.173405258190638
0.172994283183397
0.169866431733785
0.173991959347207
0.172353890638752
0.170445769115009
0.170830378073517
0.169190528133154
0.16837172314026
0.163514518318772
0.166745496244985
0.169526438621401
0.168753083524193
0.164180847649006
0.16472611026658
0.162346222808698
0.164183337881792
0.16463875778836
0.163836545314329
0.162411587283179
0.161900128385764
0.16360181337331
0.160291647189254
0.157572850750637
0.162686688018378
0.162418187014734
0.157589778585541
0.15859043449123
0.155107188930894
0.158268024023559
0.154882110342751
0.154668986136711
0.157178440001466
0.15759217315624
0.15331513535585
0.154332578977608
0.154565431721228
0.1540677884425
0.159285119430631
0.156863830918481
0.151051745898716
0.150255748206462
0.148122498542899
0.151004653394712
0.150602052130456
0.150690956192399
0.14934859868282
0.150907509246268
0.15020848473785
0.150103934794031
0.145875297185635
0.149885869871222
0.151685625245184
0.149722076502354
0.147880483722743
0.15417756196061
0.149987412359134
0.14981574804155
0.149603955755411
0.148354160164174
0.150185729329636
0.151844353466088
0.151152566989864
0.152038586533082
0.147654947526512
0.147473909600969
0.152104063854383
0.151889198427143
0.150461478167572
0.148390649494415
0.148885748688058
0.145091881885332
0.136037842496023
0.138612076484916
0.130599525254683
0.137816448073582
0.141763121462556
0.151470649326167
0.132960095215076
0.134259385171937
0.137267445330597
0.138014108119358
0.126087606528848
0.140094300834748
0.135221233866055
0.1302504359326
0.137372540448326
0.133344327287366
0.133233642061328
0.135406270097694
0.132913500122507
0.140288123075478
0.131883736031369
0.141954246940841
0.137278624489128
0.13886330799847
0.13376045891786
0.14487687366481
0.126712701520023
0.138589142078037
0.125612475028438
0.139424729845929
0.124065532886622
0.139384412715845
0.121001368626257
0.14192949774057
0.121871413044064
0.143800078970036
0.120938807891354
0.143128105605387
0.111079676206465
0.137731318296892
0.108255807607649
0.143636619389062
0.119473235965488
0.158394579971902
0.111127539227857
0.147902132911923
0.113078852852647
0.152574313355698
0.118456062366635
0.155329247685485
0.112461381291099
0.146495748467258
0.130851873108136
0.149537525581985
0.124838341873939
0.138603503506996
0.142169071691606
0.128268233208569
0.143270743777543
0.12755711687968
0.151574572181225
0.117596235825123
0.156455497422015
0.119863813531584
0.150545031063499
0.124329732678508
0.144046518574926
0.127106050382413
0.13984030887699
0.133841396827068
0.134097708059874
0.132300213722096
0.132411881742208
0.133032219956268
0.135455131005303
0.132455241140415
0.135665321861644
0.128885782859321
0.135470330674789
0.129133505575387
0.133951497399552
0.126172569675809
0.132379079781558
0.129751976808531
0.133875751675802
0.129401390907702
0.13391129253026
0.128276497084132
0.130199837817114
0.127239452200543
0.131804708805437
0.128437777964756
0.133727648910845
0.125365143003656
0.130563217354386
0.130616184098792
0.132927822135251
0.128399295358569
0.131789696626978
0.127707179246019
0.133743526640998
0.129572364077655
0.13048118200985
0.127549282310818
0.132613031954955
0.128908350201725
0.131220842746929
0.130364691843558
0.130596646353
0.127005710649539
0.132845693078449
0.130569402662908
0.13297692855756
0.129902500747834
0.130851705258136
0.131404200011353
0.132700944378424
0.128268824286586
0.131998529828209
0.131757921653906
0.134400053054307
0.129862509220301
0.134912098823313
0.131485618585652
0.136358398969417
0.130279547427165
0.131524965655504
0.127050122779439
0.131613076567218
0.129714301958186
0.134170920932801
0.131394154212562
0.133665528615066
0.131225120645864
0.133039966743859
0.13230363898217
0.132153874463383
0.129978715706552
0.132602460837658
0.131795040227713
0.133854185657776
0.130107927164431
0.131410638511973
0.130654996578698
0.132364990814977
0.132486906775157
0.130020046688857
0.129167162892797
0.132261460457934
0.13076308773202
0.134097649123281
0.129758087465136
0.13145248986645
0.132515913022361
0.133443523993288
0.132278435944675
0.134256222312847
0.132112609663236
0.134463338152603
0.13141442553779
0.132293040815065
0.132961790841812
0.132639284666391
0.131621806752762
0.13413218424824
0.134171323600633
0.137531643156925
0.131588648939336
0.133337338918166
0.134751399146751
0.135741534706949
0.134102527610249
0.136152708954412
0.135157739296728
0.138013152323906
0.135826958278355
0.136834638890022
0.134245916266971
0.135858959148793
0.136245763883382
0.137834650526295
0.136750890433615
0.137434382682828
0.139942716251519
0.140016602143927
0.137566396377077
0.139437325848614
0.136201116602631
0.138870797466444
0.138964673086588
0.137837431187681
0.137468346557689
0.140980816363656
0.137053611430009
0.139820221510038
0.137059975373673
0.13829012557204
0.138027743610488
0.137569621764322
0.1392671281696
0.141049569378848
0.138340823036547
0.141512006730167
0.139760354506857
0.139846343747291
0.138334675127361
0.141031794148054
0.139163429347084
0.141263153797993
0.139764687241579
0.141779188562592
0.141034535651241
0.143295255822052
0.141618228692132
0.141415096900064
0.140671874854221
0.141638678570489
0.141257882568626
0.143413922930138
0.14303002186483
0.143942287489371
0.142235116431744
0.143768168525522
0.143907806541165
0.146682548993581
0.143196939648897
0.144877665220544
0.14441893943752
0.145673352705353
0.142723921098286
0.144903331671888
0.145161806624077
0.148085799396186
0.144974825005127
0.144264405988845
0.144288722211695
0.146419401686807
0.146168045120141
0.145778761301673
0.144893097187184
0.146061389985484
0.145199430638169
0.146174448266772
0.146309070084088
0.146822114093125
0.145132202451524
0.144981753106123
0.145338690048359
0.146538700047322
0.144433903645152
0.144514718309671
0.143121160210379
0.143675246467674
0.142768891532825
0.142800074862465
0.141312543235302
0.142262569869549
0.140848698652803
0.142160477135137
0.141188650861526
0.142636339638984
0.142987625934262
0.140015805847472
0.140068680359999
0.140672391901815
0.141318974419813
0.142892081282104
0.139954699102048
0.141672389619882
0.14096018195608
0.142056337043747
0.138918981887144
0.138945321447623
0.13909379613126
0.139993391965375
0.140105858809479
0.139875821263435
0.138119871598359
0.138656594531999
0.139122446102578
0.138942691301247
0.139792329920973
0.140875817933999
0.136520294131415
0.139286777751279
0.139503365551511
0.140878708209645
0.136398854104523
0.137033508492045
0.138250187405224
0.136872604598602
0.137402830299318
0.136761457102443
0.138259680040865
0.137404055828676
0.13687915808619
0.137408234256497
0.135327214129893
0.138348782375425
0.136280924239944
0.138504632707958
0.138399374155618
0.136788204314372
0.137245746998391
0.138324326964839
0.136848985516203
0.139628804011806
0.138043192602832
0.137203058062662
0.136716695700026
0.136080973624095
0.133665591221582
0.133809763580128
0.134822024124578
0.134785523226756
0.134708163140756
0.135480177402314
0.137204449576172
0.13649266743291
0.132735998165105
0.135310046675228
0.133840456019623
0.130721115817235
0.133735976601832
0.134097665450693
0.133166562243133
0.133382132858344
0.132065835286561
0.135076704009514
0.135567510581559
0.133848382534917
0.134737236211647
0.133717392360219
0.133657122197333
0.132388805769883
0.13297413268841
0.13326485961313
0.132948354265614
0.131553020793866
0.131063118451445
0.132335608207047
0.132158009012567
0.132975484044646
0.129769171653858
0.128585534199417
0.131950392378845
0.129299102905983
0.129817441673196
0.130521607833674
0.130429013827018
0.130673801396056
0.129416266297641
0.133304196496582
0.131682665317123
0.131902235586686
0.132087461686391
0.12900140800032
0.126452479103896
0.127175682265654
0.129592868821827
0.126850507335672
0.126672471489708
0.125853728872273
0.126036841197579
0.127618500473524
0.126067217150615
0.123472206907885
0.122142870826146
0.123814039314189
0.123179147057003
0.121487003191855
0.121839670331721
0.120976350420998
0.1232390807343
0.123512099426339
0.12094656806922
0.116660404691203
0.117255424334501
0.120595081484255
0.120491840695741
0.12274076477005
0.118625000617281
0.116129404003772
0.116703775041285
0.117620503052427
0.116990762039289
0.114465453787347
0.115350756659994
0.114473844825414
0.114269099783758
0.113408815225182
0.11567402433382
0.114837127611708
0.110999780412682
0.111030433096282
0.112302273127883
0.111041999865374
0.112230663998461
0.110480311715325
0.110366358608388
0.109035462488735
0.108491072761651
0.108546445019215
0.10829007513496
0.107737787067158
0.108941891860283
0.118477826756501
0.122843980265655
0.110682172623197
0.107523493766786
0.112382739795655
0.109427535162081
0.108305336939286
0.108604797882399
0.106372448362223
0.108480481761878
0.106556284590668
0.106354397052877
0.108110498891065
0.107545774524591
0.10657963755926
0.105161770691198
0.104579976364141
0.103960795368991
0.105212516713282
0.105954005446227
0.103651890628303
0.104519586488747
0.106845926111649
0.104231473916199
0.105794176943224
0.103940452317457
0.108449500951363
0.114588809114758
0.110478353348444
0.108137384054367
0.102409294432903
0.102100697361857
0.10340022158387
0.103104210807012
0.102461712233113
0.104345239496401
0.102967938698057
0.102176530165415
0.102166520737861
0.101319865350678
0.101545180885845
0.100898268011537
0.101754266544527
0.0997696573155669
0.0995897157373372
0.101305682633981
0.0998010786497891
0.100876252466895
0.100206227611815
0.101721705107377
0.103327690840991
0.103298274323951
0.0991279214356855
0.111928485538265
0.117129239492792
0.106923795877448
0.0990039589397511
0.0995173498291742
0.0987242951712271
0.0981096886291788
0.0962245232016025
0.0990346662643567
0.0974009986753374
0.098621317317846
0.0971966014001815
0.100063212598292
0.0997488459813945
0.0990535253690586
0.0978861205015245
0.0994883869461247
0.0975062966366355
0.0980009500122238
0.097799046853812
0.0972651739867984
0.103576634730016
0.115596275217041
0.102537687616511
0.101704566826551
0.0970965151286959
0.101459250514791
0.12037995147941
0.108193696611345
0.0966699594936653
0.0982207064544619
0.0962272275576554
0.0966297687322343
0.096711218772518
0.0939436743394388
0.100781634419281
0.101392525583004
0.0994633349138244
0.102608838730164
0.100284804303632
0.0964231321675864
0.0955949350999522
0.095118498858773
0.0957766371685217
0.0950411991694444
0.0933397109201865
0.0945209238812591
0.0932032051051036
0.0930606978034819
0.0937180703707241
0.0937924914680838
0.101451951981693
0.101440871952458
0.0944992703350248
0.0930545297364205
0.0945833063051884
0.0916966901843859
0.105330423515662
0.10611944921245
0.0970355995257486
0.0957122997004612
0.0953458073095838
0.093072058081926
0.0940760561014926
0.0935698571550282
0.0924313436395195
0.0930972679328279
0.0926528877012363
0.0940117691471876
0.0945363464039438
0.0939712732186715
0.0920052443730604
0.0967937427980814
0.0910690136050438
0.093474814500386
0.0942902937833713
0.0936903191986732
0.094736496311227
0.098173781599904
0.116617108094081
0.120708355890083
0.113007597347892
0.105034596117472
0.0975417789607705
0.0934457311662135
0.0937330690170624
0.091323417379134
0.0952070590993962
0.094707827462867
0.0951790218501128
0.0926077294003985
0.0970663354957561
0.0914907522640336
0.0917121260726266
0.0909255769449646
0.0942067440286404
0.0921138557235144
0.0945105591328412
0.0902072411283286
0.0940370848250406
0.0897817123714922
0.0934398807314614
0.097016542939108
0.104595473131154
0.0919386107701285
0.0983868237693537
0.131778677269887
0.112793297945365
0.103658246481015
0.0936163834149986
0.0955580367316862
0.0901426168364475
0.0921984172697999
0.094942390909851
0.10051063398414
0.092816558265331
0.0937255714560496
0.0907880478822304
0.0964180515618337
0.0906464269082949
0.0920960966249227
0.121240217941336
0.128234118721267
0.106108946704685
0.0982874986906152
0.0875762586966574
0.116536099139744
0.118029234619792
0.10002669531899
0.0954589547011348
0.0967209763983471
0.0942622858855377
0.0952527264143277
0.0903071681188182
0.0971130633327956
0.101836089332269
0.095353127865341
0.094011387726236
0.0932876433779661
0.0955437115746442
0.0968173008480108
0.0983811844487541
0.107365616769124
0.102676328768622
0.0977845201402934
0.100189532421178
0.0983524957500801
0.0964653855869943
0.0982400798913039
0.0955187312150048
0.0977556400969004
0.114320025108573
0.111189956141887
0.107621656284531
0.115321847261048
0.105786227155807
0.0991604317262439
0.100857393790783
0.112188689552017
0.107301462080616
0.0941014965839691
0.131299731828253
0.120180730034645
0.136479036586577
0.112246415614238
0.109968551802909
0.0958463335158052
0.104546397898057
0.0925120854861535
0.111262552491403
0.117491912298244
0.108106882312255
0.0996185192845614
0.0997202504078365
0.117924237578356
0.113844187443141
0.111567725194379
0.106062766542853
0.103532478127617
0.105372960885799
0.12521647571775
0.10054744163003
0.118450200333345
0.137912384450454
0.14454465286996
0.133247899424102
0.105444144491608
0.122234137589354
0.131993308068578
0.119107041945623
0.109951654178405
0.107789883703046
0.11037727694973
0.101982846712074
0.1313258434361
0.139569413552202
0.117363920368994
0.116166412717538
0.111302886970452
0.119656934664391
0.139935668590064
0.127860103067556
0.112962799342265
0.116415748045035
0.113643559062579
0.125858018954638
0.165975639945042
0.133358508526548
0.152370608815866
0.142831143002079
0.14986142432781
0.130710894117422
0.139296800821815
0.122099534995979
0.149564527362855
0.146444989603143
0.135694738890118
0.119278932240111
0.16440760051583
0.140127709185062
0.142176364707501
0.132616942657163
0.131799581161369
0.13860804890887
0.196472943706004
0.194523842257805
0.173904126769858
0.135714477169373
0.156786394204589
0.162720001392168
0.146536898500819
0.137573560074679
0.14373321884976
0.140028448176804
0.139422429298828
0.146058444166789
0.153214290355382
0.144372163912834
0.156424515019217
0.143601843900537
0.164240439844797
0.182000912539068
0.241470315919571
0.178798035597332
0.191704428823025
0.188818066565631
0.191797481835026
0.175591584809722
0.165786370504436
0.168956842040167
0.176468237552515
0.176064253984961
0.172784643435306
0.180655854348713
0.211529269614369
0.192225241097536
0.226553486726175
0.193360384553033
0.20574514716001
0.189295776241591
0.270580229561296
0.296958060814313
0.247004885054435
0.225660346205929
0.223159385515207
0.279272173325132
0.27706828610421
0.245743956576853
0.231064342223788
0.239843445746032
0.236255397425263
0.252663846571997
0.261136339198346
0.270757155170341
0.284763800713191
0.267959796487399
0.279669169236973
0.317176177675563
0.37089372894534
0.375411786903964
0.316109068778721
0.314676958814281
0.334047818907257
0.337877872025951
0.323456774909394
0.34096666770737
0.323927168352217
0.384755332113759
0.383606056936121
0.383564711490278
0.355316039663293
0.396036788024167
0.391861056798177
0.39918577765161
0.44203109526824
0.420491609252784
0.423650066158144
0.406842914194413
0.433832585383322
0.414174870726969
0.443722017150142
0.461322221934223
0.470661281993665
0.455015710714495
0.455825071501047
0.458191841774509
0.459534419291998
0.47158222552243
0.474997173351132
0.49872425442025
0.536845323918766
0.557938105795969
0.666900496099239
0.520755672757623
0.520601069736515
0.490830111525401
0.546197045930513
0.543619009471837
0.548257207087706
0.568496250089924
0.536222913034965
0.516278406295896
0.51640040328064
0.524316268995542
0.515567208391531
0.517262406543761
0.508935042678853
0.519874153140177
0.556805234763724
0.507931138569642
0.606451093735594
0.546376722382572
0.535096507496524
0.4889939239036
0.506693471282881
0.488042832708249
0.517482288087599
0.479860833571471
0.533501684068913
0.500090073284164
0.500621165060779
0.479037608556628
0.482524149908207
0.500491958989061
0.502520125104418
0.472319435033964
0.461263369830294
0.452966091358306
0.456592760825184
0.437062226072035
0.504814353449785
0.46345950251652
0.457203285239549
0.419025490475881
0.43134123245157
0.41581360421424
0.418462298141723
0.410419446241983
0.424891070522288
0.405546187674893
0.412108727819747
0.397899423099364
0.40093050382371
0.388258535406206
0.396543407218563
0.395895969505955
0.389506239199109
0.383716058540849
0.381073899609806
0.376859590091742
0.378176344146744
0.373606307773289
0.386250486815477
0.372177834994125
0.380963150380071
0.370348572249973
0.372760785880449
0.373457882281678
0.368233355050125
0.368265473908889
0.369786725315206
0.3628462457043
0.367016124693405
0.363322951684452
0.370352971597637
0.363146491057222
0.363028031113556
0.360961153325875
0.35556346757604
0.352331453628574
0.354667723821955
0.356326840775818
0.355417807936141
0.370918474339234
0.435520672328004
0.363624739664714
0.370555909797865
0.340796939386661
0.359127109860809
0.326477483212139
0.353893144516883
0.392333367457869
0.369374398858922
0.343608742965061
0.33627089933714
0.330364661825226
0.369173849138056
0.334024803498365
0.344906893467688
0.322324034612263
0.334247451627709
0.403796043455122
0.388845383453717
0.468502646368914
0.390898309962678
0.358531518292063
0.318666031388674
0.37694669270442
0.345086379416586
0.333286247271617
0.314239230006918
0.320624829375267
0.368538753086636
0.326354542585987
0.3243067540332
0.302698797717148
0.312569714535618
0.358556585641765
0.347341341723843
0.327499485741693
0.371499124420919
0.342247926641107
0.3478404652806
0.379459800505794
0.397243849152447
0.332541617756697
0.304698375070403
0.306345075158546
0.294193704633173
0.335071239588644
0.343945862936555
0.309480505689689
0.314622553958473
0.277520463213444
0.290853714994043
0.287616478035936
0.333533694334898
0.28382677096242
0.333742712609102
0.302843056261372
0.291390986035891
0.306234548103877
0.316038593856477
0.355360549967494
0.335427355273982
0.291912431132702
0.275110480864158
0.347195524652187
0.312011618804681
0.303522672575244
0.292369734823845
0.260519151450757
0.299601220424042
0.288503666807539
0.27245765939418
0.30743196916086
0.296567591052312
0.328440093429688
0.343873946452848
0.361525191310591
0.331341625405394
0.273530658210705
0.272601187027304
0.260972600230047
0.273917594798025
0.263119978470235
0.261883132554528
0.322118176968148
0.258682438274074
0.298992752233848
0.311011213023718
0.286381868502514
0.277197032230132
0.277254209558664
0.273544807694481
0.288862494533353
0.331637667319845
0.339984379054077
0.299400939921057
0.329638398073263
0.310466312748686
0.314318821621161
0.29713575937817
0.313399537217313
0.305579573596147
0.324831455986013
0.335861838130789
0.331288361846292
0.33020261123838
0.343280449810734
0.334686619863057
0.407999070235235
0.369207662307606
0.379845897819277
0.406778771609998
0.421366625515011
0.475840816931106
0.411270357272688
0.426964208451435
0.412839212802701
0.425509329086486
0.43093758911272
0.432865476673847
0.480778388132547
0.478240122703672
0.466072572259999
0.465852111792155
0.470281399155981
0.480225804266755
0.489185155490715
0.54081052362196
0.515791576288643
0.608146931004897
0.538988989353665
0.558530974972826
0.500887843930769
0.517577320983768
0.521579040575313
0.520900281862031
0.515092829997781
0.50792081146802
0.531393009849493
0.553048956851346
0.516347286838345
0.534394264624499
0.515067007124359
0.529622146751228
0.52344927494788
0.541378470962096
0.535135445549093
0.540571560693921
0.554077097102147
0.544101711382948
0.575521538945711
0.649559463249347
0.57124640612587
0.568960349290331
0.553170821700924
0.587539144372978
0.559663099995574
0.58618544184546
0.598300787254498
0.592575182116018
0.587771753444168
0.586519947266313
0.587737481105704
0.591965847170133
0.618515222323206
0.624196668935344
0.595271914793759
0.631244071146819
0.587375752443729
0.697379694227689
0.647974508541667
0.674172823279583
0.627972173904166
0.636469636840992
0.621038518623466
0.630132333612543
0.623089076886071
0.636165934634919
0.628840161153257
0.633993300361324
0.640333928033422
0.63134274760723
0.631416471467793
0.625120403639151
0.637647045283974
0.656376570634617
0.626249427590199
0.631920218867267
0.627707729165305
0.629123826048192
0.612094684539958
0.656284249577773
0.62805133695906
0.639521684210033
0.610961970922744
0.633455904987118
0.641000800781469
0.63312044168156
0.608140260153914
0.615455401261353
0.596459724178139
0.6173153138134
0.597989111840512
0.649622609997209
0.640437319760356
0.64081832881844
0.618105194577276
0.626156460043342
0.626274331234911
0.638535192694499
0.627242454873703
0.644827479989364
0.651638958826281
0.65955007199068
0.657710778607471
0.656392093756856
0.666342506218806
0.680054341746825
0.696855619418142
0.693279427658606
0.670833627363898
0.684037205555392
0.666579890935688
0.681025830731142
0.682483325913878
0.679669007751887
0.672190320350344
0.683019456162693
0.658887819018213
0.697416019534654
0.695282428040969
0.674068773506801
0.693363056597897
0.667176786455402
0.664215749232705
0.663898589276396
0.652315577302285
0.646719945134694
0.651196203167453
0.653839257430561
0.646052944310057
0.648041699648121
0.635743314322474
0.637920262313666
0.634969849435358
0.647036154548829
0.634205742973748
0.627817327020553
0.63294897926298
0.639335822082745
0.625099504205701
0.629929239772613
0.623459260682574
0.629039082838728
0.647969257587416
0.654694872488261
0.659828780184492
0.632523278821177
0.639427897561848
0.632362169827868
0.624637955285935
0.629715732913477
0.623348582414628
0.629193716375811
0.622886440565882
0.623941874525311
0.613454893155092
0.617539994657881
0.611420920028728
0.608273768630336
0.607372141437562
0.611824922904481
0.598278542124154
0.597982862164781
0.585158451393528
0.599180833628659
0.594634239950822
0.597344253848723
0.588417873514952
0.595507448920318
0.579891147386501
0.578718144222553
0.57471381639552
0.58627961455586
0.580244293355008
0.579896122281614
0.571271908653536
0.575544417392866
0.57534498315067
0.573710545979779
0.570831590687044
0.569266595247382
0.56809749808954
0.571657160672012
0.560431858927048
0.566659353514991
0.558619481870269
0.559968937457022
0.549586749900974
0.546911431914679
0.549535689070218
0.547227842680835
0.541031847322196
0.537830892318646
0.530840742024543
0.533019160335177
0.520307334353716
0.519922399423448
0.515900109941204
0.516013026140339
0.511330083921307
0.513766903466696
0.5049190373174
0.504233324433493
0.504867485048625
0.500899254481472
0.498812766513541
0.495501484834506
0.495074295862973
0.496951271955265
0.493848787563173
0.497528450900919
0.490620765173047
0.501770769883546
0.491752040404395
0.498159553001797
0.499652374253721
0.500467591293308
0.503200439278364
0.499969858574867
0.499118914090475
0.502374132870146
0.501634558230597
0.507323805635737
0.508304999950494
0.51011838205796
0.503936320844508
0.511690079038049
0.508348394376558
0.515395665362581
0.515267173602834
0.515751535112463
0.511291442765878
0.515186994086439
0.515820534119922
0.518082085914701
0.516633699988725
0.515052217109303
0.514123849036622
0.515936956536786
0.514394887866448
0.513227410753271
0.508444038036898
0.511509655391682
0.5102166693439
0.51047764820439
0.506297063311998
0.509139828602174
0.504993762888894
0.504170978111123
0.503845455656297
0.506808460707226
0.499720655572371
0.501948143813318
0.497316007650693
0.499040806276111
0.496433351144825
0.493186827277066
0.494271441418007
0.490982363384317
0.488405686520403
0.485181869780367
0.479637728924747
0.483473809396713
0.476824665762042
0.477522008747871
0.469085194266482
0.468803356071499
0.460797247848458
0.460383072460062
0.459892566341891
0.451938150717714
0.449278497721827
0.446134919008734
0.447232569194107
0.437389832829586
0.435240326165239
0.433646747647747
0.430333360212652
0.430453523612909
0.425087335921634
0.428173516326495
0.428426831283869
0.423985534409426
0.422151858240292
0.425517952522827
0.41849644408946
0.425100840041167
0.420782686649539
0.424576499922929
0.423011224161381
0.426008890398245
0.42155883637789
0.422256539068344
0.416107919435853
0.414685113231542
0.410574713154941
0.410642757747616
0.404537978902492
0.401066283568496
0.392232596358932
0.391946974155811
0.383030013777591
0.380939441236116
0.371238808224311
0.36784334994257
0.358870186056292
0.354121540239577
0.351528567691487
0.349035590292092
0.346701541862744
0.344744406205715
0.344119302423171
0.346269498853878
0.34764203290199
0.353573049585467
0.356218172957752
0.362870336047469
0.367024148893956
0.379681656715204
0.388544368099221
0.400871557120022
0.412727177703708
0.428779937568707
0.440233759533188
0.457322805081436
0.475502722015327
0.494012295667133
0.510449464318177
0.538825571297918
0.556133813689126
0.58278031737873
0.609457577211986
0.637151484212553
0.673385745900842
0.694635876548164
0.726464676057721
0.758512766962991
0.792614641444947
0.817927012623333
0.843042141935929
0.876699719707425
0.899700537025311
0.929070748946653
0.945090762586605
0.967519449151285
0.986502218834277
1.00256463956865
0.997746173936171
1.01723060585048
1.02702910970053
1.03842396569812
1.03721156255014
1.0275748418281
1.02051568383022
1.01651149154339
1.00677624744498
1.00712979152122
0.97093184521732
0.976233646300028
0.968035192302005
0.955905137958923
0.941158991062386
0.936121428864258
0.925053832843176
0.920203868451703
0.907437963939562
0.912016157270837
0.920968105704706
0.914673746045515
0.921119696772634
0.931708321637019
0.92466205733514
0.932731247211447
0.946555658829245
0.949876962909473
0.956933863170629
0.971765697035245
0.978957988811907
0.995021799106201
0.997633414532014
1.00061788221088
1.0123862382051
1.01473811576448
1.02731796719326
1.03103494489343
1.04516496233366
1.04250269906394
1.04905285996093
1.05200999700034
1.05919861222616
1.06660951658539
1.06875682996844
1.06977165316177
1.07201371254708
1.08636035650578
1.08192045429526
1.07649925582135
1.08655736162289
1.09056454801004
1.09259901404531
1.11787739825846
1.11303696757152
1.12469542759603
1.11344035914634
1.12491283722721
1.14192088556968
1.13408122449636
1.1291199542134
1.1517971128449
1.15114150927066
1.15113276565274
1.16884660628481
1.1868599334082
1.20821065508219
1.23571310102038
1.24607705960872
1.27214267562801
1.32212440615552
1.35246526502017
1.39588462958882
1.42177540544005
1.42754888984357
1.46716105217576
1.51192095299651
1.54099010884324
1.58861908803021
1.56926479765739
1.63655846661036
1.6413664337074
1.66461121581533
1.65420629988128
1.62014577125293
1.58577487120036
1.62603209757561
1.61626377570524
1.57632589729992
1.57088541427019
1.5342332199963
1.55716953775647
1.55357900561168
1.57708618993549
1.54045939729753
1.54200013409288
1.54026320166743
1.54657539099854
1.63485395925167
1.61642863192169
1.63220567048003
1.61858047704949
1.71029870781917
1.67432176237011
1.67510172401408
1.72123236176936
1.73482478319829
1.7694379036569
1.74807135279586
1.81036727822079
1.79089445690028
1.80468335385869
1.8820694172473
1.82006856014623
1.90320233314124
1.93380521898927
2.06913207494783
2.02840435821288
2.18725400296989
2.04915115376383
2.1917777709221
2.13198988311167
2.0386821274847
2.00479492689414
2.1367070964834
2.24309044943151
2.44843128560416
2.1886027391013
2.39928238057539
2.56570793114403
2.87815626261109
2.44266992231123
3.6939776318894
2.42275334224361
2.43930971951123
2.30424051523744
2.88736831205417
2.21876745822633
3.88535985719112
2.59636949598697
5
2.42414679046592
2.82182492906593
2.5799302978272
2.87882792780009
5
3.14189880567973
2.34078425243409
2.26579806786307
2.55709204482639
2.3275790209759
2.40983020143717
2.78287676718654
2.3393792524088
2.99885794824786
2.50455520369405
2.36285122960528
2.32463921938552
2.29638323379681
2.4489966884321
2.54390371998506
2.11721021726249
2.29970995308713
1.99647931412741
2.53641342777942
2.11509740674421
2.25049496417885
2.25165923256308
2.28133331772651
1.99959780269464
2.29163335894437
2.18701363390166
2.19142578867638
1.91865689925076
1.93811065016842
1.99950946179236
1.87769492338107
1.74038888814747
1.74973577284727
1.67034522781401
1.72008002807311
1.70517380040784
1.73916780230744
1.63152900115045
1.55817598232381
1.47861823926145
1.49285425550349
1.41029314563779
1.37239154930404
1.32480749009128
1.31066830808447
1.19063555772237
1.18523201185651
1.10244226384048
1.07981957832799
1.03345217204314
0.998018377819225
0.956506653557671
0.913832938965617
0.870013334494141
0.845107490226544
0.821071862593152
0.812882950298721
0.777098508243835
0.767381441800434
0.743038163100624
0.725343252426924
0.712766873178342
0.704947949016275
0.687926330967675
0.686931316050645
0.686131850164224
0.683105703736415
0.67288904513938
0.669636832872483
0.661692752772066
0.657965852112424
0.661305065297628
0.678027677130716
0.673101151298326
0.676849967151428
0.691978855153927
0.69985240616425
0.711888382962726
0.723873702479647
0.717214570920452
0.728303207338613
0.737064078633449
0.748575077887773
0.749052345866231
0.752329183349282
0.746105230162967
0.756803243440346
0.746544671049491
0.75594563678048
0.756839761851258
0.758821663535021
0.765530107965172
0.763470659933513
0.776305443830577
0.760370372342366
0.749466849750029
0.757689536140083
0.763908247542707
0.763604330066715
0.75136168773505
0.75105532624118
0.75301737406438
0.744176802339924
0.734984941219083
0.734598162493457
0.734342540719999
0.726471641312895
0.720712982540497
0.715119925618214
0.709084481222939
0.710699203748295
0.681603342274683
0.690169952981149
0.687693222207327
0.688077319139501
0.691932085658244
0.689527521556638
0.687994878241443
0.702249506932825
0.68622599273316
0.689408827089281
0.689296702606285
0.695653317202472
0.70210194428232
0.713956845018351
0.719805847648627
0.731390127193987
0.737791990461514
0.749735407819236
0.743202338528795
0.747770918881906
0.742504455916044
0.73676177996501
0.727915454941229
0.728424920351476
0.711093788884933
0.712035917537419
0.688607107160321
0.67614587462079
0.662199852987449
0.668239683087278
0.676971724552781
0.667642244043641
0.654243699891495
0.673175011826127
0.662818108348184
0.665292401013666
0.661450158263114
0.679190467227014
0.67235152804166
0.682706495021349
0.687696217705156
0.678030134917366
0.675888515465823
0.691639891447941
0.69680531524404
0.685011584011948
0.697187683880915
0.709284977308331
0.693326625058966
0.702780111470935
0.693152739585207
0.693882425644752
0.703304465208073
0.698979459889572
0.717808024544915
0.722875948575867
0.705942960950051
0.728682658548742
0.729100694572985
0.729461226537798
0.740147065732999
0.727046108825707
0.708564831778163
0.712064866487473
0.704375413700573
0.721105952190277
0.730348249063362
0.728852761065486
0.723922867248413
0.732961595357776
0.721262837149789
0.7295874977004
0.714216298508854
0.717801133134472
0.695953755294594
0.714912221613302
0.695731588746473
0.724703209736667
0.70343310427383
0.697588080201705
0.708242543509499
0.699423226081586
0.675227731096466
0.661214619964559
0.670191615510221
0.682231923476881
0.651774826491887
0.645124815579812
0.647460235712827
0.681004770560512
0.644505936625502
0.629874878344745
0.635143860350636
0.668063845232555
0.641921011406474
0.653000128396381
0.659266916066866
0.651887980570557
0.638411538299328
0.654664678883173
0.65314954304766
0.659017088834339
0.653346800810909
0.6605873938732
0.659804626832849
0.657884242202443
0.668316072044893
0.691847222349352
0.681914192919323
0.67837171893789
0.684414302230943
0.691514969091544
0.702668548913765
0.720520582918271
0.693774921712615
0.727127723975942
0.705297441135429
0.702599124827906
0.716562941394555
0.750670373707023
0.735689590015629
0.738420044933271
0.783538891244536
0.77210372750866
0.789919709542143
0.82838476110823
0.826242715425653
0.820801239309807
0.837372374236047
0.900877610837195
0.843841612560011
0.867091478571219
0.912545029429855
0.872899977443669
0.873006275801758
0.971992101908775
0.879635843505659
0.899838575939502
0.919477129266089
0.957304512759539
0.898286342293712
0.904724483577382
0.949046044698587
0.986102736966786
0.927961418898378
0.948595374877216
0.972265200632158
0.973908554449155
0.982124042869429
0.970191602049333
0.958248002260869
1.00160232107807
1.0269688610982
1.0258994463157
0.941785167241708
0.99837313382223
0.954975369833224
1.02961128224846
1.02861700824096
1.05625798778488
1.06533020403151
0.990726137298747
0.948061057140964
0.966733839708413
0.945748995584042
1.0342530707353
1.03508381799518
1.00920988753495
1.02633166276425
1.0787662353633
0.966584592146833
1.00487967073623
0.920437853947421
0.940202834130553
0.95183628456246
0.994415451863477
1.02460086660999
1.07415411596813
1.0693027135218
1.09083930869431
0.986278396655563
0.891730833642731
0.939628324809964
0.980302315275773
0.913596903999911
1.0010115826549
0.942867871738887
0.915065419686327
0.954079989250597
0.955627222582159
0.893318270451449
0.969883069434705
1.02003913867388
1.0178844403945
0.979623246836712
0.997850989813875
1.00557565548265
1.04400527324334
1.00927644068975
1.11518997076698
1.02939130965384
1.11386220915534
1.07911067252341
1.07759841704287
0.996958864227476
1.19872764798432
1.10024076902531
1.11546520439071
1.09915698328428
1.04719994227272
1.09856498324316
1.15491763871259
1.0136630171027
1.03619160014011
1.01069926326289
1.13142739031674
1.18650907120635
1.29080228605767
1.53119897531528
1.19697675100525
1.2881431366584
1.45674027883111
1.2108920205142
1.49353738524999
1.37436998218051
1.2090701513412
1.09626154752471
1.1624204256561
1.287336794239
1.66009943692627
1.26798803852512
1.29449505660062
1.44078676102669
1.24657566941089
1.21318054649129
1.27346864198413
1.14265542385515
1.34841384217328
1.19834750205125
1.55388629105601
1.46617191794671
1.30679901787829
0.966587096037859
1.04567803814916
1.64609062794546
1.53499430527141
1.31081626458204
1.35630890260191
1.06330690371284
1.43785674114142
1.37337110483184
1.11875223482161
1.19297651403472
1.40983254218135
1.41126997854061
0.962221020989148
0.916485460432628
1.5607337723179
1.18607667684016
1.44084815473891
1.95579526940607
1.13916206473137
5
1.54948290738639
1.811728421701
5
1.39297678608924
1.24589946592319
0.955190049120794
1.53198625697268
1.73879481066237
1.24779851352616
0.919076840014539
1.05252809921467
5
5
1.47818692218802
2.40778962624432
0.991111158668617
0.749058452663349
1.0570724961478
