3596
4000.36533379555
650.420452594757
1
2
2
0.121428574385411
0.117529234233957
0.128389796423632
0.125396979535022
0.121003588971057
0.131844551041701
0.133750299758587
0.121758977870189
0.125730174340876
0.136018498056489
0.126415471720402
0.124885539552465
0.116271657050296
0.122741821379223
0.112754848767502
0.120384346562688
0.119875859040485
0.119935540006921
0.114812607999911
0.121994846685048
0.125418536030649
0.123390659368036
0.120883380758918
0.12055052409613
0.116740762109113
0.12291305733396
0.114544658608668
0.11554928350693
0.112104540725776
0.125087375394328
0.115455940594935
0.117193313892088
0.126554088545589
0.122539481215433
0.117758619538923
0.125854312810441
0.119666628637742
0.116629068836432
0.120045282537386
0.126437562118466
0.128021480349743
0.11785587000679
0.120078573444081
0.12190387788005
0.122817384332161
0.12266946504178
0.127599138252631
0.116403833104058
0.112329027657788
0.12390935291202
0.119579197809093
0.127109765282208
0.141196459085329
0.127657070450569
0.12716605874732
0.140507975710374
0.124178916548372
0.125947327147065
0.118149519774404
0.124815209209695
0.150845653052266
0.139162933560568
0.115719483945697
0.119303028743122
0.11898875073512
0.121790874036658
0.121313261579361
0.121594076018936
0.117028308518876
0.118898312011862
0.123135726010774
0.150414523909818
0.134632296487431
0.125099771216916
0.124540919724016
0.122204859357859
0.118077258547412
0.112473407166632
0.108090969260936
0.139889987879725
0.122249244599027
0.118573488016221
0.109625295830544
0.111389533437507
0.1272467479647
0.131359724970043
0.105212826416365
0.128681422670174
0.139372202217917
0.123648251212171
0.11260425454545
0.116242647554177
0.105357127098968
0.11914005293238
0.101633393445646
0.11498073026032
0.107710047289295
0.122803200996406
0.104726076136835
0.129811116060465
0.120917604963772
0.152003842540937
0.148525503543305
0.122145963513822
0.179123742909805
0.1173810051821
0.124950975872568
0.161385321380264
0.126558285396981
0.121464072174192
0.108764239705977
0.12423014412814
0.117550838505375
0.123013459048248
0.105257492829513
0.159020072801627
0.135072184133298
0.124562750270811
0.111597897282249
0.114681320597486
0.0979791853536962
0.167715331838559
0.139547730439569
0.127610320294662
0.124042856866402
0.112492856880208
0.114096985907857
0.179479470017125
0.136803111457768
0.119279776713999
0.0972895112740131
0.118565472682694
0.0988989462096874
0.127459217329883
0.147843518419029
0.114722761824567
0.122159016396023
0.110998604674571
0.163959062631873
0.160345353724313
0.120506205404835
0.112714716064423
0.0934778767606906
0.13401467568053
0.151492313553085
0.128512633121958
0.116158174425449
0.139872423335594
0.105486909009137
0.111642429826763
0.108715053937204
0.11447742256151
0.131276304406586
0.122964806685659
0.0851138152751534
0.219221310432916
0.160347217497103
0.166437141180199
0.16753496182565
0.109540202970017
0.122119445152112
0.102784315807639
0.104558224763458
0.1074182609606
0.112285979316897
0.098341051955907
0.132553389592095
0.135983541466883
0.119355282303646
0.126947678984134
0.14202385964442
0.127776838029508
0.118716849474922
0.191673090189267
0.114985067433807
0.124954021402855
0.136473325236981
0.117796232632035
0.100215779421749
0.134302746247323
0.132155919524521
0.105156391243494
0.119291388530041
0.109235248044996
0.111054454816377
0.130222346015706
0.108771271857557
0.11980979946597
0.114474905272137
0.108916750543886
0.141636894648221
0.182911931483846
0.142242112831934
0.11256199508618
0.10656720664826
0.0902000053312471
0.159614970125465
0.13326918677038
0.104993335693221
0.105190116204398
0.0991564622321243
0.103560033477565
0.102135986229628
0.108144063831916
0.0927346703658798
0.104579541775051
0.158218949907713
0.120615306862363
0.116600933660138
0.102603858551588
0.121518643980781
0.117876944916665
0.184555016327329
0.133271368180505
0.110907430863266
0.11375847705855
0.101932804945782
0.127420588801668
0.119251106989344
0.10570570768339
0.105513803383424
0.103491328456145
0.107329159457902
0.10434000547714
0.103827406862191
0.105599918649645
0.103092529547185
0.108894500060379
0.105102254113797
0.115972000834319
0.123522766616685
0.10996521201987
0.102975528934952
0.108476985050406
0.102806403469687
0.140910995410455
0.132980836632731
0.121274148653463
0.11561656687833
0.107532787608136
0.102953629548307
0.107114375220266
0.102401674900041
0.114084994871033
0.10447899447816
0.115829016567741
0.154167310689795
0.108246719109249
0.117076773871725
0.0914979301709193
0.144979387577463
0.113580759379601
0.114332476663003
0.10744065468999
0.113492519895197
0.0959931947434524
0.138456350593721
0.158282359068241
0.118957860038023
0.112471485023523
0.139340828380566
0.114750269117654
0.110938452182936
0.115483553622399
0.117424023158018
0.203746476238998
0.122254990761385
0.13440967018393
0.170308299559543
0.117690711605704
0.138744584195916
0.113549090923614
0.127891805078408
0.270643518167704
0.159754715915152
0.116825161455558
0.116283454133041
0.140060567805384
0.102158268339074
0.133226572832138
0.113959616563765
0.148845029434388
0.144615636959505
0.181322884158003
0.18821843607938
0.105984406364932
0.167997894867271
0.140623626511358
0.127637537710088
0.114766379631284
0.116585096793811
0.107641472988664
0.150994183433027
0.128734602789025
0.147442468246896
0.121959745270423
0.126209006784383
0.161434472794134
0.123009183479118
0.115821413386343
0.133465796859905
0.126427808998356
0.111535129670637
0.121599538004342
0.109766237432569
0.141975894706313
0.11605789147762
0.140673225029843
0.183168822170454
0.136410703938359
0.135532051651531
0.165785179644921
0.126825168138618
0.122115316947485
0.115450756753349
0.121461752255374
0.113361857861645
0.116729851752966
0.118415117067033
0.158996582062464
0.122494040054796
0.123037857845019
0.119488272775235
0.126055975416749
0.127152699679656
0.124772009014486
0.116355464445614
0.123177711399488
0.119193290870165
0.11753873725129
0.154611873419263
0.162326703631343
0.113855844841796
0.210894950559407
0.151239610170635
0.136328176699253
0.135543751211959
0.13204550205023
0.130063353077131
0.129403827953474
0.138112469762784
0.127492477960648
0.138168439127068
0.155850428045862
0.147311141902736
0.151495044938801
0.162741862399871
0.224751287622424
0.225011247733549
0.1664876036273
0.154926283317056
0.133494285589988
0.219949852091359
0.185669057144718
0.202862985746659
0.181090743012589
0.143975904822237
0.164039485315705
0.149246101813764
0.169392864700792
0.154787836621662
0.163598194025136
0.159849102982506
0.176790715560123
0.165612322033711
0.17665166664013
0.162750240920888
0.202586476745565
0.220370635654963
0.195891267153747
0.179165887796228
0.191924278128885
0.175756438054872
0.254373533325217
0.208746760503502
0.272513967518466
0.231274711737638
0.247412251330055
0.254208293729221
0.202081256014422
0.208697171926643
0.200324407318937
0.217688404171453
0.223380867689437
0.218614400913792
0.215081133603244
0.219985693204425
0.231403478190402
0.230261358744118
0.231362921356106
0.231463820867518
0.235958405507601
0.265507184970275
0.245075372660764
0.259843035046618
0.243331976514026
0.299811396920816
0.325832673253484
0.32706393884127
0.26336959644129
0.273951285390566
0.26630653409521
0.267889433992844
0.271311938910838
0.279358020678561
0.285886172239598
0.287623371762874
0.341155044681867
0.308277404559141
0.33510801048721
0.321023512673644
0.296572229139242
0.336456454564695
0.318031682978948
0.33711738436322
0.366374276028409
0.316018458796479
0.318681912892493
0.364834391778631
0.356749761712144
0.350107537889026
0.385994117266391
0.33826997280429
0.342708037256197
0.347895847868502
0.367508227971281
0.35550571890941
0.382111288006756
0.364109590403045
0.389912696826727
0.366246493696234
0.388486703222422
0.37070726770829
0.425407925605639
0.389269065729381
0.427277395486892
0.41627362936325
0.386765343560018
0.415263677356876
0.39486511041902
0.450561871064376
0.46615172246294
0.459661968319652
0.469854322358811
0.417369146782106
0.44528757813422
0.449067993991123
0.444827299754521
0.423351681774842
0.481357795712937
0.447469574878544
0.456295945054574
0.444265543230976
0.484908882592367
0.460187577078778
0.502714729543928
0.487967878155329
0.490774171153674
0.506381100868542
0.517278344871116
0.488957371951753
0.505846801835783
0.585047640743819
0.575319170216126
0.552075832901114
0.591410629250715
0.525589469308881
0.560069091539195
0.538175574077639
0.560934639770607
0.530119705448129
0.571167671814481
0.570483183931752
0.59526835077612
0.554076854443516
0.612039042082971
0.567562288919331
0.622541997978182
0.614781015645129
0.628103755510522
0.600013406877717
0.610209711333268
0.60377839339296
0.641291775787434
0.6267498496232
0.667300548527611
0.635752254270429
0.72448975364248
0.62536851167656
0.687789247159702
0.660333173935324
0.700581415336633
0.670696402008828
0.693149636839849
0.661331999865314
0.694258889048312
0.653076611187978
0.738831737502312
0.679422997588747
0.730430506399008
0.711682710732294
0.756630319036499
0.733147345486129
0.729527491333976
0.734664918751114
0.761893273694932
0.714830985845116
0.764311105039942
0.723222673251368
0.781006237870108
0.792275534477935
0.867146547787576
0.822876879089493
0.781364241788708
0.73843000931388
0.820348294404092
0.791126173747546
0.845459088281702
0.804241777992597
0.825756109520011
0.805340504863597
0.887591251604828
0.806138726112621
0.889335916378858
0.811356333101644
0.899518556046561
0.820052478150709
0.845599237465892
0.853881549556402
0.912272619399959
0.822747113053516
0.887890374564925
0.867957905134421
0.920194339849612
0.911854043454218
0.947263595838259
0.904467941381004
0.932263185015286
0.891583074571083
0.92599528840381
0.898665607122026
0.944300395044403
0.913980999676176
0.985893644372557
0.937322260955312
1.03222538378047
0.950942589306678
1.01569807176285
0.982898022722549
1.00478970845247
0.938531187128333
1.02513171862582
0.989433756383531
0.981478529534538
1.04142980738088
1.13287090697023
0.957136123214956
1.00752565449666
0.990683838752157
1.12739578382452
1.07865668636481
1.09572956747617
1.00694063093274
1.18013922620562
1.06543885868473
1.07887742529557
1.05061480524515
1.0866352994519
1.00176992145799
1.15108434882407
1.06922930412046
1.11746602212142
1.11425108591564
1.17103519259032
1.15488037760813
1.23784407015199
1.10426668303597
1.15818696773753
1.07325533692883
1.18514733602178
1.08886670158601
1.19676880698285
1.1297126824586
1.25043853949345
1.21224825190634
1.30381892925642
1.22684289572057
1.32020383398803
1.17853913977185
1.25684250883174
1.1440069216935
1.23490788520674
1.09233347046784
1.23574521674845
1.20734979808132
1.19739940533505
1.12438380335602
1.44157485661101
1.17836510086345
1.42406706299242
1.20590535244414
1.29580311187934
1.17059351792177
1.32327383342576
1.27139640938757
1.32031383486521
1.16368048943921
1.4835054227015
1.26188894160236
1.33731344911823
1.21857533631487
1.41039250207103
1.2745541764309
1.41189464456642
1.35134507602226
1.42318246696067
1.32891282969734
1.57579887669889
1.37130386784143
1.44246716541656
1.27983537101766
1.65292695886203
1.28655739641355
1.56543652458578
1.43100009349897
1.52197441073153
1.32253581519882
1.40415834833664
1.33032476552163
1.49290780955381
1.36182062314163
1.4652040258918
1.50452868126562
1.54260085224913
1.44388570300445
1.58895733593927
1.43447922180856
1.33571642461132
1.32738353480864
1.63793511734603
1.33664764029945
1.4580536982337
1.37616774485097
1.48513733555054
1.4814274098567
1.50063319584853
1.39966700760031
1.55015834864634
1.48734837570691
1.4759075672225
1.53046498605807
1.7863579055808
1.54346757224308
1.55869448021602
1.47375880626458
1.66377343307727
1.49229958572291
1.73655101650929
1.5705423096866
1.73146422848557
1.45092997771475
1.62349719085294
1.54038588952941
1.51081958664353
1.37587135384665
1.79936283323637
1.56548748925396
1.73042914906179
1.60999079270623
2.23978826652621
1.43648699495627
1.55126638844095
1.65273801140906
1.51691288943413
1.37533521091612
1.57332346781194
1.4103794025469
1.5966996286467
1.5382947006475
1.73669709527055
1.59880965130594
1.93650724643973
1.56019489751181
1.52391629705487
1.51102190113573
1.7785164404479
1.52811947214322
1.81426585343479
1.58951782067577
1.97390461550775
1.61438901184373
1.63442634387367
1.60102199932971
1.87074951651808
1.58844663587917
1.63015370775128
1.54391353055098
1.68998694293204
1.73127962278123
2.04446575653276
1.6562420655499
1.73082199368061
1.81330140163423
1.77127230472065
1.50980166976786
1.89107243070312
1.58885191487773
1.74880592305748
1.68790039685231
1.94346516556481
1.55487827843113
1.75724041486879
1.80468298852113
1.64813718556191
2.08935425787133
1.66196407219124
1.53908772914922
1.80934906979957
1.54914080343723
1.93042252222611
1.76024045955775
1.81122031377817
1.80607958964793
1.63969696190191
1.52534736395975
1.81016418276192
1.55552980936572
1.70752959154978
1.60553213540715
1.85959628772109
1.7879261756697
1.89560413096858
1.68596040003487
1.77619423939649
1.73500698396381
1.87227834816984
1.63772439657259
1.78136121558356
1.69744481138257
1.88943417646974
1.56826430704182
1.69702082517388
1.67698019860604
1.84978063776391
1.69175510249831
1.70688526919408
1.76144738983643
2.1624960768616
1.84183837449139
1.70029085838675
1.65956257879497
1.86575546463759
1.75759870927979
1.96988829208345
1.58143841008611
1.88499380865892
1.60712854446489
1.69543302284158
1.75786841371894
1.64386984249782
1.53820088963619
1.76816924780432
1.67646309713694
1.65675513214667
1.64944938223368
1.78071259681075
1.92306696349972
1.89933292658884
1.81135620421179
1.66178165858724
1.67397633694862
2.33122831463653
1.65083555853051
1.98677888487678
1.82185230260456
1.7161770929197
1.61844393582516
1.65050707979296
1.55195995688588
1.75667963946133
1.80853833230295
1.62387012245186
1.69108081555953
1.83824532405572
1.67132979173631
1.58191464149384
1.78742244005826
1.82711464356124
1.70168673687023
1.75128941918555
1.61471120186305
1.65732080490977
1.60661768910226
1.77242924983626
1.65190855132318
1.62775268378492
1.61929133269101
1.70055605070454
1.68164529956251
1.65742223007142
1.56860799007538
1.76055303459941
1.64392088038723
1.6259597459634
1.62881743831553
1.70976351397005
1.61934877805576
1.5532513574058
1.51084020960285
1.80234221739658
1.55180337724822
1.6630323134023
1.9472396274007
1.6269883897221
1.60896103588449
1.6393639847699
1.72901693954747
1.75148061876796
1.5494791925329
1.64271909500203
1.54708655648629
1.56438716283778
1.73295498837912
1.77234089550792
1.61821503262505
1.72334006236679
1.6049711346196
1.5731742880002
1.54480675497727
1.68354354105204
1.62191392711459
1.52264315809003
1.60124946031766
1.67083015473775
1.59905618446004
1.56553142240653
1.59232155535045
1.62102690813104
1.69483561779066
1.87802695445853
1.65039387368006
1.44879161712116
1.4609659063526
1.59829681798422
1.73278107372226
1.62110829579954
1.50462272203582
1.55996094584648
1.48661067841585
1.56789565250734
1.45393228968641
1.47025262461112
1.64739893719838
1.59545209784473
1.46716383507866
1.44639161304128
1.41205067043236
1.54775742127841
1.59076640559024
1.51629190695821
1.49775635488253
1.51116377265333
1.47721994476467
1.47261374974176
1.38403822121489
1.53804289228177
1.51076385231047
1.39265306016879
1.4146707647293
1.51388634161233
1.40241543323509
1.45924464873633
1.41688641404792
1.32273399958464
1.34830495710296
1.37303682099499
1.41645979313781
1.37867540559475
1.31143374711012
1.42541646753809
1.44147074833896
1.37613289359144
1.34274529638709
1.40292287541415
1.35385572078811
1.33454126114981
1.3068284315489
1.33738857358435
1.30613693088173
1.31825348762998
1.39645295553373
1.32662292367641
1.34989572556847
1.40571134666806
1.34861701739561
1.28596203082124
1.22994670890315
1.27491588521841
1.28749735372622
1.23647414153578
1.27458605492212
1.28490340910812
1.25873396579015
1.26086110432352
1.23836071898658
1.20686750722864
1.19473609514525
1.21034989813253
1.20473309202136
1.24379039613893
1.23014592601649
1.20494873341113
1.19752257820582
1.21251850103811
1.21915684466039
1.20751046380983
1.16648456086592
1.15492294668384
1.15972670207443
1.18149438416738
1.1543844526013
1.15164253442258
1.11512823993497
1.11569160804118
1.12546090050495
1.11110773102079
1.10858314062421
1.07977144700615
1.10292684396427
1.14481114106903
1.10503985399618
1.06062971385871
1.07583309507901
1.09582457765865
1.05833608590712
1.04907560205574
1.04399334569792
1.04075392036133
1.05089996634036
1.03795551316367
1.03678923155087
1.02033586747981
1.01093958028303
1.02151787231496
0.995306352465924
1.00005181488042
0.999145661821363
0.990181108738888
0.979642115988808
0.945676417625888
0.957119416173061
0.980015126028379
0.972670936110061
0.956000313465132
0.948680055051029
0.951393048431391
0.940610816407449
0.940106524564259
0.938691064649319
0.939891529931611
0.925993902269153
0.904505982097261
0.900644195384139
0.896966016026905
0.909712105972999
0.892488861884586
0.898315116257789
0.894084403101371
0.890335201025282
0.86683314571957
0.880318217717323
0.870037158589486
0.843629038615817
0.833298334676572
0.843750913107422
0.849610493871298
0.827864925968987
0.814987686842904
0.820483408975875
0.834888749613304
0.819704831785439
0.805329632318944
0.804753607710511
0.798570476842489
0.804505007706091
0.793573219578802
0.795945333310642
0.778532672396834
0.775905766283802
0.778437849316116
0.77263071153596
0.769789784451052
0.76292999178373
0.774415429616522
0.784582710350862
0.746880435945147
0.746420240377571
0.750156212109976
0.725873937730682
0.721256446448607
0.730022418044438
0.740024633288007
0.737797985829418
0.71576997543587
0.722771477957162
0.70794506286993
0.71281615122235
0.712326592283291
0.7029466700986
0.696599494265254
0.694234863921447
0.683479492506497
0.686031363733246
0.673618679257522
0.679716079164755
0.684954239965894
0.668055286167987
0.66257336093427
0.674025480561513
0.666001614405793
0.658009374966756
0.651143207948634
0.649078863330132
0.635608969937441
0.645793392181887
0.645741000360759
0.633343434635845
0.615252888500509
0.617744194076858
0.62561822749094
0.62118216525605
0.625314324446212
0.621227888880204
0.618433254495534
0.609941075436339
0.594492915007219
0.604489229080322
0.59674566439353
0.61177633220736
0.602252544685777
0.598775173380079
0.589519532504763
0.587643667601829
0.59176443683871
0.586118721559544
0.574263439484335
0.568048817534888
0.570296898529051
0.580746399897219
0.563714899260681
0.559855893431525
0.56532498469889
0.55976334309727
0.548094914987474
0.557617576439046
0.556137410149388
0.551540858419043
0.543479564443814
0.539229454913492
0.536569325912436
0.545248040894433
0.5414737893463
0.538425891986667
0.533605019753208
0.537197280364758
0.531199394583732
0.535215919510885
0.529948430764351
0.534881685507519
0.539776317960746
0.531399307620031
0.528307243260421
0.533523449308189
0.522318857717465
0.52753080723732
0.529610267734785
0.533505580056962
0.522506242781456
0.524197503079385
0.521799145508273
0.529907953839641
0.521805956509814
0.52904893749802
0.525561190326068
0.525170746660493
0.522227279487152
0.522517853091007
0.525103336350321
0.539995420829196
0.536044618693071
0.535074361535414
0.532930931248366
0.541702462894119
0.533605350652729
0.539990510369591
0.546880262559536
0.540358230241877
0.535534309689016
0.545440401888499
0.545422589225518
0.553412247918177
0.551264597594694
0.555995104381165
0.556279345830152
0.566315968871544
0.55982978445381
0.568935876288947
0.555107447992786
0.559285910433808
0.564247513088596
0.578177246761296
0.579887949679555
0.58546572403182
0.574685501523631
0.584437865654045
0.585109507649975
0.596185491146019
0.602247277411007
0.603092042541891
0.597388194118782
0.601349609595442
0.612283784337004
0.619781443880388
0.609633661506857
0.632847476358891
0.643247790007184
0.6433670110216
0.650766259752967
0.657428614519156
0.658287644586049
0.661405360909039
0.669483430261866
0.690086231276691
0.677180118318714
0.686127071747632
0.68411627892208
0.698274195812547
0.700778803008654
0.707726900124805
0.720967694583249
0.735530677774406
0.718500865289615
0.734695912900383
0.729894084161178
0.736227906421257
0.745166711909202
0.751715903320586
0.751182355503681
0.766685808681426
0.74874219660796
0.754953683224265
0.761716180592706
0.776818423066495
0.752700852814347
0.74892899634745
0.741687247309178
0.763955470334746
0.743295620161932
0.734800024733507
0.729939724882408
0.745686557474132
0.732649307241019
0.749964575642525
0.739962943482502
0.725312872459995
0.730993739802793
0.732190926116046
0.715002875580863
0.731678566477954
0.726770261712403
0.716876514166295
0.71607449511894
0.726252187269809
0.714385125499322
0.713434303914333
0.712846322626382
0.717485475490602
0.707669909476202
0.707398475683232
0.704845245709415
0.715649867786013
0.711460799955358
0.721560370034734
0.693823148114482
0.710386346270665
0.697759467195317
0.703498433763989
0.696324287472727
0.717465706015563
0.704073592925185
0.702746248152627
0.690681083343639
0.696149069695053
0.682515243551024
0.694272414848947
0.679571040808445
0.682214118180185
0.679935686404397
0.685565254543247
0.682341658824698
0.687146593167226
0.678445817070359
0.682225890951501
0.673885038434493
0.667243856060594
0.66106178377053
0.668066085561835
0.650260012197204
0.647817918925804
0.642443745521181
0.63628986068966
0.633284214348289
0.64468941707365
0.625961221426892
0.631417293026099
0.617307189468493
0.612955080076276
0.610491030899203
0.610903533906556
0.610094399333336
0.606178337413031
0.583640584562049
0.591923548886654
0.587340018625511
0.591069373621608
0.575574805805185
0.577184937591226
0.576317081379644
0.566708827452217
0.568799574815092
0.573243782825845
0.540741406135283
0.556139623940637
0.547697848091902
0.54844847088928
0.537407551842723
0.546231760925311
0.537109426646774
0.529819652118146
0.525791585999936
0.535342468399515
0.51699072488771
0.526784766740374
0.511938619348475
0.508641007186635
0.511243962554764
0.506658410540055
0.506536697306273
0.511096377875407
0.494200398310203
0.507228436243116
0.50307416915959
0.501128871189652
0.486073039984133
0.497648439043284
0.489243103161623
0.491325353973536
0.482366455596104
0.488561926491482
0.479863442418406
0.47972834230442
0.468393750299927
0.473734647984041
0.468988579107474
0.481473996632394
0.463597456580415
0.464088228140314
0.463743828877216
0.460642078372882
0.456804780693131
0.460032742942064
0.452902162241805
0.462702974060571
0.447636643490373
0.454062754088754
0.443710801231875
0.451651252841738
0.446126106177538
0.446120415416788
0.442151614604005
0.450506603650544
0.437132569218384
0.433920917307111
0.435856115398585
0.43946235737499
0.439182439287597
0.434453711848498
0.427719382091937
0.427282819920718
0.422015005021365
0.426792356737889
0.427870022718218
0.42290702152091
0.4186235534478
0.422681535221643
0.415312549454589
0.420761455780619
0.412629981668202
0.417594844021479
0.412660681020959
0.421525750628574
0.415946150243083
0.416951496236486
0.410660969418925
0.412204081170014
0.408047357415407
0.412097660177057
0.406068289058321
0.412466607375194
0.397800073105748
0.403949992437641
0.4031994992944
0.412609236073139
0.403685507191968
0.398346076379612
0.399845840832788
0.406200432772044
0.396614066208344
0.400569319746043
0.395906544082493
0.396705470548483
0.391622501064628
0.401256240266806
0.395478001701515
0.401145274068289
0.38916672158568
0.390820456305338
0.391034059019754
0.390971894079165
0.381863457288753
0.394619458034358
0.385409793881488
0.397714241788186
0.385752327782471
0.388159780281408
0.381726495765077
0.384548977382775
0.385151816688751
0.386218886637442
0.380856746435429
0.388069034215943
0.38393953179946
0.377924898957856
0.376059414830507
0.37720300617051
0.378737853563105
0.386281093098956
0.374272918281992
0.372395331889248
0.368247544972613
0.373530078078594
0.369862508896511
0.376752250782696
0.368105864438376
0.374071114963041
0.370665166322532
0.375732128411004
0.3724341113466
0.371764392450608
0.367244325443775
0.376964372906042
0.372180538687604
0.368797436505035
0.369277708776582
0.372365306581982
0.367124876181899
0.374269603869816
0.367745361935489
0.365167032934955
0.362581547799416
0.363817995170236
0.361341261335338
0.364675945900322
0.361477163370141
0.364363631953074
0.360715581515892
0.360633431415221
0.357001710306934
0.362198317730354
0.36353233775067
0.360523153323635
0.356829080527322
0.360278202094574
0.352663510212875
0.358940977298035
0.35368863819651
0.355011277370519
0.350860621578729
0.354182602816485
0.3499633639755
0.359639369119586
0.354500444140263
0.35310971345464
0.351474015628711
0.351653579753583
0.3449941932774
0.354868231550566
0.344792921836767
0.348285674359329
0.345294668292584
0.347739794004266
0.346516410421004
0.347506157256674
0.34361503879417
0.341293670443286
0.334755537021963
0.338686881540526
0.340988209711025
0.339559923911056
0.337514900961189
0.338911740836528
0.332137291558026
0.341018285142596
0.33261497083075
0.33362991960553
0.332094522702978
0.339920662317166
0.331376058520816
0.323521390579994
0.331188024251459
0.334832803234775
0.328777643372369
0.328164480082265
0.324449821888744
0.332950617293465
0.324537142045295
0.334634047475391
0.324006065258276
0.325897873477962
0.324357188170754
0.326947798714008
0.323437613040234
0.325922945236961
0.319410809045022
0.323625027772101
0.321286102386071
0.319492615977731
0.320676345054681
0.318911910442075
0.314676366815785
0.320979217126242
0.315813685329265
0.314158582339476
0.313880231113539
0.311335695979348
0.310240181881218
0.313488278368883
0.305663713054366
0.312421836585266
0.304220440772259
0.308121184637059
0.307095166467313
0.306080038615706
0.301623530741794
0.303646010151019
0.295311479578356
0.299879435061024
0.299912062241139
0.304615375408045
0.29841215911132
0.300372435472082
0.292629948005467
0.296684799504586
0.289553399616311
0.294703606821251
0.285757668223727
0.293931148454215
0.288190685712817
0.288756719447146
0.2860640878637
0.288975637625659
0.283263079636345
0.285325757306596
0.281153088986116
0.284592962987174
0.281338120200476
0.288368385330712
0.280603425073337
0.283567247273168
0.282509046860465
0.28158791980801
0.276565775194559
0.279059511000776
0.274681961626706
0.277697902541494
0.276254128389573
0.279062077633484
0.271573847869564
0.274210827625026
0.274201120573066
0.274930051911838
0.275791098091894
0.275686755138265
0.271227459440281
0.276767991992262
0.270201902013463
0.266505349707733
0.268715057749392
0.270549691807318
0.268098341385477
0.269542670326702
0.267115307118727
0.270855597096442
0.267835047961247
0.268154482778022
0.267313968568943
0.269855106670809
0.267205562734997
0.268071139057328
0.263236948364512
0.270077431404876
0.262533270472813
0.267458142688416
0.263924741801987
0.261362163969794
0.258398405634589
0.263118778761873
0.257977010142216
0.260791297490138
0.254424462119282
0.260226397753346
0.256834585107078
0.260123067677043
0.253768427154394
0.261685189684148
0.256181354451883
0.256371076369878
0.253530204600099
0.257321486352331
0.254364197550626
0.254703938895789
0.25133174968958
0.256190048399062
0.251698586019691
0.253816784018946
0.250022407221892
0.256405562274291
0.250244989997255
0.253202065524564
0.252331191863148
0.247109646150313
0.255005727873289
0.253182328365037
0.249110938588545
0.255828099915419
0.248998595083478
0.254582548867617
0.250229965763658
0.25258584189467
0.250792320150291
0.249311300049091
0.246528382752022
0.250863803604539
0.249179206243582
0.253141869569183
0.247852063687868
0.248524685242576
0.247566273284774
0.250669128066389
0.242195427154139
0.25219343488186
0.244624417894075
0.246406233843098
0.245802910585352
0.249328445524452
0.248186215828115
0.248981531029396
0.243827912830531
0.241128302652943
0.244128705779274
0.242939400862373
0.241580626200461
0.243525357755945
0.239963430480666
0.244303707938022
0.239439192490844
0.24255082981835
0.238519358806824
0.239572449661439
0.23975946048838
0.242643078038954
0.238056511509616
0.23774623576346
0.233983519064188
0.23613167979963
0.23555270122726
0.237409014950997
0.234118052314463
0.234409188220839
0.231927899760914
0.238797184899882
0.232789031798367
0.234283227879166
0.229398376787592
0.2373038325831
0.230187983816824
0.236129294932203
0.231033226633871
0.232459871377892
0.231344983873025
0.233620131171261
0.228478648686031
0.231215782722196
0.229354044425367
0.235933851445019
0.23154115479667
0.230946283688262
0.229584569978174
0.231261569106915
0.228733377527136
0.230856590632183
0.231261467327639
0.231057984284708
0.230150405134718
0.233647305798136
0.225384913625363
0.229221351926305
0.227949674725873
0.229923225392579
0.230181255489896
0.228449552665591
0.226893251162279
0.229392113770786
0.226044621796856
0.228840501127074
0.229957211523127
0.229271669187758
0.224774504080218
0.223614733097906
0.223681997696723
0.226599924038581
0.222686575748798
0.223284482378113
0.220957497704975
0.222127244940374
0.222164792270136
0.219315917693237
0.218935392946941
0.220327586022027
0.217304171255412
0.218481808714528
0.217689027061593
0.217359450889954
0.214598392533455
0.21775953457929
0.220209800679346
0.213903942477927
0.216259007925038
0.212385948988081
0.215930665930441
0.213165881334149
0.212517384305275
0.21285086511725
0.212642586203704
0.21045453042878
0.207175460668112
0.209320714301745
0.210547753415223
0.210713583924509
0.209722979791963
0.213641220301033
0.211431373286249
0.211638572109012
0.208488752862239
0.209712462386315
0.209462701607997
0.208986530369472
0.20770416284394
0.208150103154674
0.205839894008209
0.209830150450674
0.20429796874199
0.203832840026947
0.201571923834382
0.204809493432078
0.201482541138528
0.204536974577375
0.200923987951295
0.203392616996791
0.201840942721202
0.201045669249056
0.200489683180354
0.202533893820217
0.200393475332994
0.200060922812781
0.195645097685445
0.199339305759125
0.199056749047027
0.199699923585627
0.196726230283852
0.194169408704152
0.192437403891392
0.197852619169278
0.1943624454541
0.195981966126479
0.195403038567108
0.191181020227485
0.191553359173039
0.193779661413882
0.188807570258232
0.191688565858862
0.1917689716336
0.193007600409951
0.191632052563382
0.189346224702033
0.188837949876787
0.187531884408949
0.185935692925635
0.189122509818094
0.1882776790096
0.185223432886411
0.188277706114779
0.184394285339044
0.186045450658884
0.184449909811248
0.184521892970683
0.183838054434707
0.181325923309966
0.182660445475497
0.182345562855496
0.183004682690037
0.184219252833766
0.18356342989952
0.181617570456034
0.184848691556286
0.186259922352224
0.179018164241967
0.182080046048664
0.182731831606583
0.181646111276229
0.182315284610533
0.182449973763786
0.181814852460131
0.182989292648778
0.182801196512788
0.181092941551073
0.183567338216078
0.183476639597492
0.183140406990077
0.181059025876518
0.18052789889453
0.182771825846643
0.187488901123236
0.185934067174806
0.183897167339857
0.183027051099113
0.181431145740768
0.18146111165569
0.166552943748226
0.167327379621535
0.168067062311728
0.172273505580268
0.173026430495795
0.177911881066795
0.161073833186571
0.158654084930002
0.171428195651644
0.171316294032687
0.157673269264447
0.167988125348446
0.165715686720084
0.16011646234978
0.165923460681182
0.161168403533521
0.1654936263255
0.166940415452678
0.165084540130378
0.172666706285925
0.163914859946089
0.17462519683031
0.16964401522473
0.171137905673295
0.162286964244777
0.174482493830342
0.161102551892895
0.173770597247276
0.157583614253964
0.169366009732858
0.162528108376265
0.173192427342106
0.152325644448314
0.174084568041134
0.152613379692713
0.180512683856494
0.148170688795119
0.173740352370317
0.144353463942325
0.175171470770756
0.14227887464642
0.179188873599955
0.15135875042517
0.192652668558331
0.144466935754974
0.180450617873736
0.13726261760983
0.1863311121871
0.149823141544441
0.190622542369308
0.13958259482649
0.18778926620343
0.156544017491388
0.187404629907951
0.149395842562294
0.175485813857598
0.171644109367997
0.163469657895093
0.172895116538066
0.162353331826746
0.183377656467236
0.15190570759391
0.189995453043946
0.151780572670222
0.183055516963719
0.154366441022198
0.182718310036502
0.158202606913896
0.174066621503132
0.164177733018635
0.166707886048512
0.165368984149795
0.167964440650532
0.164289482454301
0.167434626524243
0.16613599019619
0.167205541964464
0.159276757155003
0.169900588223195
0.160223217707385
0.168494879585171
0.160734120119329
0.166897474404196
0.162192129678525
0.167652215869581
0.159238826548129
0.161750404029547
0.159560860763929
0.162675096414244
0.158694153638837
0.164628536740751
0.162528337256868
0.168527107995427
0.159369647918298
0.163032072408309
0.160416098823302
0.164842856876732
0.158135364368741
0.164524986186909
0.160974668179746
0.166618827633695
0.162988722794509
0.166734823158792
0.161382230696329
0.164031612043442
0.157493110796124
0.165313869366696
0.159979252422428
0.164890427961104
0.16106676461719
0.165844572561512
0.16472345657348
0.166838210470783
0.161909457787116
0.164450340958977
0.161915151321159
0.164550350039973
0.163095482846122
0.165921874325999
0.161626526373703
0.164574138392687
0.165601737721845
0.167220669508119
0.162951380812779
0.164809195245424
0.162008360677608
0.165729737192517
0.157936915891391
0.165487533306985
0.162703157091131
0.16508322874786
0.161728697558619
0.165168692943259
0.162579498312463
0.166392059020662
0.163569598148551
0.163661213976513
0.161645502176732
0.163159969815149
0.162436690967833
0.165480310198472
0.160170073251195
0.164979365211564
0.161479506766934
0.165706341335123
0.161897200532622
0.164883825534737
0.163813744546501
0.166502744290074
0.160160150422473
0.166743712432256
0.165059387045073
0.162931718320064
0.162769753832671
0.164106577429182
0.161325292839815
0.166148420207043
0.162624657888354
0.164354541981836
0.162293172433321
0.165111574295011
0.163219499170182
0.165629559308998
0.164165771255314
0.165445081702421
0.166254031513228
0.169090516595093
0.163548379903017
0.167767351776428
0.164900855697591
0.165782254246793
0.163795189691258
0.167221054393615
0.167077522426474
0.169896046131865
0.166712527198503
0.168382354150758
0.165232079757496
0.170363861718213
0.168515670949332
0.169480725893595
0.167109862929465
0.169604053230352
0.169466887610598
0.17294830118412
0.169144203157297
0.170922880122293
0.166789860564907
0.170934407239274
0.168733924632672
0.169277692137099
0.165015946682076
0.170715719894093
0.169149021000667
0.170320611121462
0.167189963200466
0.170714487448859
0.166468172566047
0.169351802520006
0.172002396155521
0.172143099963473
0.168913999211695
0.171926076628109
0.168721982216698
0.173827035888267
0.170319143606461
0.173150352628715
0.171382071165253
0.172176682215172
0.17085579289519
0.175144798922647
0.172923674425928
0.172946396536336
0.171480584398357
0.171157291840399
0.170158950237097
0.174323243893394
0.174294178173611
0.174022759285074
0.176539924550633
0.177099692590501
0.174158653573893
0.173438666327103
0.176028255103572
0.175828030475048
0.175500968316109
0.176281074975833
0.173748666819909
0.177943102271863
0.175386425979143
0.178524023839301
0.176304522689495
0.175982229085439
0.174183734658954
0.176289591167731
0.175428982983863
0.177579246151531
0.176270945349973
0.178359655807545
0.174679955729974
0.176293260664331
0.178197898627458
0.175912938134385
0.176288656707611
0.177199862747038
0.175811376454214
0.179864921862228
0.177849642325481
0.176338471038988
0.175085290353272
0.174999311451388
0.174982511349766
0.177164748316136
0.174044943723049
0.173648231356637
0.172487039064398
0.175075793805444
0.171558341809173
0.172314676258067
0.171889613101948
0.172526268226767
0.173569907837645
0.172416628759197
0.171247316090442
0.17332012971759
0.170166834237007
0.171261450661588
0.171423859953571
0.171570618999237
0.170264448415188
0.175303124398809
0.172812840672328
0.173215241019758
0.169714203730821
0.173079133985728
0.171585269852117
0.17159962842717
0.170784449070862
0.169290402397033
0.169953751694523
0.170761502408427
0.172096171818705
0.171572880579338
0.168333332781973
0.169736377361345
0.168570350815909
0.171749053559827
0.170448346015145
0.168627717375315
0.170096441384907
0.172282036607165
0.170008410919969
0.168202443275332
0.167406699737075
0.170573903772648
0.169933363642835
0.172027545951702
0.169735665139907
0.170173369861706
0.166683718978577
0.166470982207234
0.171005052051648
0.169258916461383
0.167620262266575
0.170781810531878
0.16854088337729
0.169354372032273
0.165434174725456
0.166535724549179
0.169178894450035
0.16591402831284
0.166174642899526
0.168044718252857
0.169522482045899
0.167666252577043
0.165728641614038
0.166643909285076
0.165908032214056
0.167695702253274
0.166658641238493
0.169711487023313
0.166714529556986
0.16505738895537
0.16798989770102
0.166302604980491
0.163676913846831
0.16510657694329
0.164861901056308
0.167835874429895
0.166182998827158
0.164359441698682
0.166021760651733
0.163744075462046
0.164815497257053
0.165773455436776
0.164716518311605
0.163534887314864
0.162708643050795
0.163585774736546
0.165683890548163
0.163966402762878
0.165082505159575
0.163891283320279
0.16287756432803
0.164828202568314
0.164276479083959
0.161285873322938
0.161420112955996
0.164873828579861
0.164349082196311
0.163164340087234
0.161189958930619
0.163540708213861
0.163952101496625
0.163477147778991
0.163172926710755
0.161568117254218
0.156899575801294
0.159085918182127
0.159869145351016
0.160436996919525
0.160118285250431
0.158499599712678
0.157470499155724
0.157979885086357
0.158011588428426
0.154846161644986
0.152353727610257
0.155065280204895
0.156088210203022
0.153357362157454
0.151613688942271
0.155360401727631
0.151702691580453
0.152232765705553
0.151065007087376
0.150910882435916
0.151567732552779
0.151901233873506
0.151239326092075
0.155051055914958
0.148742705095814
0.147762622195895
0.15019609864721
0.14680909360863
0.14662594517805
0.147761483264071
0.146269140178347
0.144885808337828
0.145775768382683
0.1443469270862
0.143978254056626
0.145474164665004
0.143768290700049
0.144212982703966
0.143103416135308
0.142296140286355
0.142406663393895
0.143485803157968
0.140925832297572
0.140546493779875
0.140096752404788
0.140777573184325
0.139586008594623
0.140503710555749
0.140265996306367
0.148336115529891
0.154417218054242
0.142340004461052
0.138849269747951
0.143245892355228
0.141643859937216
0.138555359096012
0.139050661670889
0.139331371335661
0.139438379742942
0.139769307692477
0.138446264178931
0.138984472641482
0.137899538536323
0.137735733431883
0.138491369296245
0.136158529225814
0.134718509744101
0.138348505411867
0.137328756353707
0.135144044669374
0.135638408165526
0.137936754563101
0.135382189669913
0.136626534276857
0.136162534398833
0.139216744709647
0.146404231206152
0.142145145700262
0.139090547047635
0.135810038469298
0.135784676967763
0.135891501225634
0.135529748353463
0.13646754693349
0.133912323105691
0.133576220899449
0.132532506200279
0.13288860780847
0.133375470951423
0.133741566574528
0.131215893817895
0.132528289646019
0.132506469091248
0.131738677986818
0.133286690107877
0.131667957857037
0.130976715231601
0.130149183634529
0.132983978751792
0.137384252618079
0.134441605321227
0.128540444824402
0.141915110841657
0.151408904302087
0.137056106269472
0.131128002027547
0.132928221980669
0.132128035799576
0.130721130167376
0.129523091877853
0.132850846523651
0.129624820639753
0.13116108636592
0.130404788396822
0.131401470448647
0.131528487388388
0.129731446218323
0.12934360490582
0.131038289199381
0.12855575352494
0.128647041961404
0.13156386915677
0.130165170485964
0.136803606563253
0.147257882987296
0.135078036611809
0.132209409420013
0.127665311026223
0.132286310379411
0.153113828351303
0.141332151953031
0.127778481750791
0.130208691719244
0.128606750821122
0.12871541846524
0.128710254708212
0.128386147523355
0.134092572026047
0.13528884051683
0.128486551847173
0.131304193718755
0.129795506414287
0.125964932419675
0.12713173237562
0.125138692187808
0.124176717077032
0.125840748448134
0.124609735311616
0.125144544127898
0.123834661321527
0.123818232050051
0.124919502281566
0.123136017302235
0.133536128925548
0.133763824461982
0.123513202235176
0.125314547647411
0.125207543979682
0.122945871900022
0.136341687434863
0.13897479518293
0.127193153412576
0.124998267457009
0.125889580141106
0.124078578153923
0.12328630229216
0.122603614143982
0.121989468856886
0.123199471445482
0.123609275915629
0.125473586094869
0.124045451140737
0.122529453826311
0.123007123077562
0.126195007043981
0.120904208883736
0.123166672107003
0.125456619327651
0.124527737859738
0.122354553743918
0.12688532080665
0.148753816390194
0.151674099777421
0.140952967574684
0.136907324757271
0.128996787126708
0.123255466322839
0.1230975809197
0.122173640068994
0.123699933171188
0.122277290199694
0.124385497226709
0.124593816733855
0.12610623525146
0.121426847283047
0.120301483033828
0.118416612626977
0.120855377490852
0.119428341615524
0.123512080701844
0.120584702049845
0.122547855415037
0.118681699204317
0.123481949640109
0.128129326943788
0.13189623258152
0.119651695371511
0.12568068754944
0.1566455439499
0.144597686398318
0.131818539420731
0.123237555729303
0.120649922815542
0.117275469866954
0.119431212336337
0.123491911533037
0.126676637974439
0.118571426539232
0.120710725754556
0.121043397551488
0.123767025653499
0.119134060299597
0.119965984629792
0.146671124288609
0.157749890924188
0.133618149885218
0.126032797136511
0.117635429041324
0.142149110859003
0.149468224778043
0.128060837855779
0.121054129655029
0.12555252012823
0.118139565103211
0.12080581682042
0.118763766356158
0.122490924356087
0.131113125173404
0.125223931667655
0.121616845977855
0.118641946129197
0.120154160518258
0.124015075471881
0.127186947840825
0.134115920703439
0.129442276351443
0.124969550085723
0.127309093420985
0.127137123299951
0.121458447851423
0.124574757409121
0.123145697577332
0.125729375295286
0.14171057808349
0.137407851217131
0.134570411327604
0.143558895805381
0.134334824078223
0.122085724648515
0.125454251789861
0.139659149109065
0.132850723507612
0.121191865103718
0.151796151777057
0.150813231754104
0.16224562122124
0.139462708804083
0.134644888787301
0.122031442331139
0.130525235219441
0.117290917327502
0.134888984596095
0.141888104510244
0.135654712941938
0.125319460081338
0.124203832735531
0.138167643804894
0.142266308512255
0.135892209311824
0.130706300352057
0.129019132217137
0.132565530280974
0.150573611612336
0.130505272993878
0.141940494949571
0.161238231405356
0.167210838900444
0.15955784781457
0.134988201093669
0.14746965700733
0.158658094509229
0.146980389363231
0.134814455741297
0.132571781803831
0.134135384617016
0.126574221310017
0.153963146070293
0.166707474677856
0.143130397787087
0.140809687492702
0.134422369751739
0.146306739119131
0.16572319140534
0.151981418675008
0.134743029662027
0.141139469681774
0.137825121515604
0.147611225266248
0.188787178420307
0.162121343089379
0.170929342645812
0.169254970146261
0.174019641229931
0.15544567398345
0.16197134593688
0.149242051575339
0.174078645450164
0.17203320368799
0.157339243069309
0.144976777460647
0.183851435407511
0.16750105237042
0.165394666786891
0.153914919810841
0.153647761063506
0.159199325313173
0.219094041711714
0.224075383890531
0.19667222765074
0.159606197962888
0.177051973125472
0.188041850601143
0.17397303558515
0.160445291679773
0.162508937219933
0.163626943337643
0.164960176950335
0.170277424417704
0.180603937165357
0.169158008147502
0.177926357681265
0.165352222394304
0.18740637817699
0.210947016252309
0.271455297359584
0.210120367517419
0.217713687505967
0.217235331653313
0.218689859981428
0.199163720488243
0.190087368061405
0.192032593302671
0.204307335619437
0.203449269369413
0.197649118576347
0.204019492676502
0.233754136687586
0.21930108704249
0.25348331394059
0.22471311561373
0.23429893345896
0.214057625899974
0.299094282437653
0.331951345971078
0.272620959329227
0.250679672534006
0.253194077799783
0.300215271859928
0.307573169021352
0.272000094839826
0.254673210919867
0.261582194213238
0.262185248069267
0.276922543512422
0.286921383319275
0.293819440547302
0.306221891492338
0.294554205297686
0.302110917504231
0.336344289343315
0.410870888907939
0.40508083269088
0.340650583712233
0.340501179456558
0.364087823732488
0.365402409950388
0.348279847025411
0.359010037539444
0.349048975987311
0.414294916782297
0.407886605060092
0.400763998629456
0.370026933466261
0.417026640066716
0.415215997512544
0.427052007739113
0.468498612474711
0.451393677128608
0.444400152551018
0.427586603169585
0.442378142861114
0.430974638963281
0.461796231109839
0.48068902021053
0.495562044825295
0.479789199208436
0.479461940054803
0.483277813087772
0.489186537747174
0.498300292834735
0.496318855366704
0.527491790219476
0.557531161699512
0.588889976273636
0.698409645364561
0.558399883004028
0.542088911144051
0.514519500899006
0.560857381557463
0.563311749372905
0.577954858327835
0.59614541871273
0.568351029579621
0.537755765199036
0.533194230997088
0.547288161577395
0.535631387034996
0.554564402656152
0.537668225533543
0.546388698239223
0.577258567633686
0.54571395560172
0.645650069679528
0.594351571598574
0.558762424289974
0.519769893289038
0.5403897507434
0.515149802708914
0.538356967812177
0.499340623435554
0.546203625983101
0.532669489361678
0.519144159070433
0.48923746535518
0.50740153918069
0.535343604785761
0.525287325513106
0.485994944507957
0.483108823969499
0.47874812894939
0.481310146528884
0.454223402622998
0.515204707853138
0.49296313354389
0.474569488976466
0.437323728562603
0.443850842134582
0.432389908694337
0.437658108096434
0.435197314000854
0.451404969038124
0.425713556328733
0.432148932658882
0.419462170811026
0.417965983761289
0.403752615370487
0.414022963073909
0.409139021547797
0.406010104640622
0.400957126423964
0.404828375214559
0.391512132476221
0.391785182592782
0.388711226902415
0.391569281473739
0.384439817342565
0.398531446710772
0.391952068954396
0.384175238725574
0.383451622762056
0.383797663652283
0.382444187825135
0.379233585048789
0.37799708436493
0.370509513599095
0.373615518071746
0.373025045562309
0.365754845294831
0.370946523477711
0.369660881971518
0.367075692339844
0.369909961779278
0.364726202632006
0.367549357977847
0.360191257430269
0.378681249095839
0.442357847983165
0.371014042863524
0.375500184995655
0.34407285577197
0.368788875569918
0.33857773062668
0.365243190118968
0.39652066126906
0.376043165187147
0.352934492408004
0.343303771224953
0.332051287552418
0.369084100645683
0.34210933005976
0.349789883224352
0.329398869874303
0.33538697947789
0.402783466244383
0.401945954756529
0.493371097970359
0.405823128841408
0.363328961765157
0.316517417131325
0.385294676399143
0.346158556482958
0.334887788954285
0.312567809778671
0.321518567092998
0.362912324791501
0.328191869230817
0.328038227639994
0.301794542091126
0.310808501691476
0.359936269906383
0.349728153416402
0.326056070600009
0.371919882611989
0.346448031198069
0.352604523793259
0.381454540803224
0.406667650596416
0.329976872217669
0.305306235149318
0.304740390328471
0.29898778511402
0.339055624549173
0.35170716640202
0.312512022338257
0.31999575191369
0.283677802857702
0.298186893503006
0.291778899824964
0.336903917510232
0.290075279410342
0.338091796921211
0.314577174861198
0.30034428925191
0.31311618857843
0.326673582068334
0.367470901830574
0.355379713078679
0.302394282824322
0.28203771638435
0.363859535044973
0.326854496067136
0.318950665555988
0.305050380191523
0.278206839784631
0.314531225152804
0.307737956447362
0.29416007162537
0.322638324133274
0.316332186401241
0.349283726447176
0.356873042917721
0.390428216366767
0.362400069799833
0.301152216250677
0.290618769049656
0.286942784891698
0.303453027094058
0.285923619810221
0.291800580360205
0.350082134754181
0.296317908395219
0.326330000822548
0.336835696631585
0.317955914114313
0.308345060538946
0.307147036999871
0.304785476452733
0.324640565042697
0.358744286675811
0.383893622442312
0.336611612121797
0.360061078965353
0.349668212852955
0.349689222689069
0.336084456816299
0.354224522486466
0.344379557296683
0.359619323101642
0.376203795039593
0.375645996744387
0.378273971004897
0.389065608848946
0.381871114448113
0.458346660076874
0.427223111848139
0.432421832698467
0.460156750443236
0.476504419907013
0.52223352689766
0.473440113106884
0.482362221428254
0.472611763687337
0.48994513706507
0.496278192111498
0.495051144639989
0.544151741502215
0.553596588308159
0.536253741957683
0.544821999134695
0.545467594677029
0.548852818675545
0.571083345814907
0.618915851464826
0.589156939272453
0.71533841361357
0.625154038652152
0.633630792206733
0.586553394331614
0.59952854171974
0.603112418331836
0.604692987715586
0.594869253768552
0.593112721623443
0.61048238293046
0.638503109952783
0.608879469537273
0.610959299345173
0.602131078833348
0.620412403208113
0.610927117419872
0.613672667317442
0.615220349697487
0.629796571583705
0.631860786497697
0.615070700816022
0.658819917374827
0.744506437876944
0.658907566263414
0.662322816233953
0.645181506050803
0.671142425161218
0.644446290465035
0.674755981425107
0.683744642665625
0.68733937590783
0.673239890142444
0.691505952394205
0.692678604668657
0.675948245916851
0.716948811872101
0.737401006450322
0.692237210300603
0.714803071853315
0.678311033516068
0.796538064161577
0.737004250062431
0.74927679600145
0.727293424246188
0.740339913158944
0.723662944671788
0.722929933311168
0.723806302168817
0.732589797432099
0.729784834737801
0.735538716432307
0.722824585756106
0.726606906842953
0.720641884365751
0.725456238379587
0.729763677043947
0.754021527970838
0.718405047001612
0.720315384587069
0.713983851611423
0.707599065454278
0.707012912720798
0.763605284206646
0.719772957444639
0.71758849662144
0.704170710868795
0.736467073269756
0.738179778897306
0.723041756527007
0.689083881901407
0.693540549189251
0.691887237918811
0.709922166417309
0.687233038689448
0.727848907285871
0.737620144270266
0.728976296925072
0.704884227252853
0.715998854888159
0.720812726156046
0.734528575286773
0.727105037467546
0.742184008922139
0.738172538382926
0.753525848684763
0.748573560848834
0.76418809538857
0.756453154359037
0.780627103161292
0.8026245662281
0.797942610128022
0.780772041461409
0.784818090863354
0.78066562906112
0.793743151743134
0.79566682914728
0.802226759779864
0.786608046465751
0.799507094591733
0.771205261592353
0.80357365412926
0.820642071108588
0.795936816306465
0.794909145645535
0.782248000201186
0.775695946405065
0.778925529112997
0.778748545926761
0.765761535101192
0.77367244145394
0.780506258284065
0.770395660937869
0.768109799759261
0.753615926926595
0.761496858356874
0.758714879941574
0.757519671828578
0.746597062309557
0.755623834962425
0.763080585812485
0.756374467043324
0.745880314699925
0.753803085864438
0.739273754301539
0.7443914841043
0.755510748311507
0.775905743228901
0.772373753651802
0.756701055177481
0.755445229524857
0.754095111685467
0.746872556591815
0.740613121684629
0.739836362427343
0.738848323037726
0.744495579771192
0.744865534485585
0.735501360612592
0.736798115095205
0.722041497515663
0.722779120228686
0.720415591542377
0.718151806591767
0.713465304727452
0.708691795914774
0.707153884502718
0.707713853558925
0.690580663329678
0.709478350482036
0.684728428125342
0.695010210464992
0.680354621307154
0.681204828807787
0.67014684087966
0.677419881978349
0.674935515584441
0.674702598059975
0.65960533204119
0.661706379909998
0.665508899199606
0.667753949769411
0.664954823186665
0.658292913111402
0.655994108887538
0.661773588685696
0.651930505189582
0.661709684210585
0.651907766086034
0.649667822151784
0.646785848643986
0.642328127217766
0.637897244293443
0.640029550709143
0.631789258686097
0.624593610186573
0.615436448368616
0.621138540021685
0.603886281340231
0.607130475163246
0.603485740509345
0.596411377888846
0.591755796367866
0.597405511112038
0.589909242753852
0.585068979841335
0.585820787439271
0.583969850132898
0.577222602287054
0.57986732863483
0.57796664330098
0.576693618723096
0.574873360402898
0.573048040329912
0.575250775190396
0.581534147109421
0.570676694650253
0.575966438135475
0.58150606320747
0.57593130255407
0.58273199830988
0.582259542374894
0.57909102244226
0.581151219422726
0.57743641322187
0.588648239294857
0.580588553621915
0.590363337335031
0.585352030477864
0.586518818426667
0.588356431989581
0.592466374667608
0.595121348460291
0.591197204307046
0.592441218483804
0.594961635893999
0.586379308242306
0.593859027995561
0.589902681347532
0.595851983566457
0.592622750278074
0.592594272762251
0.594700759267939
0.59227543373174
0.590308288881367
0.591314376056821
0.591866058948106
0.591079741466953
0.587216945674385
0.58986504994525
0.59057101322038
0.585687552374121
0.575992241398471
0.579241956462569
0.581440760384087
0.57994111544089
0.574508647075982
0.576142225489369
0.573610006269309
0.574345011766383
0.57123715938461
0.571436624427158
0.563111266202107
0.565043638080811
0.556042064331596
0.555893107569242
0.554789224417988
0.545427719198679
0.54195233629558
0.540730824002317
0.534532516152515
0.530398643646755
0.52337389864056
0.516713798940662
0.516173229005829
0.510119658080863
0.507118538327155
0.502985620099616
0.498412727062072
0.494691859234939
0.491526361853275
0.494221948601279
0.488695290761801
0.491917247749359
0.488468908610133
0.486299572940017
0.486738227815068
0.488699123760149
0.48821458570227
0.490054564786299
0.488420534926768
0.49263784710195
0.493027942486969
0.490227843726249
0.48476793773097
0.487514909392019
0.486614423207044
0.483502044461098
0.476540893589266
0.472904338546143
0.464053841666794
0.464430062051917
0.456915639657079
0.451495017751667
0.441252200003422
0.433528499700762
0.427565408817435
0.419951530272586
0.411068556474541
0.405825307911034
0.401856974441234
0.398263870738002
0.394497389672212
0.393009140063448
0.386030659002438
0.391279098770134
0.393893199157123
0.395495146926734
0.400463660677988
0.406672984949531
0.411177526253042
0.422394167963807
0.430097728537382
0.443456308702895
0.458931577390677
0.470093275572742
0.488017491941257
0.508043461546013
0.530827637583244
0.551466227210555
0.569892933179034
0.599319303921452
0.631561849401785
0.65885230154173
0.690675375020611
0.728221993635496
0.761872499114361
0.809299535526101
0.841431930368049
0.881533000331806
0.922597928049395
0.961393500374942
0.996165436423711
1.03477128619709
1.08437589264053
1.11640868628215
1.12793631294667
1.16485685858431
1.19051113295219
1.21664259215804
1.22709248177405
1.23125147254022
1.23621498264969
1.23639344200363
1.24805385512002
1.24998504080315
1.23359660245512
1.22223124960609
1.22509811953756
1.22865942129993
1.18774156100571
1.16284697238775
1.15730390893293
1.11817757206471
1.1219149712715
1.11569771579376
1.09118748780188
1.07841047950785
1.07689105888417
1.0701177508611
1.06879739959666
1.06630342424323
1.0568773113753
1.07722626299843
1.08346508711289
1.08389790714151
1.09400454418211
1.11558364414207
1.10626841315512
1.12687236223005
1.13432216480555
1.14284214778467
1.14794102454196
1.16507666130899
1.16974551897338
1.16611967258492
1.16936316205694
1.18881632736831
1.2068127655975
1.21398544820138
1.2017087737832
1.21070458689811
1.23277038606505
1.22453695114566
1.23367724936879
1.23326707131626
1.24256725505249
1.23847545498829
1.25406079697761
1.26480070302494
1.27679410236055
1.27938442786583
1.27400589748947
1.29022930173862
1.29206216982402
1.28824865181515
1.2927867703726
1.27919392115552
1.29530948935563
1.28008682978355
1.28570793099929
1.30409450687347
1.2932918918123
1.31431153755195
1.32396015888527
1.351261572183
1.37067694018609
1.38698643550872
1.41317233261168
1.45070496617061
1.48010335612587
1.54677798831186
1.54773613118063
1.62856552831222
1.6615503321141
1.64878978018417
1.77085355981552
1.80759695543394
1.73905155686677
1.80498885715867
1.78381071781469
1.94716402629534
1.89628349990807
1.84235340485164
1.80209728034895
1.77382580136676
1.76758284524855
1.82765402671058
1.81721312421607
1.70485458921551
1.75270830060179
1.7774939420757
1.69038089365641
1.64044971665061
1.68687533481332
1.77448611971179
1.74694947110821
1.71769392630615
1.7682176618297
1.75875496632056
1.75063793790312
1.79730523174655
1.74079048213033
1.89298345598609
1.91331793406757
1.89050970140114
1.96051342457195
2.0173756387233
1.94203682134506
1.97903447503111
2.15303445709439
2.10548694496156
2.27711838807576
2.05719706991129
2.2954362554496
2.46005051654483
2.37945607653508
2.37725047069188
2.23562276658186
2.23024110993438
2.1614066001624
2.51316905707889
2.22119030681602
2.57751578434419
2.84104566485175
2.29507667173367
2.40347897838749
2.87219888816771
2.8975163147225
3.18608682774447
2.41155115197644
2.26954677757174
2.97354872139905
2.39848264680954
2.71904467571579
2.67698967364227
2.79959726334283
2.53174051124452
2.30549447375303
2.88316448565469
5
5
5
3.15398762902964
2.71273551264353
2.5459618378642
4.0723530441483
5
2.26991559208455
2.76323946810983
2.39664792136983
2.4693626623456
2.79243125236705
2.40608399718922
2.63888618658732
3.49642939903956
2.30955449672284
2.39538889421304
2.5076329087363
2.3610503015968
2.9655954744624
2.22650670387471
2.40207336725395
2.47011947966275
5
2.45654729950898
2.85246926447776
3.20173834507557
2.43485271527083
2.61963669860351
2.57798774894344
2.21156058008089
3.46472828503371
2.57393387210653
2.6260498310418
2.39280185297487
2.22019544640888
1.9777042072644
2.1272943076276
1.92912484173849
2.03071413205659
1.92388653484348
1.92056483143746
1.81170317737719
1.77738643212661
1.70411713816063
1.70966829628471
1.57991935064858
1.61846717396904
1.55680299523784
1.60055569161805
1.43519995186954
1.39560694244594
1.3753859987737
1.42327946052694
1.33496750401474
1.38819290777283
1.28462124265968
1.27304517859493
1.21278266242353
1.17031031535554
1.12727722979018
1.12156145889334
1.07461881670724
1.04275276469868
1.03348282259851
1.01742823580443
0.996186626430534
0.973434337766671
0.956424005306985
0.937114286039072
0.902524004867028
0.902371955988632
0.878259491028129
0.878407254226077
0.884484489993513
0.892255011817118
0.885543110165526
0.895823156232951
0.881540974428454
0.899701122260395
0.891273546890238
0.924598774777295
0.916743975878853
0.949255635789221
0.94547556076424
0.970218137210253
0.960081822386364
0.960987169620578
0.976168632093742
0.986929627024164
0.987802599072469
1.00633148827963
1.0142516905225
0.99522865054313
0.98969183767815
1.01407636534042
0.997100245263309
1.04344266703911
1.01342741589158
1.02807465613852
1.04408240175909
1.02535486446012
1.01380242106246
1.0036983036445
0.994133287853082
1.00623948222864
0.97453334651244
0.989132461634008
0.971518946919786
0.988075204125849
0.971543885774477
0.969709279246966
0.951580955897929
0.928629571141092
0.936919997810878
0.925196761253112
0.8994948874021
0.906718438811967
0.899821122102287
0.891820611191309
0.885799769758481
0.879795156741972
0.878686433476823
0.884414347942824
0.866809108641142
0.874939578553976
0.862930318906729
0.887339405809153
0.866229994429287
0.906257167875484
0.89954411520763
0.908421920275924
0.909734477388446
0.913762103117257
0.890702402915153
0.928313878097959
0.915272081474117
0.901632840013398
0.896531743243572
0.88216953923369
0.860367610221913
0.836513593664736
0.843668189475308
0.840306109406941
0.828638377049032
0.799727327494975
0.807627660818278
0.81962348972013
0.788339629493278
0.797977010823046
0.797160599397598
0.822905908447485
0.817235149977688
0.817055090901847
0.811225765719538
0.839499996882234
0.836842838859178
0.853832774183246
0.823890254218934
0.821203069802922
0.829286737582998
0.85276879590212
0.839328538989091
0.87249732336448
0.872092421573671
0.902434779144928
0.882990015292227
0.90456897112408
0.907020158590617
0.88074337927199
0.899726222058169
0.919694011090705
0.92453188412662
0.927105643184333
0.907406263788561
0.926967313832397
0.908696604840873
0.945838824449139
0.932669532969596
0.936612922657798
0.916212322413279
0.919072223055323
0.910797919605808
0.949906345635181
0.911497280586962
0.937317590645687
0.962221966143852
0.934107539547389
0.904913157797301
0.951397597567231
0.902944966754773
0.935735789375568
0.915377831208194
0.90784324822111
0.906598874459546
0.930749232839081
0.889141461547189
0.869088690503701
0.883742919212881
0.897224747882585
0.877513999771202
0.841203078543317
0.835557748130477
0.86489392540454
0.82944450245058
0.814366784512047
0.827561186162643
0.828555955486873
0.830362304038833
0.839128154578177
0.790848128199188
0.843068633214971
0.818590346546586
0.842403368867989
0.794731723960313
0.808353718216114
0.810664236437624
0.817978862463828
0.816981758131092
0.870279573157189
0.863269792625578
0.857469818460078
0.831689402847228
0.877058364558433
0.854737885714652
0.859253987117339
0.866711961272143
0.907062004228676
0.843567594682854
0.865633615291348
0.903950659937468
0.873555054981615
0.899235606562561
0.910037324523554
0.881907221671852
0.926054603079984
0.88060598687848
0.929422180278252
0.99411601726697
0.976998017256422
0.92074210700528
0.965569295554564
0.98314819129842
1.01360927248127
1.00419187919301
1.09157055047985
1.08502720046434
1.0490437631627
0.995562258765123
1.02539929330311
1.08214123188446
1.1604966895025
1.13819234534431
1.19653857084579
1.1024142400151
1.12397733156266
1.1108874244578
1.17555618175736
1.19738914317099
1.17697847122505
1.14144306520958
1.17039588310589
1.09580042532975
1.14883595705361
1.09159723102405
1.13929953221115
1.18136883534319
1.25726318107932
1.20464823505701
1.22427236004236
1.1142216580285
1.30893055121803
1.20295517842356
1.19746118210053
1.21658825744124
1.27469840548536
1.26025003448372
1.54841628523103
1.21247991438451
1.28172086927141
1.43257806389385
1.30469422116091
1.22093704047606
1.28666022479747
1.23056610253039
1.25997418103382
1.22989267267564
1.19583925718599
1.16780243283207
1.25566310806649
1.19174795608541
1.25186624233429
1.14834929374562
1.23396393592161
1.18611973285402
1.22111280902171
1.24702437049166
1.25519374766896
1.1373084086327
1.15252978869416
1.24891805461848
1.17300919016989
1.13529562448766
1.26594688575505
1.22325560005749
1.23484419625921
1.11762844881235
1.24421966648676
1.1548557023645
1.18186801742965
1.09380745171549
1.34192810754453
1.37216513413721
1.11028649593723
1.18073327067116
1.22750093483001
1.2300942704117
1.19757328260064
1.22781807176115
1.49107427796899
1.11469347276392
1.18808760639822
1.29770252027129
1.32888648455344
1.4719144570638
1.82652170954133
1.46831084493743
1.28830404152076
1.16892826683787
1.51623899796363
2.12373323681868
1.4644023499007
1.27720760877887
1.56108254406626
1.3095824367251
3.84756953388362
1.72773731578835
1.99748539361569
1.42223542770442
1.41798601088743
2.33126596554821
1.50202257780032
1.2517083119142
1.73555594724978
1.96371480824709
3.14077630550432
1.27375070866478
1.41449274725905
1.83350972377337
1.31510707779227
1.1351398300654
1.51544265772574
1.61964619648345
1.30928875390817
1.24647468605076
1.38917613676077
1.13226278159904
1.25899597261964
1.28670724447737
1.28286035802819
1.56923076230863
1.70438525354024
1.3527801204576
1.70536606532762
1.69174608234202
5
1.76033621054264
1.05287256953517
1.27992553037197
5
1.27235627531402
5
5
1.50758365986653
0.966460192410901
1.37097734462965
5
5
1.6670522415619
1.07907264751334
1.49226723182844
1.29122498028702
0.969995351257158
5
1.10116668414189
1.20228612280178
0.993282717049139
1.03383070609394
1.57720615910518
5
1.17409847931155
1.43410839996402
5
1.90640510469012
5
3.01404114020607
1.16224452202412
