3596
4000.36533379555
650.420452594757
1
2
2
0.0856914513532972
0.0809326242336399
0.0959013860354819
0.0834274175395299
0.0809985428966534
0.0832094095725074
0.0854939966147196
0.0828872107049767
0.0852572373795671
0.0935209809899781
0.0888768610232145
0.0809837016247271
0.0805744840111567
0.0914017917028996
0.0851269330976138
0.0814284114694876
0.0803194164328131
0.0803319229911603
0.0825615006488688
0.0842540850259495
0.075087709823942
0.0878891930945315
0.0877602439309695
0.08180634963922
0.0833340785145036
0.0814946580222941
0.0768028718329063
0.0778055563818919
0.0806039354965127
0.0859065270320696
0.0817946379432887
0.0845968960867313
0.0892385706131266
0.0782270158540932
0.0832389323676131
0.0846692421946886
0.0765258785081676
0.080718476386897
0.0763072729745617
0.0880945437312899
0.0871181422699776
0.0846239139168969
0.0832502181975474
0.0777195902363129
0.0889354303900768
0.0877092219423711
0.0888224727827897
0.0841810745776738
0.0874629640301899
0.0805309879436492
0.0774994262194748
0.0888413942903198
0.0971699159419524
0.0963064259350395
0.0817205417013852
0.0972111694183495
0.0862600345623303
0.0807496301644245
0.0831364727143616
0.0891385094602837
0.099762873624244
0.104765009401777
0.0786357252285867
0.0902987442274106
0.0799802820638175
0.0899616743604164
0.0838696098460096
0.0841963071163442
0.0756229558134463
0.09247096804851
0.0823880106007175
0.109873884882619
0.0944571913575389
0.0777237175951934
0.0904774288019674
0.0916188926733737
0.0749108554504723
0.0769679702171062
0.076448496342797
0.0909507131346225
0.0872271899140405
0.0861444801223986
0.0746885016786843
0.0804053481742482
0.0800833072838718
0.0947796354719114
0.0732067952826721
0.0807065696230081
0.102035921722586
0.0870247427055214
0.0852176032925342
0.0784947593001313
0.0762800733067693
0.0821449904659085
0.0706225238154233
0.0825583058629816
0.0778583397202347
0.0820577820557987
0.0811950626173497
0.0846320088102239
0.0933966232048678
0.077095539674683
0.135060422445635
0.0731097910983746
0.141770152963523
0.101095861081409
0.0646859856145982
0.132088211661711
0.0867388538221105
0.0874425060354102
0.071069087040311
0.0892263129437452
0.0790473665146042
0.0808019767843172
0.0687431866967554
0.110150896312646
0.112969742814239
0.0865445402686928
0.0824903860796359
0.0825094048103127
0.0659748875736922
0.102175017022433
0.134143297868754
0.0789481843820661
0.0988744406282867
0.0797345150562849
0.070404355589775
0.113880251517936
0.116382809425997
0.0769518195709043
0.0788057408895552
0.072888892007455
0.0757173664372594
0.0666590086545262
0.130163383502227
0.0856976817026269
0.087140198656296
0.0739265775730252
0.104581742060154
0.132045751816131
0.0874503606291741
0.0784986912580355
0.0701907215700924
0.0773139819220726
0.122769998551493
0.0954273809030628
0.0729573895218466
0.0980022705189242
0.0960059572800706
0.0723750411322105
0.0770456836456223
0.0684605564749198
0.0982554189108744
0.0933396417656694
0.0483941740068844
0.10530777751068
0.182203062622205
0.0833481967308967
0.154586814559757
0.070672810884563
0.0971516981770629
0.0686465571280166
0.0778449343781803
0.0712095574409364
0.0852969254355627
0.0669792158443331
0.082139989170047
0.106126532896189
0.0804305864403142
0.091831250163553
0.105346462883834
0.0971739305655312
0.0724161009980432
0.148822837802938
0.107861834187299
0.0690253377748154
0.113387319441716
0.086843244671283
0.0708784443543879
0.0775349240137996
0.11771624006584
0.0693071522943345
0.0851704277339102
0.0685176123000446
0.0831937338994756
0.0954954281128662
0.0783592689856223
0.0717202284063724
0.0916722245534103
0.0617883908272845
0.107048164761864
0.133792961688173
0.120609459704052
0.0722023101788459
0.0864313554261308
0.0506805463075835
0.123105937465636
0.117857148899817
0.0822376764427694
0.0787118385040021
0.0685340845389756
0.0673673918277126
0.0667314827970899
0.063763369175422
0.0762024687264826
0.0505281820416863
0.116711257377617
0.0946546612480144
0.0808936779682082
0.0680562598024013
0.0886376420500386
0.0754590420091871
0.12475613521095
0.115291675503942
0.0722434486343375
0.0811560625944475
0.0674567338939859
0.0934089881106348
0.0972345719154994
0.0729364103732413
0.0794800560197357
0.0751088113613843
0.0787037661708514
0.0726420470409471
0.0706292594223698
0.077963474437001
0.0733824832116458
0.0744188057713826
0.078742018543067
0.075668964859542
0.0847484500448551
0.0795908183467704
0.0750762115993952
0.0753849991657824
0.0752685986650138
0.0853230512893357
0.113820885524919
0.0858508087811045
0.0824898006476391
0.0722839023434307
0.0817918253722843
0.0709482186505771
0.0784086505309546
0.0741619258696556
0.0840896175223678
0.0724138942105786
0.127532740449066
0.0806430985682131
0.0873051792065176
0.0685319469240714
0.0963288137512591
0.093664664583528
0.0798219316280355
0.0791949631534171
0.0728526578611524
0.0701092216229189
0.0815284333288148
0.113127455637425
0.0904689199197068
0.076403577906568
0.0999269705593252
0.09295204040191
0.0740837646487217
0.0850037864913783
0.0634281667498315
0.151821859751857
0.110621811241027
0.0803821118734669
0.153749348385299
0.104786655304771
0.0976058877692304
0.0887226809500408
0.0681457512996155
0.187005453601846
0.130197242676053
0.0908336342733585
0.0898321282626771
0.105905966109924
0.0842576747311931
0.0851653120168329
0.0969894422244912
0.088238172084656
0.126849241613196
0.126364702028965
0.159158885109498
0.0772271864644636
0.116765762753501
0.121524906832458
0.085299176330482
0.0805736909158895
0.0842129911290041
0.0834257102141417
0.10388997439251
0.110386688266482
0.101570014508224
0.101107348721184
0.08810767657542
0.124504979799957
0.0953678292447292
0.088732516135687
0.0871029622581909
0.0982402301935525
0.0770473109907935
0.0881328116781345
0.0864470601161855
0.0967041267164878
0.0851468332837469
0.0871288433148846
0.154206702807265
0.109150216450312
0.0952078069845651
0.131088898866818
0.096187028346743
0.0849232628667831
0.0860340901027788
0.095655330409991
0.0915957991495792
0.0874062042778116
0.08533884446945
0.122411343288373
0.0994000673031803
0.085008426633669
0.100039025474423
0.088868012988599
0.0954109210393814
0.0920745908049423
0.0874404132312584
0.0954059690598275
0.0959116043187131
0.0934731396223192
0.116903440373324
0.126876964296729
0.0948231230974119
0.141852631258639
0.14469795722834
0.0971673225929938
0.111315025611791
0.0964067915987399
0.105018321873848
0.0954179887723601
0.105256418422516
0.0988738825965846
0.114835106546445
0.123783921175269
0.125524118217302
0.105384545406972
0.123801556333763
0.169865819467716
0.192349391354485
0.136941761615308
0.127018658375503
0.108751135727014
0.154639854386195
0.161424251293497
0.146100983956509
0.159933500256139
0.116672463255782
0.122247635604983
0.121704562210141
0.133210467645723
0.133576848969824
0.129575316473096
0.13600455244084
0.139675919162907
0.141393488193308
0.142852753680444
0.14044361806604
0.15160154904142
0.191070564977114
0.158439664319269
0.147837426415847
0.152267259174338
0.145655807051417
0.18884166522141
0.203846386515134
0.206564103475635
0.212381077344188
0.18971188513922
0.215075797125425
0.171730961458743
0.179566105205087
0.162438842524761
0.183028172316484
0.183463409667746
0.189880927575342
0.175955591406905
0.185390967769407
0.184813591270139
0.197171644521063
0.184813084468787
0.198076655826233
0.194615781188497
0.223010957620866
0.204649799790052
0.211143729269903
0.20419513078507
0.229725266213478
0.275997084512439
0.274396894947052
0.229065334688134
0.220197016477491
0.224136194601165
0.221065168913919
0.226869949251265
0.231347144951819
0.244558728976193
0.246728641925657
0.270442409329209
0.263172091967254
0.264946592780529
0.279189200742329
0.248433389858328
0.277870182390562
0.269037709889581
0.277145805102653
0.301993537255622
0.27708563307169
0.272397743250042
0.29548602743937
0.29606079207167
0.293041638470398
0.310104345374583
0.289857939356358
0.288780530914703
0.292311460770742
0.298953833902226
0.312167291629863
0.316505281910329
0.314019028309679
0.307088017940468
0.324628895167435
0.324069965886108
0.321492988537847
0.34937420260544
0.354513389861503
0.336724015787162
0.350900255443267
0.329840501506784
0.359800484473311
0.348085038011227
0.376521781765708
0.392170944215521
0.381156673538911
0.399289971351441
0.369417175088129
0.362883172727745
0.382064177594889
0.37427703716701
0.36832211530377
0.391291881799084
0.397487877968224
0.384770281824347
0.397953696576557
0.400904703824791
0.406749906272404
0.411312069239616
0.416070240418229
0.406786951024928
0.436438810005921
0.434746811266402
0.440152244774495
0.439983784634465
0.470194388779069
0.476812132630941
0.48092978959587
0.497318914889845
0.476703741615555
0.463422950107867
0.464196634638961
0.460540034267908
0.474815258116032
0.494556980798089
0.509311045340698
0.490954598071515
0.492547620395025
0.502067218320185
0.518880279516495
0.505839900013003
0.531727082331381
0.528940245351571
0.537790665685152
0.532421094651949
0.53728757313593
0.546834060071347
0.551869044505994
0.558864708731194
0.567290564177046
0.577284544207473
0.591903382174845
0.569148598219494
0.561247801187895
0.567564770226181
0.583039157375698
0.588310611380279
0.592942880142209
0.582589614686131
0.607443805808326
0.599084144767094
0.62993144579917
0.621164461583557
0.631682859171197
0.640417772144235
0.643499052668827
0.620212676274217
0.646075556071785
0.649188738040194
0.668839266720382
0.628737785972812
0.648485038127855
0.678244278356283
0.689655681848586
0.687864712738074
0.692801107841666
0.700494649824392
0.737090147721084
0.700051860489375
0.705743787722629
0.707674320692914
0.717237300019772
0.68429613596442
0.708123376816024
0.714990740560614
0.737807202215016
0.740780074387946
0.741716914876895
0.741876306263921
0.791307342490326
0.736408489206451
0.757633986954899
0.757185320118911
0.758758945071609
0.789703139366279
0.802124163658921
0.801844179206819
0.858331409862704
0.816815245892972
0.795909554703587
0.800620497349228
0.859360215509583
0.809204038860039
0.858609686896205
0.85154930791457
0.852565236863225
0.857032123060053
0.883229115250616
0.903795615898642
0.866813313372231
0.881989230798441
0.904915979274664
0.85439409892089
0.898363681908205
0.86745683382007
0.874645090764475
0.920250665013426
0.986547833271633
0.931173949280528
0.890716361051429
0.902514754958019
0.910469218788081
0.942872142941848
0.986112941790439
0.905952275732936
0.934997743861209
0.95476681121693
0.981851584198645
0.938228003279856
0.979287353115776
0.980628618237199
0.983920749087306
0.938285238669677
0.970801616833818
0.971216515413022
1.04509253605836
1.00573928542013
0.965366555639688
0.976337544353287
1.01993159506385
0.969226839318216
1.03879461804845
1.04687089128844
1.04883657262189
1.01258279781946
1.07389493184495
1.08548274518067
1.07023109030191
1.10548975507033
1.09655790083101
1.05772835947209
1.15234449985671
1.08321201301463
1.14705334314446
1.07231424120238
1.10719057045908
1.18186121791941
1.14514191832603
1.07552166994799
1.18973811867873
1.13808007258431
1.2184646175443
1.10821786295033
1.09380937792443
1.1089820160919
1.14416902678679
1.10908995319961
1.1075296417562
1.09626556096841
1.27121435494621
1.22400190279662
1.22965336816296
1.13016690678812
1.12667318868412
1.23670708888875
1.36431540815204
1.3028852029798
1.24482040607444
1.24783686970027
1.35211970764498
1.29299110073323
1.29985896223598
1.23719409450559
1.35258062995595
1.20863072377446
1.28347492153139
1.3802452425543
1.28910994476296
1.25771341996551
1.34274755061274
1.21953031438002
1.22082867301807
1.25557125666298
1.36988090765595
1.27496443715025
1.24772060048446
1.17202351141121
1.40076802504393
1.42856821730208
1.39354525764325
1.42486278287726
1.3973500001508
1.36490164269754
1.36822981184509
1.27152816454581
1.39353380999531
1.33623441825386
1.49296536151188
1.35987658074158
1.42533246704667
1.31685660978169
1.42080004892311
1.38423409211993
1.29914836621087
1.28994098250097
1.43049631437211
1.46201675986022
1.4776173390991
1.38426547525491
1.41501094256722
1.33876851591141
1.49139864734072
1.32590300308747
1.46247631897146
1.44308991313769
1.41700537494916
1.41441177856121
1.54002105377021
1.38924490509121
1.4072308735768
1.42113526262337
1.5509724116602
1.44957457671363
1.48405687662236
1.47245791296679
1.67285354435705
1.43696482427908
1.41230150373749
1.36493315450557
1.52754645838617
1.49168527213984
1.42528782308275
1.4241243195579
1.46223276215222
1.59405333114418
1.64743789792682
1.41637911900217
1.45940981807104
1.41954932630467
1.52187116102337
1.466486393023
1.4262406681928
1.46488432855656
1.65891428388607
1.49178060269635
1.60515956565384
1.56658616180841
1.58490811858536
1.40118092236952
1.61166939690069
1.51065641878229
1.56926318044182
1.38530227671817
1.48998174389365
1.59129475983091
1.6694079348362
1.64542684811637
1.63525689005778
1.5447307105237
1.53231636362923
1.53799353366523
1.56393964173202
1.59160070622078
1.54060670710898
1.49469672123353
1.6210192967773
1.45111851337064
1.57418094445106
1.53431984132141
1.55256391156063
1.58015663635891
1.67662898559056
1.63634157965582
1.70659092272885
1.50861584069719
1.56986673926039
1.51624468972124
1.61559292457665
1.57745635657803
1.55265239906214
1.49712650641226
1.61699695644454
1.56530678370899
1.57199300268628
1.53148179152468
1.65453631136154
1.4046153716136
1.55598860649096
1.52149285458159
1.73188986880834
1.71542240142128
1.60418302058042
1.40273629402404
1.46262476806102
1.46076089782644
1.62669828599447
1.59349924855014
1.54259067170708
1.48821293564248
1.5416695184249
1.49906355322018
1.61424368354954
1.41996859630871
1.58734224940218
1.5348210057376
1.60492852804891
1.52199923745194
1.67626208985798
1.57784634204992
1.79162949853103
1.51377903343148
1.42468382302172
1.49026901352512
1.56715607570372
1.53142323456179
1.78922584169773
1.45763339745762
1.60518686516727
1.46740464706129
1.62863934656608
1.43059906486416
1.43855977429578
1.4005715394733
1.60356677283259
1.61126282392985
1.62945274834895
1.53370517331073
1.60822609488753
1.44386209193099
1.6549655101873
1.56229983471242
1.50083512112387
1.54123195668283
1.50915354633001
1.44005230457514
1.49609809783391
1.4757424193944
1.52264318045202
1.71994541998103
1.65637631918448
1.45505271381647
1.48672512177115
1.43756348183005
1.53893546613474
1.45086068437187
1.5485290626311
1.49875495249361
1.67662618071431
1.53802781178319
1.61755494720156
1.42930596484641
1.52202455881543
1.44603370498484
1.51833773677956
1.48383100300833
1.53630487196439
1.48903931521299
1.60123328047289
1.44091627005792
1.52082278047391
1.45112927161496
1.51317766855487
1.43961468306542
1.6603125993922
1.47876200414907
1.70353721522286
1.45275795226121
1.47334533087861
1.33900988967891
1.40037023379389
1.39074071953134
1.38386429746005
1.40822229650127
1.52379560146449
1.35491824911083
1.4449693386052
1.32800925023937
1.47635645942036
1.36188453331312
1.57897165911041
1.42043005451803
1.50488562957661
1.52788474970213
1.40965744534363
1.37094294698336
1.47287181616169
1.36637854302848
1.54323465983342
1.41301090599066
1.39976703595433
1.34465654109411
1.38380495163999
1.2692028791791
1.41467823024979
1.36191491898343
1.38667732432837
1.39583946971079
1.37943988482408
1.27998002174867
1.39471810719055
1.34362745045075
1.39493697728686
1.29005231333589
1.30448888594147
1.34575622194467
1.34049740651259
1.31531677727796
1.42760893545126
1.30778245582532
1.33426284059412
1.31261297925085
1.35317509592389
1.27606181202027
1.40246104066752
1.29358270347004
1.35987330084396
1.24418411820011
1.23709201934453
1.26126746947873
1.24757077510622
1.31255101562464
1.25778647099255
1.19853736785209
1.24927398912113
1.23695245010696
1.27854555178818
1.25649165528098
1.27835989625997
1.24741912405094
1.27284510098377
1.25492767177857
1.23296312082804
1.15599080092058
1.21049541840658
1.21207046654266
1.17037236971711
1.19241061293995
1.19945540262255
1.15006220169864
1.24643788825716
1.16597967995519
1.14804302870219
1.16227592492092
1.21368419378691
1.1522397555044
1.19677016728722
1.15237427767525
1.13127603785113
1.12156930322604
1.13751552301018
1.08031419294355
1.1165755935611
1.11448178813309
1.14122395459613
1.08434649346145
1.12398931129518
1.07527764695675
1.091740306552
1.08597867193256
1.08854884756721
1.10435863498673
1.07369367721031
1.09707199606318
1.07244085784937
1.01760299139213
1.0450452641435
1.00575819334246
1.10040913252804
1.00901089160792
1.06853094231967
1.02510822496365
1.02568515962988
1.00757032755136
1.00645370568162
0.999823033932836
0.979747989369867
0.960137720587752
0.98729032695906
0.958965926423
1.01767890616872
0.956858078423048
1.01255819044028
0.947966923859964
0.956837093816009
0.952324593860148
0.975845458738718
0.907803698218421
0.944077209177914
0.910598028816039
0.965327352326662
0.918285009553512
0.935095616855606
0.915907826897141
0.929859982749461
0.891839022542928
0.914090312027434
0.865333331849552
0.889071490939912
0.889105560325248
0.889488971221142
0.854795017466873
0.899808738210334
0.874050315319111
0.891136218960598
0.841216176762734
0.876319006840239
0.863270730984316
0.874783870339179
0.82989141520551
0.845462544568588
0.832886534363542
0.84894405194138
0.817214625195893
0.836193223968913
0.824400838541498
0.820647242780574
0.806342525727661
0.815187971180364
0.778784102148363
0.826929620761272
0.798881200241967
0.802486169911662
0.777599229525968
0.77995243270521
0.787292314281077
0.777007531704545
0.766839517880233
0.780476804500121
0.763852544069971
0.775185430911009
0.74566562285738
0.75748829241159
0.729297687879373
0.756613208994426
0.727541933284144
0.738868197012518
0.715056790909877
0.738243086798783
0.723688780004207
0.734780739515102
0.723899221829068
0.72547870690691
0.714607214844398
0.713880063100809
0.701186358903296
0.721482749368473
0.703459483508826
0.703845057913774
0.686285315590982
0.701775978036333
0.67555568369221
0.676004677345534
0.666987790352957
0.697388804065118
0.677274110008613
0.661961280768396
0.653007512620292
0.667152195725575
0.650734014706744
0.655167754035829
0.655774896091936
0.670385915742771
0.649844484908865
0.641067226397459
0.636006300347149
0.639457452559312
0.623989375076766
0.643161822831655
0.629309833052094
0.63069475983154
0.62175804129409
0.630163592121985
0.607850133202199
0.629364901788648
0.604825764282852
0.61358980539133
0.587756965931818
0.599162816475884
0.58418247224405
0.590328037439198
0.585385960911945
0.590823812277834
0.589809942963204
0.589958421931731
0.57066061886216
0.569754798634061
0.565640464679104
0.57885013603892
0.547438634821767
0.568190495695195
0.554643865803641
0.572282044225499
0.551666162090556
0.55572579127584
0.545725115304358
0.563263877653469
0.537597069977975
0.551454080867001
0.534799979713962
0.541519402012968
0.545172691448946
0.540304348702652
0.525471214345405
0.533343722274053
0.518593925650257
0.521070182103363
0.515420099321836
0.520754205701438
0.513076480254697
0.517239466130577
0.502000999617197
0.510760018111778
0.498714446803004
0.512733653311975
0.49973234878557
0.513617415930814
0.493452824412296
0.503309686498189
0.495655675794951
0.499374381885664
0.490171625195334
0.507399864603592
0.488031134462693
0.499694764250865
0.482037319517704
0.490569060875628
0.472264425199465
0.477824676300098
0.468351981245221
0.489165604445785
0.477410118732099
0.487139266980009
0.467953860522446
0.486606785435988
0.479730657734764
0.492626134451041
0.479503402810539
0.488823639191671
0.480704275405813
0.490515448456121
0.474829835857735
0.484235396336144
0.482674347257241
0.496866522204691
0.481919203295142
0.495037417251708
0.486446320606058
0.488186853882135
0.488633546549819
0.497116220254929
0.485195611250378
0.496481448636894
0.494178841210446
0.509118584192559
0.48381819810636
0.500686877385829
0.501988876512828
0.51841927261751
0.501257117223456
0.531048523743528
0.513252895704489
0.51956550491555
0.509651266547366
0.529542506294686
0.52305375491174
0.527141427395205
0.517413901352179
0.53039163741018
0.522688663867816
0.538646968427946
0.530177198359471
0.540850390165324
0.551416528955315
0.548632368596119
0.549161501337633
0.553531730797245
0.545608354389179
0.562834148960418
0.545395760426782
0.576173231922836
0.549874935379131
0.580890087089094
0.554927761816138
0.582465772026598
0.578120321062955
0.598103055997284
0.583078436976585
0.604856653329482
0.589639821470762
0.603647932153912
0.616412821894898
0.624694026910856
0.601755000751362
0.621073761328859
0.61766822626925
0.622036334907489
0.61964716914711
0.640019845189785
0.612993960138657
0.624302875348125
0.62808197657995
0.634169953994396
0.628695789695095
0.657087301342591
0.643257411849474
0.644122158870528
0.62097192295086
0.655711072682505
0.649084207973881
0.64837485696868
0.631162565761261
0.637924994145835
0.624446308606653
0.640732443562779
0.619797168032458
0.625567466707752
0.626842840294281
0.626992813440897
0.617488681837247
0.618162691203304
0.628298953166127
0.639833602222312
0.626351498532485
0.626466311507031
0.627980872995358
0.627487188086136
0.62810951570787
0.63265782749347
0.624769784574982
0.636348666954563
0.628544244592792
0.63925652256794
0.632476688478046
0.644881099426996
0.617389806051521
0.645285061922651
0.621752078983067
0.62894371934145
0.61909520889636
0.632040230496664
0.62494682444108
0.6285061627991
0.619930828483365
0.647449602916612
0.628545172851699
0.629900257154258
0.624416537130705
0.635971414493083
0.633483666879559
0.638390251167475
0.609003336809386
0.638758361992748
0.619505803157388
0.638604097252621
0.629012239230823
0.628856495265428
0.61482442418473
0.618127307589849
0.615926163406891
0.610708650978998
0.599153400704655
0.611196305543766
0.60697696084183
0.612085062381244
0.5970640877118
0.615565970158404
0.599500025852463
0.593084415799128
0.586560028794845
0.595213841263876
0.583394692095932
0.575680809350276
0.559561395731427
0.577245480665378
0.550272344485207
0.566589193453933
0.562343937116307
0.571039936870434
0.543855401086377
0.542242270311157
0.54454318706096
0.536912983078186
0.53268054446298
0.532980754984116
0.520517673402823
0.519678064278893
0.517127474262905
0.521914616194836
0.50432975294882
0.509781201209766
0.503362721165305
0.502227786949554
0.487626797595577
0.501220817523377
0.481997216246647
0.48830120279477
0.48034815120918
0.479343422369652
0.475730412441247
0.473777804281507
0.461259785163893
0.475702187237716
0.463356310781236
0.464567666278324
0.457268727633398
0.461471567081398
0.454628162779858
0.456391598651118
0.447554312554146
0.454730911253754
0.441003519596426
0.448167944734255
0.438087282422667
0.449148546102957
0.437312943420334
0.442985177878402
0.438676289590258
0.436155728262097
0.428345244049037
0.431180523364706
0.423555693871553
0.427505145160166
0.423720031063557
0.423463193835233
0.412612915345712
0.425201592363415
0.407089313158282
0.416234619947178
0.410736098849547
0.414884049428138
0.407335106085097
0.401692579144703
0.402189564336734
0.41085602186931
0.395173166073384
0.398833684022989
0.392529846130556
0.397439540119355
0.391728147101798
0.393101055679581
0.388199108094125
0.394058162248503
0.386303862815155
0.386938328666964
0.384852266187179
0.384209250958017
0.379977770032148
0.37993665304889
0.380387445846309
0.380765195755362
0.372577241526039
0.381330714056122
0.365811184081022
0.375580189529579
0.373936656931613
0.372655810057711
0.368014442235866
0.369215066586898
0.366203575089627
0.367808656415814
0.357618351138745
0.36380948724699
0.357878985441595
0.367017762844911
0.36362280651022
0.358068026516403
0.356467854837434
0.356751017656885
0.355615840888878
0.360390441094699
0.349385089952527
0.354001473537867
0.353374312359235
0.351981984585214
0.351083330591934
0.347729769456995
0.345252581252824
0.351037510150855
0.344893287006619
0.345450473967187
0.338294318912757
0.345592756654474
0.344461610798891
0.343347235767641
0.335675011573163
0.342502701152441
0.339680953088031
0.345276936273438
0.333939721531217
0.337676807219873
0.33379939125483
0.33197598499058
0.332284667308079
0.338631410749391
0.332503596179
0.336295393157934
0.329742718185946
0.3337825531304
0.328286094861919
0.329878338095909
0.330351960543454
0.327988183514214
0.322975061981821
0.330677003858483
0.32492070780259
0.331776389249611
0.318516887532624
0.326746106042815
0.327442012835919
0.320698703943579
0.324037043948809
0.324274602218748
0.317553670681572
0.327568211477547
0.316675462629525
0.317392538790189
0.3150011128372
0.328591635522366
0.313798411906977
0.322174069726023
0.312192504248801
0.324329197801148
0.321398354831763
0.317124960483904
0.313845845706214
0.321918688346444
0.309118403869204
0.317930156726653
0.309525898951418
0.314676920106237
0.30787088647752
0.31575220253406
0.311760403927208
0.312528043081461
0.312546758713622
0.307338975807495
0.306901026816244
0.307176461412462
0.304894593875199
0.308490782180268
0.303042623705861
0.307333430047581
0.301165518234452
0.302785580352892
0.300429311963413
0.303260587233881
0.29992488940636
0.305904052118075
0.294074744285865
0.30235850292809
0.296241169859516
0.301464094798383
0.298439746000434
0.29696835809666
0.298816759643642
0.298193465026104
0.288999521669774
0.290261446996819
0.285518308467894
0.288543195233471
0.282659535967769
0.286095387999127
0.288044309880508
0.289787976704408
0.279904092199406
0.284253131044562
0.280760801558034
0.288084071397694
0.280348770436638
0.283663105995329
0.282228759101329
0.280527126831184
0.278371853046721
0.280280226328735
0.276611572615709
0.280266134927667
0.273549187533389
0.279925487382124
0.269191731437173
0.273401145746035
0.271240520311257
0.275892601542276
0.269641774865527
0.273789963249876
0.270607303365805
0.269272056543517
0.266612314248807
0.266095984840696
0.264337729711515
0.266779397444262
0.26317637003118
0.262636718263712
0.259931491888047
0.263146085970908
0.257695223102529
0.259826097123544
0.25860230215779
0.257824662519563
0.259798360857635
0.25373532968044
0.252294789128736
0.251866664503304
0.246657947584646
0.252111721672014
0.247775890884163
0.243650058677076
0.24312900099206
0.246772962606354
0.243288011214213
0.244721790052297
0.239306094626505
0.245042719840478
0.244160554848048
0.239033444695761
0.236893798848924
0.239072482673331
0.236116809939131
0.239097919802503
0.234932242191343
0.234851915763673
0.231111339152874
0.231452227982805
0.228256611261328
0.232966168974501
0.228782240596319
0.228069493184185
0.225802601041993
0.228101145118704
0.222149537593021
0.226255844722064
0.221934825335118
0.225657630939897
0.222043054144865
0.219960712144385
0.214979871067783
0.21873468288281
0.217176202929542
0.220283327488679
0.214852928854286
0.217169924285892
0.216073867066761
0.215583658756361
0.212869770153892
0.213908256545142
0.212480856977905
0.213750251199282
0.211007930174752
0.210375179337156
0.210234074329734
0.211122180552672
0.207932355273639
0.212108603162274
0.205948220314034
0.207392993733482
0.204757283497685
0.207824307358429
0.203924048135671
0.204123364822898
0.20483929233256
0.205746430407156
0.200172301972044
0.201619720043482
0.200954449211323
0.203074344811297
0.198535957504072
0.202260409649951
0.203058552847775
0.199586134928621
0.196748065872608
0.200009556684634
0.193987108080111
0.193174627529238
0.194024350241246
0.199041743575768
0.194708613136855
0.193609458543306
0.192511753877501
0.195848228010397
0.192583617187321
0.188583792394277
0.188566877194081
0.191028113318991
0.189393957239596
0.186924508169972
0.19105424778109
0.192042158611533
0.18978687500349
0.18863665625651
0.191321319931871
0.186872319767151
0.186230039210345
0.187889225520672
0.185625603552301
0.186615439872649
0.18497601629129
0.188308684156643
0.186435951916025
0.190358643406382
0.180608991235584
0.186408745027888
0.183028411575075
0.184000125545753
0.185199659216528
0.183561991091864
0.181830108972991
0.183952230318321
0.183230440306831
0.180899750683599
0.177686910624502
0.181168662289496
0.180208223939311
0.183461930478522
0.180290949955994
0.181709780391556
0.180544846258351
0.182018957410591
0.179627481162743
0.179800476589315
0.177605014800253
0.179968071921021
0.175216058763306
0.17475271576292
0.17607053897789
0.17888338356798
0.17129687976356
0.18049946231292
0.17345343533978
0.177593310303728
0.170744642345594
0.17373116361876
0.174780572557662
0.169789507188793
0.171289747350092
0.173410020039912
0.173120682389713
0.173785081585707
0.170715865061761
0.171677698141779
0.165849123455603
0.167915029161128
0.172127047050732
0.167219097880399
0.168998928732071
0.170313423470595
0.163178306084843
0.164916893586665
0.163391900515795
0.168801825763892
0.167936071611336
0.167968841855646
0.16731582075031
0.164454639141334
0.165560107019175
0.163873503993107
0.162955160989162
0.162863199735318
0.163912266323739
0.16789599156667
0.163582476648877
0.160189988986452
0.162744964951741
0.165562225597898
0.161483915367755
0.158825252140384
0.161749942538806
0.160352781575489
0.160471151221967
0.161142191915948
0.159150721915116
0.160352960454029
0.161159720951857
0.158410543262314
0.160483490013876
0.159332794297518
0.157823988298169
0.158960649697909
0.155687569649944
0.158704405336052
0.155850902722083
0.154690604041774
0.155414128874719
0.153109694658535
0.154230210135828
0.154361154711547
0.153406201361987
0.154723398233424
0.151751233888584
0.151872341116804
0.151808355794141
0.152716611339271
0.14889992579163
0.145987087242733
0.148232546227122
0.147683850795538
0.145607569212387
0.14670281063744
0.144657144791352
0.149343732340565
0.145620074841549
0.142302595143402
0.140931201631397
0.143431962472955
0.141108379546016
0.141591003594848
0.141427030043334
0.142523032385326
0.140246123571008
0.137678441332412
0.1375389882367
0.13932861525207
0.136186094061352
0.137821872125693
0.13899738284254
0.136405209301984
0.138617840899356
0.138190797943309
0.135114545367591
0.135909897699288
0.136620904621042
0.13662260052283
0.135906076083583
0.134286753970386
0.134584014444754
0.137460147424767
0.134699840662861
0.133342910876403
0.133835072623395
0.135815227988977
0.131619940902997
0.129089946039356
0.129428156191984
0.130511512453243
0.129393238973885
0.127778443650721
0.130206949743733
0.131097742164492
0.130224153909117
0.127545323611451
0.126039032830785
0.126366321089711
0.128992573271865
0.130189046550093
0.126772217377584
0.124694262447219
0.125264364213188
0.123307542444786
0.122516842125903
0.12233519298165
0.123747587866012
0.121897943751379
0.121352307702754
0.121565377811896
0.119835296741779
0.121462262750025
0.123490004693448
0.122781721282773
0.12214468685024
0.120977859649957
0.118535672950414
0.117798686172658
0.113850386683821
0.115770222513282
0.118984258599185
0.117469993804768
0.119119677557458
0.117074592411402
0.115836087642602
0.119305365401407
0.117549959702088
0.113900265249909
0.113168549263403
0.112051395968539
0.113586672136175
0.11378727766798
0.114606129233317
0.111745872374578
0.111435715981078
0.111591222354131
0.110100477728037
0.11228166126341
0.114295234182855
0.111805611433556
0.113355285034249
0.110747580264207
0.113109304948032
0.112634104966613
0.113136275269021
0.113164573757601
0.11165550982955
0.111071339991223
0.113198243175955
0.11315155418295
0.115673076181019
0.112373736161463
0.110346232149426
0.112025750867311
0.114022230624977
0.11081601205658
0.112433844936928
0.110052307031294
0.109213223544161
0.0987229967674031
0.0973246726814103
0.0989695032599591
0.106531087026819
0.107647966888999
0.10826475050255
0.0974217889384798
0.0972442438368753
0.101483448757663
0.109763309722621
0.0944908126001964
0.0991804637950088
0.0973805996922527
0.0966509125441277
0.102058961822899
0.0988718086361862
0.0948819954125311
0.0997343402554496
0.100696990865908
0.100405680529334
0.097050439700274
0.107659323534211
0.103764641649178
0.105561190775874
0.0987700923730118
0.103919862695534
0.0966842962009863
0.106356967867203
0.0947221675935411
0.102005048116583
0.097894725643075
0.101871975500654
0.0983370001295952
0.103356023217816
0.0935988524677446
0.103111525858886
0.0891926532756143
0.0967895514488798
0.0904008817454768
0.0972190567611192
0.0905268015308783
0.107725684938688
0.0980610374153016
0.105250788643428
0.090039211114565
0.0949883325982694
0.0960418096825104
0.10850371417966
0.103311909559337
0.100378039008146
0.0931668462437154
0.103665395817082
0.108633180796098
0.0986914370510501
0.10105849157264
0.0990971412217078
0.116357188701611
0.0892065433941317
0.110534950483914
0.0989499146651342
0.115016033645929
0.0930722396089389
0.116728992668163
0.0959166871935114
0.105500699361837
0.10148290192947
0.10565119128596
0.100131195860834
0.102252957521045
0.104880221595257
0.101274612802962
0.102763832664389
0.10318014911935
0.100054743179441
0.101903314919019
0.100205286110025
0.104782482842799
0.100502535233577
0.102620417058445
0.098588480469836
0.103199695568268
0.0980647593644737
0.0996100311551734
0.101460676645647
0.100766806929736
0.0979453876492175
0.0986900225276948
0.0985288024765868
0.0991011757317138
0.0982955698287295
0.0997743638527849
0.0996493443461961
0.101689100743093
0.0976775181882441
0.0977785248155972
0.0977707806052373
0.0996619975565761
0.0994534493924306
0.0984312806568988
0.0981362571090462
0.0993605071512184
0.100271296862387
0.101299839881454
0.0987702268333334
0.101298774329659
0.0997218050393237
0.100066518335844
0.0997802376575712
0.100105885339521
0.100616227310972
0.103943265294545
0.100299979342482
0.1002706152727
0.0999493677338947
0.100704085059912
0.099791351030186
0.100702952418956
0.0994220739275736
0.101930427844616
0.102709927202471
0.102810767501887
0.100697718608786
0.100743309940556
0.101805586916632
0.103607211352839
0.100291997000017
0.0988392126286999
0.0977990595513708
0.101284081461446
0.100118314175583
0.101522541972815
0.099645892282563
0.0997475196146792
0.100902191841712
0.102131752157087
0.102053858400112
0.0998787943040827
0.0998387322271863
0.100658558730692
0.101764417514052
0.102223376413239
0.0994033490836695
0.0995155430309806
0.0995003011806071
0.102746691579331
0.102297738325151
0.101004201474383
0.101967591588007
0.100898237081428
0.099834884723248
0.101425285487596
0.100195447471074
0.0996894512502698
0.102715445160661
0.102581523677827
0.101994284320375
0.101675288760949
0.101245936693034
0.10302715830088
0.102739862298748
0.102524416736991
0.102385672637999
0.104061975628594
0.103935601771282
0.10192961131103
0.102693533336755
0.104058591570679
0.103292827306334
0.102732062134493
0.104161300903449
0.103191457024685
0.103476326808984
0.105380025933007
0.104724015759914
0.105225682436031
0.104895131125332
0.102990230539755
0.10447956352723
0.10672160074109
0.105589068439484
0.107025434523657
0.106637786839162
0.106940584148403
0.109404797477834
0.107266938407743
0.107798235662106
0.106306717517155
0.10468400740944
0.107413253484154
0.107745534548062
0.107373405473792
0.107149081650044
0.106852263289615
0.107316389747178
0.106850981123488
0.106542266585235
0.107468740319112
0.104871766167733
0.10476051583383
0.107818379990389
0.106049581672062
0.10825630228935
0.109983123529743
0.108703686465464
0.107863413341054
0.108164725798419
0.106711290897774
0.108425556139389
0.107598641509881
0.108085507913463
0.109100040973467
0.106277621694653
0.107986189978034
0.109913203336261
0.109121245716925
0.110852500555405
0.10931370349173
0.108339287508752
0.11005742025006
0.11323096073361
0.111336936504908
0.108435065528759
0.109514711219005
0.111042680146208
0.111127611986289
0.112754396504661
0.111126870578586
0.111062128301398
0.112422555308797
0.112225158959493
0.111864364926552
0.111012867369494
0.111595704119202
0.113143025547801
0.112050574274214
0.111330726207546
0.112618099899842
0.112457815205059
0.110843509625077
0.112131093965981
0.112857926904653
0.11198116841901
0.110622166615288
0.113195824646777
0.113042421514939
0.111832692077365
0.110580996371116
0.112160893576477
0.109919255926341
0.110860353918454
0.110167324250296
0.110444730394767
0.110172305557594
0.110237660373598
0.10858548107921
0.108667025975401
0.109506538058764
0.108042160699969
0.10762443720258
0.108790733353838
0.10672719268735
0.109337264315431
0.107691967266508
0.10785142103683
0.107951208473933
0.108192062213427
0.106862904138968
0.107241140288168
0.108654021786934
0.107657897546745
0.107096006787221
0.110086754820572
0.107301045903285
0.106070015459532
0.107389005997482
0.109004128628926
0.105910205726575
0.10714958497309
0.107582121901719
0.107830332927627
0.106423678967638
0.107081882233871
0.105757663127317
0.106248008691277
0.105793251738915
0.10605585270504
0.105919547677029
0.105743380466988
0.103827739655592
0.10582114107548
0.105086467267326
0.107256266193429
0.103492108571682
0.104478611988706
0.103776669647425
0.106091615509144
0.105724818918959
0.104410305118998
0.105271710784086
0.104032486920918
0.103247859534752
0.106601032048394
0.102746552652369
0.104220241022609
0.105073207003382
0.106753192704175
0.105849504027535
0.103588244771268
0.102486850597727
0.104093760712678
0.10220199576638
0.102839488874248
0.103558411329191
0.105953970631494
0.103043166310449
0.106256345460942
0.104797245769227
0.103629036095529
0.101850762322433
0.10253181738511
0.103567219353772
0.102648031823111
0.100563483813063
0.102679484566984
0.102561733222829
0.102570310725941
0.101555306313699
0.101933905957279
0.102669487392817
0.105765597063588
0.102650026246372
0.103423815378009
0.101348182181639
0.0999925981694695
0.100361603484286
0.102163591031196
0.0998225548048604
0.101006045112476
0.10311592973624
0.101444002734549
0.0997258231384394
0.100359455637237
0.0981847651708371
0.100194291760924
0.0978940102586379
0.100673731757033
0.0994727718873214
0.0989978239300418
0.100122044410132
0.100468325045558
0.0982571986508799
0.0999426655480518
0.0990056641426311
0.101568424752848
0.101262057041807
0.10138572220035
0.0974761781986147
0.096856673717231
0.0956550295650136
0.0982575421994572
0.0978323325999098
0.0994958764519092
0.0970503579454204
0.0965036103836635
0.0954185849689019
0.0955951890652117
0.0935892271441751
0.0964258116556401
0.0946754133430858
0.096208294407276
0.0905771462909994
0.0935523419259544
0.0936404776541311
0.0961375542336263
0.0930001467464212
0.0920969421919604
0.0881018762690052
0.0925575245729361
0.0915247802803162
0.0935387034732984
0.094411997228865
0.0940355663504188
0.090786515448096
0.0902212167792643
0.0895669983421026
0.0914186902392052
0.0895575262978392
0.0880073029682287
0.0878686989703921
0.0885586466220141
0.0882557599844625
0.0885245986345152
0.0878266739051814
0.0886544337744027
0.0853837997898867
0.0884315587597061
0.0875987321239308
0.0880184934171802
0.0876180525803634
0.0854030722290542
0.0839215256751436
0.0870325502378508
0.0862247926990851
0.082801536026069
0.0826830083764073
0.0844178611913725
0.0953234176892318
0.097014706022182
0.0885666824289166
0.0845901534023382
0.0869164626638435
0.0864719391408667
0.084351871911725
0.0834473324461304
0.0835088645104551
0.0870741123205263
0.0836878936431171
0.082841723016742
0.0835470908434245
0.0857469568015257
0.0838318690530039
0.0823757683175678
0.0813637528629125
0.0818191842937092
0.0832468757909365
0.0831399390513984
0.080892505764922
0.0812360118643275
0.0824463408914612
0.0809402443637071
0.0825001737378682
0.0807176810898716
0.0829411623779431
0.0918930108798233
0.0884692941791901
0.0860230886473242
0.0825470392672991
0.0816786362579733
0.0786101569071742
0.0819301794755291
0.0791512161649475
0.0812879359039617
0.0806292595868769
0.0812381149332072
0.0783222866996299
0.0785794465805667
0.077475488037637
0.0805231907582405
0.0797294328060321
0.0796201574873912
0.0751445226909715
0.078083679119121
0.0757674052755039
0.0786224300852507
0.0768273012911171
0.0785789652821058
0.0796013363024558
0.0822077684205624
0.0710667286788976
0.0866208646685871
0.0896928546551927
0.0855865431875999
0.0757451938424728
0.0783304916497597
0.075678465785486
0.075875571754569
0.0746837998077421
0.0773788812250049
0.0727817657389702
0.0774322815989417
0.0761316914473397
0.0781285211915482
0.0755433437498267
0.0763365043209952
0.0754036602289949
0.077540449272279
0.0742437105751422
0.0779030865934492
0.0769121234993033
0.0742625869208036
0.0809974638296241
0.092050501541283
0.078480932066961
0.0808105686698531
0.072494586534531
0.0795630333969377
0.0927993494721712
0.0840857519748701
0.0798030478608293
0.0742356981898183
0.0781263956844783
0.0744956993054094
0.0765286675817944
0.0720791901629028
0.0812157431857135
0.0790837875525795
0.0790075178621448
0.0783911837357815
0.0777678314116929
0.0740753948087205
0.0737551615065156
0.0743048666524563
0.0728933726325439
0.0740259476177387
0.073409005831265
0.0755138930197697
0.0720269443095241
0.0718124855894475
0.0752692606547262
0.0722855526943705
0.0794388356891865
0.0790796212634896
0.0760183116511955
0.0734725024304183
0.0761032026028255
0.071192407140568
0.085070993020057
0.0845601827132178
0.0784070189240486
0.0752176935552693
0.0729433260207609
0.074468974021439
0.0718933926806535
0.0737108286061639
0.0715921580534671
0.0734725297883449
0.07156056115398
0.0763635533118579
0.0730179651910755
0.0745420623215049
0.0715562061968303
0.0756215514207008
0.0697876150225044
0.0746665659749241
0.0729736808307331
0.0748357706420244
0.072831508165712
0.0760236919639545
0.0968847387161757
0.0966536701378579
0.0949583506827479
0.0857647598114436
0.0804302992557143
0.0718291246238301
0.0761655011556651
0.0702022544804008
0.0745856661895311
0.0738753894794312
0.073995556296815
0.0755737312409799
0.0774780084783254
0.0721144616652595
0.0741363017421901
0.070131241478313
0.0749133623544746
0.0718522412118818
0.074456830905404
0.0724062637694073
0.0739015954535651
0.0715533861393407
0.0755885022175623
0.0811342782286453
0.0809381877483335
0.0778204115827753
0.073027050587552
0.117030016811141
0.0882402245492824
0.090458377281402
0.0715040767561304
0.0789429191524831
0.0717001765133324
0.0759769006569622
0.0763101230830085
0.083312163787133
0.0747920104228944
0.076739506031562
0.0746643987014928
0.0799894908840872
0.0728644508951154
0.0727379627131009
0.0959767019338457
0.108872672411108
0.0864171560175891
0.0852697995900558
0.0676282161796312
0.0987382664754624
0.0990991387813594
0.0869151687760457
0.0807480824361957
0.0804685227490269
0.0797260951153243
0.0789222739709304
0.0761962154359773
0.0779808637673067
0.0847859707207072
0.0797842702612106
0.0779298713505839
0.0773609705519934
0.0788888809811699
0.082169851662201
0.0813853172701273
0.0932149411307869
0.0862356686461024
0.0807405375643989
0.0840985385075339
0.0815935828291903
0.0795804662724552
0.080158067651877
0.0798132281416427
0.0779750717857486
0.0973756270340713
0.0929153764799805
0.0913929618950928
0.100128927612558
0.0881201994371742
0.0823209961262796
0.0858785251221227
0.0928237983596835
0.0951421989726198
0.0726226724571281
0.113050210223602
0.0963273214185238
0.121633302858373
0.0953070938963274
0.08937978204549
0.0836491859791827
0.0868047098276428
0.0795300634329665
0.090089200178716
0.104281307543949
0.0862164013420272
0.0928818500440816
0.0788274633010513
0.106993426348194
0.0941329623091283
0.100435551287052
0.0849809953794776
0.0916795696219213
0.0882442949285433
0.112862896831849
0.0814538874230162
0.100229129917295
0.114646149866932
0.122960436735091
0.121521991115159
0.0925331866003712
0.103427807833621
0.124294160337214
0.0988908079061124
0.0980309792466009
0.0875368377598501
0.100618051943485
0.0837108136612467
0.112192392423531
0.125293586715494
0.105858060304358
0.104313447095406
0.0975861239767225
0.100056437421463
0.123590077331752
0.107360370551139
0.103208282080501
0.0995534721857328
0.101719776162743
0.0982292537461394
0.164193669198376
0.108905665501849
0.142845301623415
0.120802079713877
0.140297871562028
0.116381725026709
0.129300415357964
0.107379489857721
0.134958426760897
0.130560572121775
0.12807732496442
0.101379160126365
0.156408216133727
0.128349695722713
0.131877982933813
0.127053642157409
0.123241866041279
0.124630878932211
0.175136406366225
0.173268665101254
0.17031009101163
0.128428205559686
0.146047946021005
0.160667588128743
0.143125074584188
0.134446171110452
0.138911065348782
0.138125649990425
0.139335804928849
0.140847856349737
0.155480945757139
0.139986301671854
0.156820904872233
0.137573585330335
0.16514775499562
0.165578598341055
0.238858140138596
0.179373704425366
0.181986139889648
0.195289944931944
0.185426907370256
0.173870100274476
0.161769283428502
0.165921236717791
0.179181125034172
0.177258361803582
0.172986999412938
0.17125921430025
0.210674186972659
0.18255902799407
0.22416167114127
0.193002804501534
0.206675494872713
0.185194827228378
0.243445069762984
0.336464289185269
0.236640323819421
0.242374232731856
0.215702765963273
0.278580234502875
0.276835715237836
0.255298717219049
0.243242853370922
0.250165105206194
0.249420616327579
0.268259110399487
0.271942099453057
0.284861722250253
0.303869982098296
0.295934364200284
0.29593883481457
0.334814081434191
0.374700783872191
0.401823901502882
0.347391971095434
0.344023492536487
0.366336886922129
0.379669659749675
0.355429348529923
0.377378468523502
0.357180247510737
0.426796208942723
0.426367784063803
0.424920638455291
0.409007045260113
0.433250264191727
0.448600105414676
0.433842769725577
0.510617207851731
0.4740740430888
0.485828211353001
0.46281104540415
0.491412439078613
0.47543819283456
0.502514240795056
0.536168913180398
0.538578690520663
0.525291190354758
0.528277048687544
0.53704223254519
0.543338584983431
0.55051074084271
0.550830195750388
0.559713714742649
0.613960968383498
0.58615641685056
0.805290335139296
0.594444297115659
0.591559384675176
0.565546674427148
0.605853069816469
0.613067863306902
0.605719717111948
0.652095011734971
0.625533564170332
0.584521125458773
0.591160215470208
0.590131256264093
0.600648315540051
0.599161337929089
0.59424869884036
0.591259313124524
0.644799620386336
0.586888417115739
0.702965689326455
0.641645725626038
0.617107695253533
0.572675979062307
0.596962168559321
0.56842107255172
0.601311078649859
0.570423985166478
0.599654663771287
0.589344409215317
0.592796587995551
0.560577075914634
0.556811581105715
0.609491146699756
0.589164677564048
0.561484241891819
0.553290662594402
0.529022291065852
0.547994927265463
0.514566943070255
0.579134130594124
0.577152026121682
0.54714156203749
0.515025599464265
0.521969988934299
0.509721585691689
0.508820584150061
0.494269112742233
0.520141851919897
0.497554840609696
0.503679278138818
0.495191164772178
0.49184885062887
0.48699269231862
0.483145948942997
0.486516531889751
0.479719322736466
0.482167970850878
0.483707155712593
0.485807186035831
0.475288732773823
0.460849759733769
0.48009472521377
0.472920010962216
0.484583740184368
0.479514752332696
0.47174264011765
0.471337175609483
0.474319283452387
0.46979598307731
0.465090298493713
0.471603407399046
0.468086544541816
0.465702657393996
0.464375116165074
0.463148944033889
0.463440494103246
0.466075603912839
0.461545448264842
0.458190302992662
0.457322321734782
0.456721904147346
0.455698618610733
0.459750411926504
0.544784676241239
0.457927770105219
0.464710125943802
0.437180500865596
0.451579716714333
0.430212236366279
0.440649152654082
0.489928433262165
0.463258450033866
0.437847815659294
0.431194653640123
0.421565006227226
0.449416359931046
0.42121213958392
0.424206456914284
0.419497780705484
0.403294683326878
0.509215631463551
0.464401663054677
0.546139682350223
0.470238932109585
0.439832913047749
0.393606946773815
0.440758861164679
0.440194232526656
0.404215873174649
0.399065388177354
0.383604656648231
0.455160459328408
0.400385895188
0.392668357714021
0.38326934473779
0.381466232159409
0.4321549729572
0.423725670762527
0.392659748245362
0.431582908591864
0.4238961583261
0.4077878496345
0.440824562975943
0.455995857520444
0.39321696760382
0.365836336527605
0.366342516433522
0.354651145260348
0.38095336034098
0.417963275436051
0.357069722405981
0.380534412027393
0.330096594319498
0.343969990665126
0.334620346200985
0.3746270995001
0.333567542148427
0.362779915814157
0.364254133320782
0.329163639440849
0.352159169071198
0.341001430365591
0.396072455651869
0.381564735198629
0.33783496517125
0.306923757806202
0.379551765335198
0.348559788018313
0.329771503771818
0.327414930723958
0.296761669968832
0.326336242465221
0.322987541045322
0.296531751307859
0.333899239363967
0.315811622877254
0.333168961113077
0.362296299214146
0.384335661545263
0.359816619515426
0.294650454523381
0.287596737340577
0.285128251357212
0.291898655538568
0.28582516009544
0.275527291637719
0.338639515235908
0.27981128541631
0.301576337341349
0.331912184744415
0.299041097309405
0.295463142651609
0.291943235974384
0.290145951075134
0.302831715739968
0.332567622497999
0.361382531191113
0.31233819293914
0.334274802184474
0.333510291912809
0.32041608467257
0.31522656177774
0.324225692928122
0.326453899416288
0.331623548254952
0.351860432472063
0.343153069567736
0.349724143418731
0.361851500322595
0.351608229101795
0.415676018932659
0.39783813791213
0.385846916219751
0.43199260873275
0.424888512083758
0.482734619370408
0.425146108598434
0.436684116897865
0.424409452987973
0.438661430238402
0.444412975041698
0.444351970942826
0.4769572541964
0.489058362884536
0.460930474690252
0.483385606052206
0.469769958413944
0.486203788231097
0.480601961328193
0.542445366906766
0.500889203625053
0.617422676013241
0.535440582682871
0.55237725818105
0.513296245028662
0.512390304610547
0.524670794730578
0.521980172112192
0.521514864934261
0.519190226086105
0.533542789191386
0.564785291371352
0.521126027365534
0.539441086977601
0.532968135963095
0.541199322247338
0.541767751437317
0.548440288823325
0.552536891141382
0.554762138952276
0.561935512724896
0.559404639709979
0.567966977316414
0.659446355403653
0.583927582754153
0.588769365031119
0.57409690697408
0.597370266408279
0.578349726159557
0.594282455433014
0.609810917228087
0.617806484599522
0.607389581431839
0.621930982880745
0.609666885899131
0.615532472215641
0.63976068247437
0.660208008445656
0.617918253215226
0.656353105725918
0.613930019958982
0.714538460626549
0.664489821639413
0.680372860725152
0.663925215562775
0.670043644084796
0.648221852186981
0.657910749916601
0.652695593356787
0.659781903032631
0.656044216863763
0.667575952195552
0.672941712778963
0.65627143053792
0.655789987914242
0.661271110195194
0.665224194204903
0.694271199510437
0.660400189224269
0.664298784013039
0.653346792704493
0.663452136563209
0.648329220210262
0.702644628557264
0.668294974177362
0.668708965934106
0.650529463895259
0.685889530313339
0.678628857880064
0.678957368142165
0.652013545860586
0.66468449761351
0.65007797980555
0.673365219186509
0.651431053059503
0.67596292021838
0.696129606979129
0.68012520941621
0.668844719799542
0.674186426050379
0.661647256784165
0.680127947689505
0.676795743165382
0.68798264899023
0.682598520922913
0.691194935227774
0.694027323188317
0.687359833062035
0.694670461504013
0.709521896222701
0.715413180589012
0.71036208078662
0.689796544245771
0.698236334976522
0.679616258711669
0.687825026698877
0.690292214935315
0.685854199807229
0.670347411725385
0.67698538581214
0.662772838962498
0.666623964614654
0.678921636449438
0.653570401490365
0.662937108856811
0.646000698204713
0.631311490841033
0.632016487642265
0.627599201627862
0.624328124531646
0.616417091024708
0.631080477853981
0.613768644691987
0.617058088928907
0.606601123659173
0.609852446195046
0.597653039685316
0.604786440357359
0.598473856980531
0.604298875554392
0.59297966886738
0.595199434406151
0.590864661547761
0.594016040296968
0.591654518028482
0.593024318418111
0.604193314413077
0.611413513232131
0.617386268374362
0.603244035422249
0.600609374089714
0.591929220111591
0.591581989774173
0.594625784440525
0.593750250262191
0.593312909194025
0.581577499892784
0.593029257112386
0.586656046137773
0.586597217736629
0.585935292102057
0.587689148781203
0.586022214415303
0.587245044661721
0.585173949170993
0.588858467794985
0.580217313435329
0.587354834179972
0.586741082251039
0.597112109702431
0.587310796609628
0.586621535310585
0.588342191175688
0.584014250300313
0.584679826853643
0.5831142023691
0.585175741120452
0.583025974048894
0.585694898538046
0.582194043773751
0.582008374402411
0.585618914260607
0.579829494423035
0.583202215470232
0.574170997594731
0.581452135929793
0.570275101835388
0.573760179459761
0.55854647061285
0.56753772260187
0.554985139435165
0.557646732451775
0.549454639939533
0.549748381220157
0.541738397374339
0.538136710420011
0.529730194043475
0.533231215877779
0.526616153213262
0.524917152046215
0.520100392587448
0.518328872366303
0.51561228328574
0.517552643152976
0.510714471619128
0.511044966091077
0.510739765800579
0.511931102354608
0.508540709352923
0.507521959044394
0.505265783250212
0.508338739710206
0.504531704658619
0.505200644395742
0.505676937958042
0.508897344105559
0.508617255408274
0.514294998738192
0.509177631800039
0.512593188051286
0.51535994026526
0.520129307114618
0.518595435326711
0.521806317082861
0.526646346143613
0.527135691502241
0.528104329407067
0.536250832618792
0.529803341307338
0.532516317406094
0.533610408873038
0.5343120209153
0.540052629667916
0.53291246253292
0.537387223688449
0.538902178790787
0.535868105940021
0.540019260568191
0.534334974842622
0.542908240288997
0.53272008821274
0.53546513596141
0.526830296192303
0.530909820018538
0.530753366950805
0.53137747736086
0.526962192577398
0.528570070852609
0.525370328759561
0.523298186197526
0.519776568538514
0.517846627981301
0.519984622966993
0.515870327453791
0.51283417507937
0.515988828036252
0.510524790501536
0.513284201674348
0.505913579087505
0.505129589040132
0.502465254952933
0.506626430550429
0.501586165666731
0.502858992701176
0.498287731785714
0.497045174863152
0.494365086484015
0.491390871588416
0.492840515417836
0.489950943171704
0.486890514229504
0.485881924187891
0.483514024848395
0.485504388041192
0.479744594760471
0.482021174104118
0.479117692474725
0.472835331469136
0.472381019710227
0.469952024066699
0.461188231218002
0.462496837134679
0.459115652062885
0.455344899113375
0.453096679228071
0.446266106918579
0.447469077208373
0.444351267249745
0.440139985921651
0.440263905370844
0.436322838887494
0.437206469435487
0.436206832489501
0.435138283113775
0.431298174395655
0.432392135010242
0.428818715089443
0.429256499497611
0.427519581560585
0.427174983218375
0.424029511259941
0.420035887211947
0.416728847198888
0.414388399387814
0.406540818213756
0.40189560958105
0.395596845673746
0.39514109683547
0.387383487714463
0.380598937116243
0.381809029729516
0.381962856049052
0.380047254044989
0.378958564214133
0.381279637013111
0.38904503333971
0.390950975527876
0.399087291242165
0.406557883975852
0.419954673607298
0.429867318611655
0.444001706873234
0.459262093331503
0.477327716795772
0.495445752571143
0.512777483175851
0.528753642658127
0.549788155729759
0.573030168406516
0.593258392472407
0.60477294159731
0.626957696091705
0.642561704599535
0.665295150439312
0.682923738872857
0.695689793930787
0.714277577661516
0.733859757721155
0.74547165148455
0.768122385587392
0.782717729367734
0.793068227395774
0.804287804127958
0.813900887440347
0.831417337160165
0.838348552664488
0.848519255464414
0.853632657361123
0.859366914056828
0.869665058267265
0.876936623056735
0.879787984294628
0.874138011152625
0.876886517476789
0.880918176861302
0.870494121941329
0.877747748036602
0.89031750941435
0.889009169270191
0.879013293687514
0.884339656671126
0.883710040437198
0.882958808807245
0.886180428746472
0.895582363724745
0.892257547698695
0.898622745031451
0.908334991998694
0.910107231562359
0.919864061121062
0.927615313587208
0.938338976512279
0.941430817242849
0.954144398430931
0.966622368130299
0.972626751231717
0.981219867537026
0.999708423421098
1.00809196824306
1.03413868194822
1.04173861274969
1.05690392377261
1.06740750854263
1.07830925295618
1.08281942610778
1.09368477797065
1.09726968165831
1.10432789101297
1.104967552943
1.10042199338352
1.11130663672631
1.10845875522826
1.10826166136059
1.09002823610025
1.08710884467226
1.08246140473809
1.09132141484445
1.08680302201905
1.08775642442589
1.09303088002071
1.11053065366916
1.11938689572986
1.11373493304574
1.13565830322569
1.15006538864675
1.17666157198409
1.19586743195202
1.20083038576807
1.21670477455789
1.25326717332678
1.26351051116702
1.25967486783592
1.28977385281244
1.31294183928813
1.30878536383575
1.35961254131175
1.3735085842935
1.39911274119291
1.39836318468905
1.43077827555763
1.46208722651623
1.49108167575656
1.50319846898903
1.52673499541634
1.53303185366653
1.54305964579186
1.5943176578073
1.61236224056752
1.66094724287046
1.68550598855805
1.67428869078027
1.70148780584269
1.8114071092147
1.75761874764244
1.77355146371883
1.81115601109214
1.74762343921773
1.86554059507241
1.95079810092904
1.86397393417407
1.86943222668474
1.83659637212964
1.83383730701048
1.78897857001833
1.80087834744787
1.83508725868254
1.88043806167487
1.74396168409177
1.8125710326583
1.78394892461527
1.72489961114888
1.799960958038
1.90870356241212
1.82198428859607
1.83303843149973
1.88031085751049
1.88748881695493
1.85958415609748
1.84716833295091
1.91694877018315
1.90174602871213
1.99488251030815
2.07366500523163
2.00234894116909
1.97900315162549
1.99138567638841
2.14903134624086
2.28303798417885
2.04548735403933
2.0346513656041
2.13101439942358
2.09294816639809
2.17515851845873
2.03712410121453
2.33325404097088
2.19282064086948
2.15148532695151
2.33945347560293
2.38830842140209
2.26014151306533
2.19731134896426
2.11638804372675
2.18733197980463
2.06051193668282
2.04808437791951
2.3474231688476
2.36291489793158
2.26824126045838
2.38745856953729
2.18271809076316
2.16977644761796
2.28861173417628
2.14877744519032
2.37471850827195
2.18900480138365
2.10220979351678
2.37856082942885
2.16153682012317
1.91756898851269
1.91061976148127
1.98310216237222
1.93084910469972
1.93526307548837
1.70651248419301
1.73224578096999
1.68461800386965
1.58164925833541
1.54529261899875
1.56077629145736
1.53056726662903
1.51147266207213
1.46828917853115
1.45148943399115
1.42779777646223
1.391754412646
1.40050384583928
1.39444912970334
1.36308879654438
1.37445848957662
1.34084458082604
1.30765524879189
1.31038010239535
1.28161476671329
1.25272449886133
1.24910188409907
1.22004493957729
1.19943749977309
1.16791432705926
1.13345375727677
1.09192025790485
1.08044508507325
1.03682174583219
0.999308641554989
0.96124163904294
0.919999305759964
0.889884602816401
0.853982780977344
0.809351842841942
0.774349730256518
0.729695609626594
0.705643060491732
0.675823138480025
0.641480103684451
0.620853219858568
0.600801748507087
0.567663675894681
0.548332276552624
0.535262422476122
0.522726263266331
0.510066001538883
0.490720619933307
0.47879519226397
0.47754903451105
0.461127169979453
0.456281085648501
0.454158360075435
0.44959738582404
0.445473125503488
0.44835756823746
0.439845204507
0.443614951661038
0.447301135687711
0.444614909254291
0.445250664856488
0.448237969872573
0.445498032432257
0.452932547208645
0.452679855663495
0.457110273798832
0.457880134838756
0.455710668584861
0.459175527075272
0.460123561610786
0.45585265698211
0.447516411803471
0.444020762045872
0.444908412993849
0.438884034917287
0.440581530474749
0.435004169638466
0.439075201426885
0.428047621356584
0.426410745205056
0.430427151023937
0.424152284766272
0.431850406032042
0.433898260617359
0.432934431962134
0.432310155419853
0.439295491978105
0.444315771794688
0.444259909327033
0.452150911495928
0.45855342802666
0.462821561717759
0.459981898237859
0.460226690045169
0.470378352954861
0.471062666575995
0.472535203069059
0.475309510161921
0.472561339093373
0.477287786512916
0.482781898651564
0.47802660289571
0.481052272909097
0.479076912206964
0.476334082300037
0.479296746453275
0.486788829749346
0.488994888275999
0.494277546295785
0.491984028238851
0.501160235961705
0.520690318989574
0.517859637202214
0.527094489541547
0.536900456413728
0.546929038510309
0.559957495489356
0.583244969490742
0.591655077796851
0.614967582678222
0.625959205345608
0.637928664077091
0.639115514041697
0.64497657382137
0.651705240309378
0.639093726583202
0.633558273942008
0.634792288302437
0.616792869093821
0.61113637404652
0.599486073177235
0.591453483084187
0.585167518632147
0.587256140661371
0.577413675824862
0.582663941875728
0.576778653902118
0.569252931568954
0.576502306784273
0.577025872657128
0.570488758042462
0.572268646006076
0.578502281771755
0.584066749299561
0.57016854781678
0.564096184433509
0.561075623770199
0.5710478972449
0.544855984223058
0.550947269293275
0.541167291198798
0.530428749159582
0.541523672196575
0.543809299994219
0.525459465248461
0.526156967899174
0.523938730692945
0.527744887989064
0.522138452476955
0.51252791225366
0.516800105657235
0.516422875795006
0.510595806774823
0.512019091427235
0.500488375941242
0.501679579293092
0.504679054169025
0.499250738121058
0.491171502065991
0.48905254278251
0.495417864393357
0.502368620263009
0.48853408756515
0.490903037405334
0.487996666318337
0.479783072541219
0.473742770637975
0.478361024500678
0.471283912982304
0.475553499083474
0.468814027373767
0.473573020855922
0.478523926442816
0.468935455465574
0.469362072541124
0.477857662150539
0.470651040496912
0.472320276268319
0.462710665940693
0.470328572213124
0.462395801273095
0.464164694908826
0.476811179521923
0.462692678646502
0.451513582088496
0.461654213992453
0.457179510266905
0.456315573751842
0.457176015698149
0.48548307222781
0.475932415985042
0.473842237424132
0.475021827556998
0.488772626637567
0.482254255318201
0.48656364252643
0.484892265387555
0.49646047898897
0.493528296001966
0.484728238981488
0.494353360252243
0.52417528782289
0.517617645643959
0.521408791694412
0.505675405012594
0.532603911494114
0.523069985116921
0.529055021289062
0.53114705403517
0.527653511121163
0.540117724789755
0.551276632460435
0.546591641245627
0.561427319590987
0.576759831765878
0.600690072072531
0.627716529896594
0.637353659270306
0.609651575736854
0.654717079276796
0.6718527490383
0.683734237873349
0.692274092090329
0.725957233379348
0.722791038412306
0.749236048831883
0.759012517823125
0.798132261903677
0.810782007489884
0.784260449114071
0.829521657625995
0.808878729609284
0.800426783857793
0.805987547362381
0.807230934197205
0.846640043052731
0.802194023461748
0.791487846214582
0.767239061141084
0.786717942797754
0.817586335994063
0.812456053495811
0.788430067977642
0.785821370071303
0.780082847165057
0.774291107326314
0.792985470478594
0.790237458498341
0.772986464974371
0.795050905803136
0.769911077118891
0.760608634946512
0.739078307012936
0.764563449844702
0.770172546491973
0.762724863880282
0.703524631492079
0.711962646054092
0.770721594806898
0.755210908252985
0.73807162940993
0.708673533530804
0.692127960592233
0.739523997814186
0.744353898565107
0.713751040502382
0.757916843306403
0.725622521154637
0.698792188917871
0.769679744237864
0.733876871088271
0.731531239392833
0.730437919392693
0.744535144290558
0.677914662009492
0.718057629805433
0.734672109344751
0.726297348946288
0.751972182110053
0.790984849495467
0.772085226792176
0.764008629286768
0.692102792902043
0.729926419004275
0.733504880736181
0.740949253984177
0.777164268639421
0.765791789422034
0.743454129025547
0.753962023847781
0.775567683392927
0.84077819853887
0.765600466455447
0.688600195568765
0.762736930182472
0.852976864962699
0.902762153291768
0.818356680439044
0.730917289187
0.803554284052369
0.904471088360984
0.928142020334127
0.790551074016339
0.814929323749856
0.837179124910831
0.852655656762195
0.871651765082351
0.915212207315669
0.854472222136027
0.92489380492181
0.920882519115678
0.98858271414409
1.04629811866482
0.864282007600113
0.979507848039865
1.03642887423111
0.926572879870021
0.978586637966271
1.11611770587193
1.04682385241207
1.08800867377087
0.99900212380201
0.990786132411186
1.067089894758
0.829109229450969
0.963670563913904
1.16359879088499
0.934183800141008
1.03489214762581
1.06960149614281
0.94318678323934
0.892435823358781
0.853258619912477
0.888367418922739
0.893421140694826
0.85331033305326
0.799596717068706
0.86345288768422
0.99553234057569
1.1662631532446
1.03087955295582
0.86926965853959
0.8242922012877
1.06154398997161
1.03908373743089
1.06603400092588
0.988722461690316
0.795324355143425
1.00784064029933
1.06286655485476
1.13702942279196
0.869552377190729
1.09318519874757
1.02580788995794
0.872590806375888
1.02757270167281
0.965620815820137
0.857645324064421
0.831932193657061
0.872846652166951
1.29439728078827
0.800108127738805
0.915776315469687
1.4264546260591
1.04923615563036
1.01618782954662
0.666640320852471
0.900067258539507
0.914905272382952
1.03401356700908
5
5
0.804491498260694
0.732730081425428
0.480814690649173
