3596
4000.36533379555
650.420452594757
1
2
2
0.0377550104763238
0.0347243401401004
0.0271716473932076
0.0217043544172427
0.0457036107409935
0.0422538673862363
0.0473200223028541
0.0341914501610273
0.0395227883617313
0.0340355885696892
0.0394568102274159
0.0460774794578232
0.0500878355328387
0.0257286921244655
0.0409449911933363
0.0288317333129244
0.0304427828957683
0.0197123766475568
0.0385663437269003
0.0345033812035634
0.042441639203201
0.0384067602330562
0.049484520671776
0.0316370513987649
0.0350159533708534
0.0441260988724322
0.0324056323548881
0.0187187644084545
0.0456755234258771
0.0370327592145172
0.0434495562285924
0.0284908917974252
0.0403747786951457
0.0342927123617077
0.0405776955464246
0.0410216561944262
0.0445252547297505
0.0266713353013546
0.0432363489500672
0.0278874907595069
0.0446687517621476
0.02990408235386
0.0422336403694157
0.0376351264214127
0.0352157506431632
0.0319351368571272
0.0261396360781096
0.036638642408654
0.0376637441741954
0.0329183657035292
0.0466237685798819
0.032961793089386
0.0405036726052631
0.0308477173122022
0.0295233129920617
0.0393693166108689
0.0425168192699329
0.0388663854469656
0.0343418370653538
0.0212782987775807
0.0356142485445636
0.0388039739174963
0.0398010294251402
0.0354309699689098
0.0366420149261562
0.0339343523132136
0.0334140293396662
0.0321879576190669
0.0380807777830582
0.0248189674163861
0.0194384126479324
0.0400069044489562
0.0513368832713388
0.0332967640924981
0.0350068602760438
0.0284235622859376
0.0377133830641475
0.0382511562082085
0.0272995910062372
0.030570560617044
0.0398455495986195
0.0392543933323574
0.0312219597798132
0.0291674000399823
0.0329723431369098
0.0478980116270085
0.0367296156136948
0.0161707997435384
0.0497974615065745
0.0365516760454256
0.0316509215357991
0.0295787786211819
0.0332374084990237
0.0305698835515629
0.0367981546686576
0.0343791109214029
0.0461975645288818
0.0265665683627705
0.0349659211266093
0.0118986625435678
0.0400514456512867
0.00830416755818757
0.0511097054691635
0.0263874423795401
0.0528304147181268
0.0421402145327829
0.00622973158790294
0.0450141182635564
0.05603519153608
0.0288845195621439
0.0310989206210165
0.0289364189585534
0.0355184526025216
0.0214450609245471
0.0261865179612229
0.0183395550910887
0.0602542141787648
0.0444611907704944
0.0417118155980493
0.0243907922285918
0.0111006429326217
0.0100208546570976
0.063300658908411
0.0272806977791899
0.0429561314119863
0.0257756578876725
0.0153258963876002
0.0412036626132832
0.0634168266755804
0.0345251718027409
0.0342489225122385
0.0233758704985208
0.0307502603790651
0.00734182596271105
0.0478024053870833
0.033173845294785
0.0259111431888938
0.0172776884233161
0.0305973907490528
0.0534130924230643
0.051793442412329
0.0306594127427039
0.015228687934579
0.0132564574265772
0.0583740705594631
0.0314870792406983
0.0199090351693148
0.0265183030688536
0.0538274593592711
0.0239868725494365
0.0318950611694607
0.0140751408354051
0.036664400803553
0.0340219553084077
0.00455681225696477
0.0214818624239725
0.0707187239294902
0.0268127325919045
0.06704377776619
0.0371764047143164
0.0338135991485761
0.0306304429527659
0.0277857442996721
0.0275056637925052
0.0212813431688726
0.0300272698931996
0.0233295157389136
0.042387184787195
0.0223454958702782
0.012197960699765
0.0330880703861106
0.0291342288793449
0.0223521856059875
0.0773700887974522
0.0451874156210266
0.000275548636627638
0.0459192177765474
0.0382218021592105
0.0212861747238864
0.0327339322923731
0.0526560800186952
0.0369773027622104
0.0293210021549766
0.0233242130751589
0.0236032910847157
0.0388363459739419
0.0368482047198365
0.0367944922280309
0.030972452942843
0.00337598304661758
0.0294213201656342
0.0618488205468714
0.0554957832656051
0.0347711913608049
0.0229469456979151
-0.00890956354566901
0.0405685441829772
0.0477152812982093
0.0341575292387178
0.0334842548258912
0.0278998449118165
0.0212656388003674
0.0219753355936445
0.0322825468537917
0.0297200286419013
0.010825771390445
0.0464720535668706
0.053617658670405
0.0259080125183744
0.02169148552266
0.0205355152405803
0.00199414522370906
0.0577248390993438
0.0711282074379808
0.0250736000952454
0.0306349795306369
0.0119630322302334
0.0290580099853405
0.0367949974520654
0.0340726196535519
0.0353759117690644
0.0299586047123457
0.0333926871191402
0.0345614836997945
0.0368820486828049
0.0322803713287263
0.0315595480721843
0.0286613071181299
0.0316588510473785
0.0349521796217559
0.0426720521898244
0.0293728109974175
0.042353785352111
0.0263057162407126
0.0237267150652297
0.0233653581709658
0.0476344694124057
0.0354911013559299
0.0326014902141978
0.031099030937215
0.0269461894738323
0.0315020807851659
0.0330817067845901
0.0315079333628867
0.0298199409656652
0.017345547341385
0.0386362413877896
0.0462255343311639
0.0295115782594781
0.0200893835930451
0.0288752722872967
0.0510254773657641
0.0315833068568151
0.0364064310644393
0.0376371022113304
0.0214704123184101
0.0179039082742741
0.0425279857796466
0.0323542043431348
0.0186578195610354
0.0307495654218281
0.0416287869860401
0.0364569610624443
0.0135093096599643
-0.00196843958701476
0.061866606384077
0.0367770477583591
0.019526420031405
0.0643278707132803
0.0425318890860112
0.0296464866096603
0.0147897791230194
-0.0249847650082683
0.0677568137886186
0.0687688633264548
0.0302018805792323
0.0234170150660417
0.0382392643261151
0.0357264810204592
0.0259138856800185
0.0390750154071571
0.0277004508201546
0.0407499910647298
0.0526551890370879
0.0614828142475235
0.0160963249926373
0.0242951650149761
0.0412558478138583
0.025115716273498
0.0335521326136821
0.0298293692582898
0.0243450940279146
0.0316880072297718
0.0486613197994786
0.0338798622921933
0.0342663444199447
0.0378744613808266
0.0497588691755885
0.0420190168256465
0.0218601331650437
0.0381984744607292
0.0386140295546451
0.0406017704975327
0.0450219495889388
0.0284932245295227
0.0372237900002891
0.0166310871935204
0.013271696819705
0.0770109753400919
0.0312156277300464
0.0256329469524791
0.0527217627482137
0.0407516592866662
0.0302340085716632
0.037484696566807
0.0358822035302866
0.0397216143970759
0.0194099472467622
0.0308402741075933
0.0459836355356539
0.0355132761785122
0.0356294941295717
0.0379852290659804
0.0311872137374047
0.0276280653552304
0.0387670521872501
0.0363242654253486
0.0389554564066981
0.0386358714268713
0.0263586239251738
0.0369622781096361
0.042579598731951
0.0285253481529409
0.0500751475148569
0.0572128613882803
0.0408592841800619
0.0410963045155889
0.0381256639383337
0.0393851611864574
0.0448370562433501
0.0432551344167702
0.0344820403531267
0.03514958950093
0.0592174789837028
0.050325426011377
0.0257303276659644
0.0201204366061758
0.069528448806367
0.0641935664597554
0.0611371320327275
0.0425630161335459
0.030983271381825
0.0413816635157759
0.0628320310068749
0.0499499640608755
0.0615050255746692
0.0565991044419365
0.0514377865509632
0.0553731456302834
0.0405918046472579
0.0570435330417717
0.0571555627362786
0.0588842992285545
0.0526813007612447
0.0498737334290728
0.0614336597460038
0.0525339651132526
0.0524521181375192
0.0897210775665783
0.0635737553476739
0.0687500025643807
0.0591100921424018
0.0571134205731397
0.0733999393200333
0.0646004890534188
0.0851357306431069
0.0606702171966748
0.087213335992761
0.0739168025355048
0.0781419328535095
0.0739975343318422
0.0762588735269169
0.0794780024481932
0.0751449110366094
0.0783743159330768
0.0909802136909586
0.0831628552239618
0.0924059277686243
0.0830998476218851
0.0850600660469017
0.0797927180548795
0.0951016330347128
0.0998411942943151
0.0970152233996904
0.0858585090015256
0.0894869336416311
0.0828070580933193
0.133876936824952
0.121252725724925
0.106003982360067
0.111298405019964
0.104860484134622
0.115004158295436
0.105343698928328
0.116089907382371
0.114178362911684
0.109658522959919
0.116918956145983
0.12536989248973
0.140030637022174
0.126151632966609
0.116231098465927
0.133654702267615
0.12394504358144
0.121392604798016
0.169447413252638
0.137082959269098
0.128404882175075
0.147709052548071
0.156892817665287
0.137693522050308
0.157075600287019
0.15164327108272
0.16109193075848
0.163577771891658
0.165171882345008
0.173882992043389
0.171187505052426
0.162045946990055
0.175336431567289
0.16273534104622
0.1726483670083
0.162174897822917
0.18221675598418
0.16610648901175
0.186138028191503
0.184864542739406
0.209309070539288
0.190623622907388
0.189473384215
0.199513437117023
0.194131865527879
0.212993780356943
0.221720210268084
0.209777431441747
0.206076786264559
0.209422020227734
0.226582551969617
0.219192311882865
0.239969493315042
0.221000854768091
0.230099281858338
0.234223361922857
0.242503770916118
0.23095653556348
0.254849891611987
0.246333747732994
0.249607125819251
0.249894898554734
0.239782888165018
0.242313530306454
0.262434472190984
0.280582257419897
0.290519975974464
0.265238627493242
0.27973909674264
0.277281715242372
0.282924636528417
0.270505897492809
0.306829617712237
0.296823385679989
0.309050986193134
0.289102818365384
0.290047504400662
0.308572881089313
0.317453858884347
0.292911532302437
0.31703168809857
0.32300200341851
0.330742026362994
0.328694896743739
0.344681502598284
0.326847182762614
0.349801752909489
0.335132400790448
0.36409747632358
0.33271086979952
0.360708765382843
0.357777140486126
0.365543134330642
0.378970621013016
0.390053685114606
0.3869756803352
0.406057954414743
0.385138748732558
0.399306930669004
0.372775262834817
0.450449104993504
0.37326670566222
0.407521378691662
0.391741638039928
0.430544120254128
0.42861233721243
0.422539580001874
0.406190428324662
0.435516189223154
0.421331644457679
0.437135897184945
0.411736323617653
0.480553015849882
0.446310258774945
0.48586610590664
0.441043191678688
0.466115060413377
0.477694619714228
0.509849194404181
0.441556841620536
0.530695729375286
0.478888779356803
0.476654586651774
0.473959012480665
0.526186629950045
0.490404719033197
0.526649327894942
0.507096507109466
0.516661622267328
0.518254191479235
0.548504345847159
0.497777988391423
0.550877121106443
0.535456908907532
0.552723853411728
0.539427076426455
0.595464275437958
0.569244384857493
0.604711671131745
0.530314456401794
0.571580674226298
0.546892644138173
0.600625402912503
0.558387247013558
0.594787429850241
0.57493040876472
0.634864745038432
0.596968846199821
0.625567754128142
0.60838583549202
0.594668616679881
0.580203696759194
0.677884868323588
0.634390571303668
0.685704245040985
0.617299639236309
0.666950710705516
0.643443535054237
0.699677357266527
0.637084682929858
0.643875587072002
0.635399520811877
0.694421892008687
0.689933420945709
0.687571640467071
0.689347283259546
0.72729206436686
0.642007572238046
0.69445224671521
0.672488333944859
0.694879951474592
0.67510620334436
0.757613429781588
0.690619329534468
0.795411005549946
0.703237936820364
0.783811192876804
0.728185145970316
0.802737875608487
0.771071587203761
0.824541873276694
0.724951812581891
0.78534064920331
0.730529173951769
0.774440092872086
0.741313410617243
0.836915994684922
0.791654657542045
0.775031707463419
0.738109277627973
0.871198694461105
0.781141520931186
0.831520273924389
0.805681670212719
0.817115198368532
0.826118918783
0.884860135098049
0.74882081967785
0.929384181053826
0.811168298906428
0.889514217757667
0.807493202184351
0.894406138403423
0.801461001229717
0.937258947786163
0.794511606021013
0.889495396902898
0.825542126621209
0.865214740525849
0.875904674114081
0.901428905826546
0.864558264292879
0.974949697002013
0.82032313625054
0.932044809803948
0.889790551952403
0.920869489353253
0.942739668274322
0.926928764135896
0.88737503389879
0.961862204160593
0.936413897775888
0.912682774880826
0.846209501029872
0.983833991625707
0.884386169447436
1.02573683838367
0.908372994303964
0.952566229868069
0.905953032151588
0.943432966462942
0.924380224022575
0.990735233030391
0.953200899631523
1.01136240653319
0.881642352466433
0.975295999138224
1.04862181098142
0.997085035222564
0.902818579439847
1.08610241118416
0.937696448529612
1.08373655652636
0.906418777648559
0.944839809762658
0.977117202346658
0.963962036240766
1.04662785458035
1.10425078954381
1.02106875618723
0.96739889436681
0.946743643706735
1.11892660724162
1.03661053778219
1.03931773648015
0.974585357983149
1.1682318495699
1.00352506249073
1.10572368430097
1.05584860831087
1.07982494143036
1.03996632468418
1.12352371012474
1.06269457126921
1.10943620807419
0.967868723076452
1.02049429043293
1.00750801881379
1.1204141833848
1.01559001735453
1.138301122752
1.01241978857227
1.14334115435596
1.05664726268079
1.13616479369031
1.06276826248948
1.02390390445911
1.01322554045726
1.09118328733383
1.04844481810245
1.20163050008156
1.04506823180845
1.09476888039798
1.08256450604297
1.13355176834488
1.05265025698565
1.15360312039406
1.06927092472654
1.16956789634796
1.07014377798956
1.20169015576938
1.02994474326394
1.19218029399523
1.01974575411543
1.15289175912094
1.03393127044903
1.18927004349386
0.992466018139557
1.08372206712213
1.12064467117108
1.30903174172528
1.03491326584532
1.09645919148626
1.07423695458455
1.10835447628555
1.05407854745197
1.06723703095833
1.04736669052511
1.15513517220288
1.01281930520374
1.13821843429415
1.14290870313516
1.23642089338157
1.08604314495343
1.19259437352901
1.12582682389688
1.15982451488514
1.13644798111387
1.17370842298646
1.09508716830248
1.14148455560111
1.09436447558699
1.109805134123
1.08260881120187
1.11450296289486
1.0465431014094
1.13412499518738
1.102077990947
1.08465158912329
1.03030764587541
1.12628608716352
1.0747067515202
1.1049317540842
1.05708575324886
1.1879755908683
1.04575496647544
1.12520790771288
1.094425080747
1.10283416478739
1.10385499174545
1.1303785253953
1.05649361641449
1.15006021229478
1.08214329988185
1.13210781469998
0.995205825549121
1.07257124588925
1.05990194288829
1.15409172668527
1.04124225354314
1.13205619681599
1.09382978628312
1.1584715054426
1.05414734982092
1.11763956666649
1.02639044036545
1.11094231686296
1.06588320544538
1.0138521458295
1.02616407334719
1.12231796352075
1.04615678393667
1.1207707064251
1.05203851991252
1.12366043625369
1.09584495892503
1.13892528374335
1.00953900641529
1.16964672430751
1.03795541992847
1.05732040294531
1.05365376504904
1.15918258946144
1.04375011685487
1.07631155665488
1.0806487109747
1.13319604839123
1.05435470738571
1.09763329598668
1.06666471291439
1.08225664587381
1.02510606886644
1.02458226204718
1.03803235997796
1.00506774118198
1.02408934463804
1.10628609764711
0.994256197032048
1.07001385036326
0.993102331720472
1.03221017058238
0.986860678743115
1.05468170722694
1.03592077764888
1.00177413904887
0.94575494407083
1.04421363821781
0.95849144100898
1.05849086313877
0.918168885946761
1.00363994461908
0.992941351238728
1.09198868627711
0.986304199920149
0.993270748245628
0.986952585215562
0.980346930726875
0.956241059218679
1.00879246619826
0.999301965416031
1.01707464282427
0.977440559172367
0.997611082745806
0.971465295615548
0.989100761096812
0.95695270951248
0.977344825921975
0.966654406875377
0.991750960925864
0.955382234373868
0.994038379053906
0.930159338442654
0.918755913022408
0.917843855741509
0.953978815864425
0.973295445223191
0.915229880821705
0.898761192509751
0.946628333107635
0.897805910292633
0.933638734872088
0.918712696370214
0.907613300937452
0.920141423122077
0.899135997505098
0.907249550948704
0.915063875799215
0.868892131447409
0.920743982888336
0.867847254504209
0.916689103911491
0.885292214616032
0.902616862061666
0.863841169087032
0.87038978376191
0.847015402050947
0.88408325999139
0.837468940053595
0.879619984185238
0.836450950087654
0.859124824854847
0.828967500864286
0.858437372537313
0.838660586554607
0.879881806475094
0.836202072463913
0.848869652568815
0.81356260039738
0.873367947823164
0.794386326599094
0.837557420414303
0.837921855838096
0.806898118887013
0.810278225486918
0.813375751621454
0.797363748725865
0.822583955919764
0.793303338317763
0.803111594851635
0.774841088614396
0.790478293665999
0.729906917246318
0.754931508436484
0.764612934365776
0.780399277549501
0.755365389143672
0.791238126952795
0.745579209612691
0.760773709843642
0.762141597106472
0.751809457542676
0.710433060624854
0.761732145474674
0.743057767827647
0.719036505722584
0.719709577514344
0.725678642509752
0.703007924943795
0.727431906634862
0.705511836382152
0.718998647858276
0.692143922107585
0.714357378593654
0.701980268772089
0.703259529437192
0.675357516622704
0.70401628689425
0.684838189551541
0.672995039916215
0.647029692362524
0.689431000785885
0.66843202311272
0.665646559958117
0.654677839316523
0.673853328935416
0.656472526075436
0.670779445335227
0.650052994038434
0.646212508497607
0.638126627268131
0.645253832885738
0.618477753009156
0.62445267726429
0.615915013717087
0.643791211752505
0.633770060103653
0.635560425470568
0.613847186320205
0.607787066008192
0.596120834919644
0.606454938949448
0.598031768909948
0.597790231103261
0.57853799271693
0.602425783955676
0.568192073786137
0.584053630325962
0.576357132215757
0.591450438533854
0.585926555136415
0.573554343473528
0.567531848264926
0.569338007940814
0.556300845330694
0.547562716481427
0.542511296829857
0.55317492821658
0.551080010987926
0.554836748414185
0.53956158208136
0.537555877715049
0.536873067653888
0.547330373637819
0.530352325015032
0.530145218638592
0.520958076101085
0.522903286598015
0.500372059452166
0.503219625729548
0.505989150718525
0.507744492007152
0.513448915955972
0.52317912600488
0.50173874370413
0.511980875944056
0.482436892991232
0.495533694778279
0.494676019747755
0.4941468566908
0.479129772608382
0.483809561276442
0.475915609250024
0.47488245713437
0.458160215386619
0.471023788031497
0.466900322414338
0.46026696167585
0.457520840578487
0.455714564838173
0.455732623698893
0.461669626243516
0.451759332953827
0.454486915851145
0.441858694388192
0.446707319483897
0.447860740537905
0.445864671990787
0.435515833926052
0.429777367435265
0.423181564019663
0.434050878424022
0.422068945957853
0.432116584634533
0.42177495870423
0.423576550638987
0.410278211957192
0.421498277540974
0.407043840574749
0.407329235921555
0.400092627923129
0.398636880744483
0.40532387929876
0.41107470336659
0.406218473343398
0.397463119487129
0.38777953761165
0.401910970756048
0.387374234759067
0.389174209220722
0.385467351898181
0.389716679320958
0.377063119013316
0.386275411069301
0.367662835780137
0.363411388594995
0.36122640653414
0.37414409674988
0.365361702230941
0.37382761096726
0.361295000434827
0.368919358290627
0.359539990170616
0.347777507289364
0.352045650202262
0.359134923135111
0.350224443618442
0.347513447701846
0.341510273159627
0.348423663800571
0.340651826381634
0.345137634587897
0.333904535257005
0.336165536454046
0.341273951310828
0.337313043900251
0.32699052106501
0.336626408316827
0.325607746328938
0.329841386586665
0.314795011458573
0.323398948904974
0.317360455151285
0.31853563105865
0.317451122112285
0.324651278301025
0.315664784950924
0.312781835241233
0.309631392206556
0.304559924774275
0.303374654541576
0.306952398768041
0.300935800989914
0.301379740587502
0.29401336228585
0.29937090588156
0.299717224719314
0.301745232761499
0.292734281769506
0.286193832721651
0.287877797961578
0.29180278949131
0.284841843285275
0.288741987252412
0.282113663993007
0.281391976083479
0.277782240705851
0.281211541472336
0.274046160360115
0.276529529968698
0.272354142298182
0.27990091937535
0.274974915985235
0.274678752701694
0.273833343657893
0.266906812281728
0.262837121652755
0.273956220646773
0.266020814251509
0.265083606506594
0.264694524827715
0.269144066406616
0.254668616978007
0.25941949941307
0.25834433650467
0.267098907998805
0.260333224998357
0.259579577037153
0.255702398497338
0.260332850411217
0.255559741573936
0.257838858090014
0.256856190981276
0.263085333304475
0.264174859800598
0.260815159748518
0.261186499369942
0.265654550147093
0.257860942472512
0.261611955872863
0.256796416356054
0.260945139615234
0.263995103704561
0.267479564220922
0.267905261297417
0.263560943777425
0.258933138632611
0.268792667031714
0.262658227571061
0.265690597214625
0.270532075753924
0.27303357378011
0.267350032327057
0.277403373679955
0.286235671453994
0.286353145007841
0.274500888815454
0.278156960918568
0.282798513508031
0.284280486828219
0.292097036584987
0.298012989576135
0.290099672089351
0.299738279909509
0.292719098716224
0.304106339300075
0.300847299847494
0.292232835148044
0.302704053597227
0.304263327493666
0.296002765061946
0.308320552961052
0.305361035822327
0.314066289874565
0.314250903328998
0.312250993683182
0.317276887110511
0.317674681670277
0.320027401781939
0.327510470648861
0.327104892177488
0.328823231318271
0.333012711842508
0.340525288067867
0.339260311509618
0.347544610520987
0.341215318513605
0.344761699771418
0.35391321156682
0.35446090900939
0.349087983962675
0.359072097703462
0.353656579725978
0.364331150716653
0.365245794681585
0.370332911247994
0.366717803210038
0.373923046059222
0.378416411697619
0.387817176418037
0.380108158396734
0.375190565367129
0.374016627650968
0.380970985716375
0.380192006806256
0.38518731103248
0.382057957269578
0.383404497581308
0.388209903838595
0.388081915348925
0.378262086484891
0.383105786737553
0.385898309806193
0.383856565573693
0.379666142473333
0.377054546228149
0.374528070954755
0.376389764737999
0.373980987268702
0.381919364362482
0.374536404469043
0.375588415115403
0.369328222922679
0.373073246391096
0.375852530564853
0.379512419945118
0.379477877126219
0.374517110881717
0.376289244154464
0.3831227962963
0.376638576002456
0.378049590678373
0.377117445859569
0.372203558283704
0.378143265911684
0.383227743803315
0.377998815073175
0.377664428527907
0.37611110047409
0.384618491469961
0.375791510279444
0.369599500801055
0.370024520098947
0.373380899719305
0.370752015249006
0.374139936965964
0.371055795596321
0.374739338102218
0.376285098938961
0.375370719138865
0.367902423973805
0.372967668237121
0.376289155787131
0.369490354600951
0.365783183057481
0.362180606457011
0.367378364571102
0.375270970554564
0.369625221017907
0.359591468611994
0.357502838925238
0.360426205460346
0.360183059323554
0.35920333517675
0.351713554177179
0.357260297233462
0.353056601689147
0.344143777689537
0.33710467994977
0.343911478643073
0.340384073987674
0.340449735024992
0.338886468059305
0.334315444372752
0.330711218190235
0.327425396791602
0.320815573615342
0.317822124383855
0.316381956546895
0.316927869987861
0.31752865191202
0.312825608762876
0.305354926063198
0.304746665547725
0.304428073959707
0.299905035936047
0.294587887350079
0.290442555271932
0.285386248855821
0.285831544559209
0.28187698285495
0.281245290639897
0.277084447353809
0.275116828125076
0.275352452061267
0.269324303537327
0.268815270813981
0.264580915367218
0.262843128716388
0.263467425994108
0.252105200248622
0.255431125701548
0.256834255089029
0.257864832700752
0.250683815924403
0.250311544123136
0.247658240261015
0.246911513845544
0.24370172570824
0.242661813256787
0.247178041603001
0.242739955381421
0.233671560354689
0.239174534752427
0.238350448526435
0.235029583181418
0.230064229449148
0.231395547714586
0.22753277590411
0.230048728728623
0.224872874078675
0.231172567399585
0.226816743123444
0.22364919814236
0.230143421225607
0.223490111897728
0.214834609571601
0.223545239886066
0.220195182448163
0.215941121220472
0.218021061594623
0.218324348523383
0.214665302129099
0.220454353046579
0.209718387396417
0.208522900917241
0.211081545699723
0.208722199658329
0.208072108266577
0.207198589620888
0.210909229656551
0.211308209942083
0.200503033378379
0.197997176742451
0.195216647663204
0.19728703156247
0.202070538263558
0.20181391426866
0.199131243643728
0.20188207366244
0.201843948402709
0.198915454916559
0.193323533331724
0.198552892978856
0.192455750523355
0.195323108774352
0.195900050620318
0.188930254670325
0.194423157994557
0.192714465795568
0.182266478694635
0.186455970656949
0.18728235125841
0.188501667410762
0.191577402339284
0.188659537200661
0.186557020362474
0.188700943951123
0.183513680260275
0.181919961850538
0.181747475685804
0.183042158477782
0.181331408845909
0.180777143799437
0.179637211991307
0.175227943477268
0.180842023795828
0.180431818381685
0.178812702774602
0.182511663242491
0.181131114960639
0.174585728365731
0.171976764890994
0.169038509086322
0.172392785052276
0.173930395763435
0.176616437320055
0.170558176909934
0.174811583564473
0.174034770119482
0.17456195932033
0.172191864156174
0.175756049893116
0.169533425135776
0.170981799207183
0.171581592211174
0.16974534888489
0.173128298747891
0.170625786833506
0.163522283066136
0.164221263282837
0.165679883493765
0.16365693662663
0.170297949242388
0.166056249318787
0.1673960651963
0.17068310573218
0.172794999472744
0.170823851895616
0.163092661299986
0.165003786762647
0.159297806293976
0.162742564732667
0.159663980392198
0.165185955691704
0.159457011136078
0.162065464923464
0.163438396333959
0.160454446709413
0.161429074423882
0.160380281349042
0.161835874043072
0.156652663052473
0.165753177441032
0.159363416707779
0.162518272712658
0.159174951307569
0.160629016916226
0.159400756540665
0.159702597332858
0.15540862830878
0.160163823991606
0.156788060194642
0.158981818942377
0.158026785582746
0.15716360553962
0.152870307554901
0.152906819187507
0.156304329241362
0.153951559080858
0.151917969694073
0.154250617106816
0.150006888468421
0.150388673079294
0.151157423095238
0.158548857455989
0.15281743232389
0.149828417231427
0.151121887386175
0.149307410326085
0.147910083750141
0.144468840002954
0.147043552264697
0.147553887311816
0.147804252960062
0.147842821753206
0.148189626299519
0.144757388912962
0.141291128266184
0.146698494038418
0.140618750544491
0.149025247364358
0.143919089113331
0.142151335380632
0.139036928468565
0.147382264414759
0.144168191434115
0.140616312632253
0.136370322808057
0.139974108077822
0.136696828246716
0.142939286266948
0.138239772892737
0.14058573215539
0.136953807612763
0.135911977281298
0.138453406085609
0.139598701512452
0.135032313437536
0.138018764133947
0.136684906028949
0.133698292035101
0.137067593085005
0.137025065656147
0.131293552127077
0.132624407423269
0.133612754126618
0.131422549689148
0.127696292263511
0.13084527584956
0.127978982255753
0.129060657029821
0.129665119163117
0.125793726609704
0.123189141040314
0.126372113579371
0.120159896155016
0.124053388625924
0.126759918424504
0.125715682164357
0.125798243081175
0.118319503538079
0.122294808533365
0.118361145698919
0.128215034968045
0.113907953820172
0.121621145927004
0.122923618619932
0.119466560115235
0.118803418861687
0.112252093486795
0.120071973036926
0.119866449240869
0.113772099405476
0.114680211044931
0.115927400919944
0.111866020906975
0.112096840784176
0.106741479940856
0.113775334947259
0.115261769101227
0.110935435738357
0.113643524000061
0.109147025862133
0.108097803181672
0.108585828522132
0.10744217077885
0.108946000546314
0.106752597993761
0.10862520064592
0.107309881094901
0.11071018317779
0.110798483723256
0.105707937369167
0.101375347443034
0.10124065360328
0.103840582021321
0.100243061635532
0.103071209729972
0.106230708529158
0.106371913974972
0.0995184068759057
0.10303564855336
0.101479824415894
0.097231859153404
0.102306083206565
0.0995606839403829
0.0992299455921507
0.0956821696027301
0.0993494477927219
0.0935407169747389
0.0959835980690337
0.0959532701632597
0.0955820070842884
0.0957612715886128
0.0992920556926133
0.0999574372402222
0.0955723934022466
0.0950627286417013
0.0922814337126293
0.0937369163497429
0.0949118696678064
0.093127797904145
0.095521505150544
0.0931950685559862
0.0950659103807825
0.093149934148481
0.094669557842909
0.0927518714240161
0.0866791964386915
0.0954970179943311
0.0929604720374567
0.0915663154058648
0.0894173396306163
0.0904571967849398
0.0885268893027654
0.0876727066536547
0.0922030238778291
0.0859401442222798
0.0877766536896331
0.091394366761846
0.0860624866991826
0.0869455749496263
0.0836944723452931
0.0877838538088787
0.0839020151006157
0.0912817679929134
0.0876958519099842
0.0890713751466685
0.0866274266990665
0.0878892658109489
0.0831348114608428
0.0851383270798006
0.0889597167145389
0.0848364807490879
0.0861486418753674
0.0842671787401088
0.0883876916259908
0.0832783482108651
0.0834715144109645
0.0822797457101283
0.0810214855819504
0.0838989128530852
0.0782317330563773
0.0838304096057797
0.0803937684456839
0.0825369330033474
0.0843288435089265
0.0829638397914976
0.0818453284101439
0.0813291288507959
0.081768743979508
0.0848909689869024
0.0800087890098238
0.0814552029653478
0.0819532529813656
0.0792294021727473
0.0777368248827868
0.0785675235521659
0.0794246571302284
0.0808406332192662
0.0809073190568649
0.0772707857994785
0.0792622159156456
0.0813540753710296
0.0786175430281603
0.0770847047197842
0.0825929311079611
0.0775197272382628
0.0757960041312799
0.0776043853259587
0.08033213995269
0.0785304677289515
0.0756546523314539
0.0761302865691374
0.0770517144034924
0.0742033309033309
0.0744888056830998
0.0759235966925971
0.076285424030974
0.0805116913502771
0.0721524827240724
0.0761704051927178
0.0742325123602412
0.0766853946944521
0.0673558358299462
0.0760151581622885
0.0747902240728585
0.0734680941793555
0.0737746469130221
0.0739697386539475
0.0704113661459037
0.0743781473507063
0.0694278232280732
0.074353842901052
0.0697984478925577
0.0738135451977478
0.0770667563385376
0.0720383800348141
0.0738851830559476
0.0745430378184348
0.0735521443756143
0.071139378775859
0.0713662222440705
0.0677184637221932
0.0689430420099754
0.0704068220557605
0.0760198020958506
0.0698986132915082
0.069002307883098
0.0728444331196265
0.0669359784819348
0.0702469643677813
0.0692044602006642
0.0704497081098022
0.062975437210031
0.0664957821325527
0.0665342386122619
0.0696800420824308
0.0710245451786593
0.0661475614353389
0.0721656790230192
0.0665330673230148
0.0672009378912336
0.0672340055851571
0.0668993879013795
0.0643188369123852
0.0672937507759883
0.0676748086195377
0.0640816508930553
0.0622160826207794
0.0630359597816399
0.0647121001366349
0.0667045767023459
0.0648736085689157
0.0628504029874499
0.0650113710291986
0.0606437190306267
0.0637185747374763
0.0585070141749196
0.062924165844167
0.0617751324140988
0.0633372489028106
0.0602229632312577
0.0617306725815922
0.0622947057112808
0.0606919136714751
0.0610912975074042
0.0552628957624324
0.0591325443298714
0.0606425757801286
0.0615279076098016
0.060406857836562
0.0589111924219928
0.060082895179299
0.0582703739155992
0.0590502647592916
0.060358138471607
0.0592353251061611
0.0553271155963514
0.0561930538922379
0.0538617301764545
0.0588608382849557
0.0578324598482284
0.0537503552555818
0.0531835694239054
0.0566052719515129
0.0536899398805434
0.0572040980773035
0.0550551736228873
0.0532365833900519
0.0549235298707953
0.0562864266741213
0.0522285412994059
0.0534718222019155
0.0518508754195714
0.056558185573403
0.0529744224604585
0.0515230459756513
0.0527033290492233
0.0544909916016427
0.055582570147665
0.0526642885809832
0.0495734302169787
0.0542315750021144
0.0511752286302778
0.0506324450638017
0.05291516163338
0.0542167848484872
0.0512750730628516
0.0511711152758681
0.0500629646979515
0.0508137338505717
0.048326268786315
0.050555578219019
0.0472775235047242
0.0498759812612295
0.0494703558125032
0.048107320124871
0.0457622108066316
0.0486398094959057
0.0459012844698187
0.0523849668782375
0.046877266815934
0.047862770168656
0.046357199356601
0.0475480111525825
0.0473252647739196
0.0497599361628013
0.0469058289430689
0.0468339678176517
0.0470423932155161
0.0479853201036589
0.048395315937352
0.0436230087775752
0.0463721097147213
0.0464907111989388
0.046359081545643
0.0458637395752347
0.0421367328896855
0.0477266192692274
0.0459712581283188
0.0468806796326341
0.0457777110995723
0.0461478314449271
0.0411139947859295
0.0455797370968115
0.0449244167968962
0.045475398461493
0.0433189432437294
0.0459420329556014
0.0409855815838941
0.0494073683154102
0.0429917302110167
0.0428545842284887
0.041068475730175
0.0421539930327129
0.0446600951166223
0.0404723985431148
0.0414678992858965
0.041681803712684
0.0383441044978212
0.04157935589011
0.0414284875875777
0.0450795743855266
0.0402801623275546
0.0390056212592124
0.0353472530075065
0.039735064668293
0.0413864562635193
0.0444803700262322
0.042815711944914
0.0402682524886697
0.0441259385651722
0.0464414872266729
0.0387778058600858
0.0439345837228627
0.0393883185287788
0.0460184153928379
0.0406625707686496
0.0477557094997864
0.0392973581192347
0.0483234587017691
0.0399690115570531
0.0453796952960322
0.0394351362290519
0.0386794260241315
0.0373941955534211
0.0402452473508445
0.0408847044537477
0.0399216382309726
0.0392858332175301
0.0382702927879591
0.0340874540468957
0.0425581752069384
0.0431398055221107
0.0421568195208132
0.0382840429845518
0.0432771367708384
0.043193012782209
0.0434686059533528
0.0427495393281192
0.0364660326826874
0.0405197434390825
0.0391226098789114
0.0432005949624388
0.0387697436480245
0.0499840155649265
0.0351167389521699
0.0435102577664633
0.0306801131635263
0.0502525543405435
0.0333323184556628
0.0528057607613342
0.0293800103365475
0.0494750790655731
0.0319742859086229
0.0486629054076471
0.028782928208861
0.0453782364361587
0.0346940611783475
0.0449227022440784
0.031158866983351
0.0461785067836297
0.0385921920308389
0.0422695016945232
0.0401405064666761
0.0371788311146282
0.0401077560885436
0.0355861686080712
0.0422194196405399
0.0366483921653412
0.0386562137192597
0.0391716369663648
0.0395623159508925
0.0378464011119202
0.0342017376484998
0.0353788234867574
0.0359087434546527
0.0389709031065332
0.0386395139415467
0.0373290983793879
0.0379076368077198
0.0390429793561763
0.0349407035255122
0.040036412829494
0.0377679502862509
0.0381842888627348
0.0372554736423282
0.03923223987998
0.0362682840042887
0.0345042715644595
0.0403746461619077
0.0394568589637995
0.0363454041129695
0.0381461717997979
0.0350471400525937
0.0389394072906584
0.0362765552728517
0.0408430931430242
0.0366823666985978
0.0379444637943472
0.0376428601089686
0.0367982026274128
0.0379570452606725
0.0381064747608129
0.0357034130867182
0.0359137156580124
0.0384559211265457
0.0385095226707882
0.0385026466789843
0.0369571552772796
0.0365655903772973
0.0409055278206108
0.0356597298057009
0.0357239392293838
0.0370929202613119
0.0373806066061202
0.0367290181255135
0.0384853650380412
0.0364797145956925
0.0403653937846985
0.0409774196519524
0.0341406835739089
0.0385939299679259
0.0365563057590246
0.0396387016989322
0.0370272203522755
0.0365462837072528
0.0396378602728007
0.0365763229235911
0.0346636188140406
0.0342334276911676
0.0391593726304502
0.0388670679924864
0.0371690663469603
0.0359107188004288
0.0356513093301662
0.0377059525957325
0.0351175004680495
0.0357240594846946
0.037698004999776
0.0384480001914349
0.0365302413317561
0.0388360901989681
0.0395888379150219
0.0376766485997583
0.0374589368525961
0.0354083249067576
0.0360449100873359
0.038923280926987
0.0392782126312813
0.0383002322802208
0.0386546116215929
0.0353638715224503
0.0372521532395757
0.0359650436821652
0.0376099115374492
0.0377206294076132
0.0362338070828978
0.0387619016671022
0.0380206595435388
0.0380639919401014
0.0400026108940239
0.0387126607220839
0.0375032564827472
0.0373543346952998
0.040586890624439
0.0394422192354364
0.0388075821875478
0.0376368427055713
0.036601587035526
0.0384963805987267
0.0373711370211138
0.0399182639692036
0.0405154113157346
0.0367453927206156
0.0381856927162862
0.0385485966131243
0.0384583225875369
0.0399999924747406
0.039192205777414
0.0399995017207191
0.035974258696764
0.03928726861689
0.0378504372608463
0.0385977685278707
0.0378838666099501
0.0393184062193377
0.0413530825990265
0.0391120134712796
0.0391467849763815
0.0416371126726517
0.0397347179607161
0.0399802331691134
0.0377459791231869
0.0373647286969785
0.0359943879887456
0.0402568042589828
0.0377407707839156
0.036789330682192
0.040197520445577
0.0410750593286983
0.039592340894838
0.0345133214763889
0.0400319213047978
0.0425424396707691
0.0405720749634045
0.0400547546653419
0.0411504264893369
0.0417975737853988
0.0385018086370548
0.0408796306141689
0.0358180517319022
0.0387008506704341
0.0396978362758953
0.0391681911359742
0.0382671941010345
0.0406248204903375
0.0398112026991798
0.0408968198522846
0.0397678315613938
0.0416150897148514
0.038012542004718
0.0424422163560901
0.0411558153696422
0.0414641944230304
0.0397934782194579
0.0414361125620539
0.0406081721663655
0.0444498802792597
0.0403598812731308
0.0403563909105327
0.0433995863220866
0.0409974361241371
0.0403506238904597
0.0448706929886232
0.0414980741438572
0.0426082394709695
0.0415159027971975
0.0408484160381777
0.0409828426714013
0.0423188601119679
0.0407096143006699
0.042018454232363
0.0402800419134623
0.0401910525160472
0.0359863226076298
0.0408118676981424
0.040075783842066
0.0406381756517863
0.0404328580545854
0.0423043528495206
0.0404250066733201
0.0424173430603709
0.0409670271981399
0.0402639726495035
0.039705311625606
0.0399479322427302
0.0382943336162183
0.0409067916424474
0.0375144125379353
0.0392551150295613
0.0384207968607371
0.0418906983936407
0.0392714345025351
0.0382903963878212
0.0386447936547227
0.0373223247083395
0.0395705239498465
0.037313653597209
0.0398132012641576
0.0399374322499481
0.0382007090645186
0.0389360050854147
0.0398273718611066
0.0370443035658587
0.0366600279385129
0.0382710100254048
0.0417650289794074
0.0400734701479547
0.0352522039895896
0.0373837232356218
0.036318040165166
0.0382959598929209
0.0394991209239681
0.0416161216861357
0.0366364497340402
0.0372881697837866
0.0367119790212301
0.0389529813506802
0.0375177158370716
0.0392824945223296
0.0377400194798517
0.0375642059227703
0.0374052038624583
0.0414685602325804
0.0377630650393848
0.0380114708514225
0.0382801391007724
0.0352652475919665
0.0364741606931002
0.0369236373710113
0.0366282935259992
0.0371107714122704
0.035877445887064
0.0391347411602072
0.0379963645497643
0.0379286923406969
0.0371423352057639
0.0384074049520926
0.0355612935503723
0.0377275635762291
0.0383987259584301
0.0375228348695073
0.0374304833388011
0.0385338316850977
0.0371306760528909
0.0363146008567055
0.0361134891712878
0.0391321738771633
0.0390905727296412
0.0399630096168091
0.036860501633137
0.0364351104321079
0.0363590822609968
0.0398427424055728
0.0366862247137376
0.0348667990654857
0.0333971534072735
0.0380054403422477
0.036070600708058
0.0384764594353203
0.0377616703664468
0.0371443145974655
0.0350690112492151
0.0356965543765638
0.0354508425974328
0.0381266026187442
0.0353990513357582
0.0368171728489417
0.038436111052761
0.0370928479259166
0.0380981119932238
0.037885432899375
0.0372207176162472
0.0370257317368242
0.0359811445402744
0.0356102783887611
0.0364024714338331
0.0372403140483206
0.0366231529636322
0.0366249067429907
0.0351855976566441
0.037834181821599
0.0342495620642573
0.0375851617117378
0.0338719326700568
0.0382040201516765
0.0359710425768114
0.0359292066018303
0.0346504890955118
0.0330982539045911
0.0350509123261143
0.0364933936881991
0.034861618782707
0.0329876627483831
0.0347125517366786
0.0355975990819546
0.0339800735190545
0.0371356644162306
0.0342330692585355
0.0336357232350637
0.0335914656720349
0.0345480192723189
0.03488286230666
0.0346819874801225
0.0332764301331479
0.0345095186293448
0.0341431962222815
0.0355140748091642
0.0297928754955975
0.0366865309102148
0.0353012476521031
0.0351668896979515
0.0326588784743217
0.0342438046801585
0.0318138509298886
0.0307517063721443
0.0329218926637402
0.0331850501530808
0.031329966206569
0.0322402997758558
0.0327743773364562
0.0335138373625786
0.0317136094047323
0.031341963158694
0.0317426449553565
0.0328747014160485
0.0298019208543611
0.0314458133524995
0.032820576884084
0.0328375494198359
0.0309660562922147
0.0335888486749997
0.0313393254497946
0.033170003921498
0.032785928041596
0.0278880905346517
0.0322819050862063
0.0305710817217237
0.0304893208142455
0.0307262953239856
0.0330116926657467
0.0307693128443907
0.0304419671573967
0.0276347542255654
0.0310328943782492
0.0326344119623887
0.027030528817505
0.0297338400962006
0.0288578793110302
0.0298568037683641
0.0304363435263214
0.0287980444346274
0.0294302737416415
0.0309967454834166
0.029503030004995
0.0283736770561111
0.0305211425892675
0.0300534186150717
0.0286687088346943
0.0284489403007168
0.026464667848164
0.0277199178997596
0.0310271894990556
0.0295443474404023
0.0269865012948967
0.0287959728909639
0.0308052648693885
0.0311566972358232
0.0285317436809468
0.0317882258454687
0.0295989892062681
0.0295181620009843
0.0288988546235288
0.031135163309475
0.0268778091988396
0.0276174998277247
0.0293096361000782
0.031191354656552
0.0328042622231255
0.0308340247595587
0.0272645570707098
0.028338134722185
0.0288146449202522
0.0304256462344011
0.0278964323034597
0.0243435055162229
0.0279968685493237
0.0293047636810344
0.0213961536317514
0.0356452922408038
0.0292592770836175
0.0295072915517211
0.0270758908927504
0.0287344573715608
0.0259770956138183
0.0278884089067208
0.0264387570070464
0.0288546124533375
0.028758995020728
0.0279407643652512
0.0245144014070606
0.0262412795656478
0.0254234166705156
0.0267903974127732
0.0276168670362929
0.0297129959383496
0.0249437556844264
0.0288685979127403
0.0268109883901097
0.0258244058600462
0.0284489798844817
0.0297536310587849
0.0245050656108058
0.0309247252451865
0.0173682328342906
0.0344279958027551
0.0335684206889527
0.0291535517531722
0.0251934919340397
0.0261919474653262
0.0293810225907876
0.0256478309656802
0.0286034818608295
0.0257190673208328
0.0317546181677101
0.0258489327498672
0.0283957692384709
0.0252646513564776
0.0247967566193405
0.0261895962314986
0.0254531605407268
0.0276206135971722
0.0275377020345542
0.0287736456797741
0.0291834771303684
0.0278676324114601
0.0250014388179087
0.0278799293990567
0.0246668577849397
0.0242763132061357
0.0292843825588599
0.0269815375560326
0.0268699817146419
0.0275179790721956
0.0260825237969602
0.0198777084585509
0.0370330566330374
0.0291671825053882
0.0316426347020098
0.02699589052417
0.0277817800625144
0.0273626275691215
0.0248539338303521
0.0253595311633904
0.0281075661302702
0.0276191734704242
0.0251276137440378
0.0258571478319484
0.0273177167389516
0.028372296679141
0.0280478997296566
0.0303841672979715
0.0276272595206403
0.0299399350756948
0.0262324951368296
0.0303254199210898
0.0245231785951626
0.0226992356317871
0.0315471751396758
0.0273047891143078
0.0275407604063058
0.0245484725930057
0.0296136178822194
0.0257372429388038
0.0286314423896711
0.0237733387878397
0.0264433517517036
0.0262523060231462
0.027573265459019
0.0275040713201838
0.0301600000250796
0.0249945439525989
0.0294814628644993
0.0247889313341016
0.0249624420013916
0.0244377019386074
0.0287520175176508
0.0262314067637669
0.0301103761924997
0.0211532581703208
0.0318222961948964
0.0274998624160438
0.0287933423953114
0.0143012255259915
0.0238332320784575
0.0459887384695249
0.0213103462074046
0.0324257683570237
0.0262557475439468
0.0298084837520092
0.0264555208332154
0.0264893207634965
0.0288893786924271
0.0302459060571298
0.0251053421722518
0.0269722195365902
0.026505808004211
0.030425996614794
0.0237548034180801
0.0207726177856323
0.0396655883104086
0.0292976040961707
0.0270021417488501
0.0310264733594805
0.0201080720670153
0.0394939078842245
0.025736322324503
0.0264954440230301
0.0304244090136878
0.0302732640794346
0.0297259382016764
0.0307170693980189
0.0269766774425447
0.02933706874296
0.0318965123667895
0.0241278843497196
0.027921708342364
0.0265099489971965
0.0283282331741452
0.0262598221259417
0.0264610775599794
0.0381365089981857
0.0311373433639968
0.0326594403423538
0.0341003560639763
0.0279398048034034
0.0310865130308026
0.0324967150981608
0.0260595282664397
0.0240784341901466
0.03622453503678
0.0264884345608134
0.028736970200692
0.0361562780714564
0.0316677326965598
0.0327614198849285
0.0305725898838041
0.0337709322242756
0.0314448809639126
0.0141745525778483
0.0438658739314437
0.0289915615179552
0.0446232652245527
0.0312099926160735
0.0348208675791161
0.0283735549957282
0.0360206510884402
0.0263729142281366
0.0385052771762867
0.0361567474602872
0.0329356731313286
0.0311490566038503
0.0242111487667387
0.0359208857643969
0.0338121957921435
0.0366305938726606
0.0320659288831259
0.0321893976293822
0.0356593316170645
0.0406987364403965
0.0176410574197982
0.0395681394339033
0.0397483787383236
0.0387039848245223
0.0406874373880296
0.0214394284502547
0.0446825991499539
0.0410722718957638
0.0341766764275342
0.0365598846434454
0.035851377360234
0.0377973486649998
0.0242690459514464
0.0444136872468605
0.0393987544655108
0.0338677561869944
0.0439970596445265
0.0296939787543824
0.0393022296942756
0.0459315866411612
0.039273841376642
0.0390576561699179
0.0414725919220622
0.0279147278181291
0.0351751129093346
0.0554957308589167
0.0275531491585597
0.0541096863077116
0.0383694590077422
0.0483385580917001
0.0406567237679116
0.0452203021938923
0.0369358615994533
0.0525988971783016
0.04614587282452
0.0431850675574265
0.0352140402597606
0.0619586987749566
0.0419607005514325
0.0505028289547948
0.0487150451051391
0.0356636140436357
0.0341219646056275
0.0709825604419192
0.0597591000293803
0.0601778371046666
0.0456913794481303
0.0545520015805129
0.0597277018564193
0.0571928470756012
0.0557389027825941
0.0559774852072383
0.0569605337369056
0.0544933836570427
0.058381190737596
0.0610770495144647
0.060224645725033
0.0660774076039761
0.0495982504758622
0.0577810093223969
0.06386946674352
0.0832624475123405
0.0569518257856202
0.0695600855045187
0.0797575812270167
0.0710686284769684
0.0714006021930923
0.0676549165150283
0.0703425552714421
0.0716359599905975
0.0741596736557388
0.0704861899667526
0.0756765146517445
0.0835775821097426
0.0695946916335841
0.0946807831320687
0.0761225469488385
0.0810736212192742
0.0356671736675985
0.128527773335374
0.10126182188022
0.0839031792772329
0.0952715614794651
0.0592246460318433
0.127338620040313
0.109125330115064
0.106928471346219
0.112297961227787
0.112330028927004
0.113885311302426
0.126976284323991
0.123031935778291
0.131256501615451
0.136266879536186
0.132171211645746
0.116709006984792
0.153064962860373
0.163024143530474
0.167652786237539
0.155065826934781
0.167033183198851
0.176676135554513
0.169706708607165
0.170433031872627
0.182869852178011
0.161853190497118
0.222532707536464
0.198072862118114
0.202307065019984
0.199190180893416
0.216520299174687
0.207533355185131
0.224953862124933
0.248534091296148
0.22806065943362
0.237938355634013
0.235815762238925
0.251874567670534
0.236630869563951
0.267253955376325
0.267112746297499
0.255539157699483
0.265282369733026
0.266421466184111
0.270071229086766
0.270046629218468
0.278575719912251
0.270066381994979
0.288831204071432
0.304196202302643
0.344025452682573
0.301524466598278
0.275005396095015
0.291379939165424
0.272379909247801
0.288977786109567
0.289022075312932
0.293720505594089
0.307614894877419
0.283956801338611
0.295943131830075
0.29503046480238
0.299297528012072
0.293147273073903
0.286786266800094
0.279767483042102
0.281787156992734
0.292531157271009
0.272922791175885
0.326631644446289
0.291133714403737
0.29483129891607
0.283099190177633
0.280839359990423
0.28195378075256
0.279524092956959
0.273286730894431
0.298466472465916
0.284710938337335
0.277854878068836
0.272296815544806
0.280029627982595
0.294036635650281
0.271897312607944
0.268724403317028
0.264942010133805
0.260527484137447
0.259397965301294
0.252838084859255
0.289412926849738
0.257002199509549
0.250006256758332
0.256159923840251
0.256317372126359
0.248709191714565
0.248593678102164
0.250182507753669
0.251701962227884
0.24629342905253
0.251246665905707
0.251724635026104
0.243349473185421
0.238540799006878
0.24028434520323
0.24897752561935
0.239373787392275
0.236737185252766
0.237467986832192
0.242562096953934
0.241993854359149
0.243344616276878
0.236708549385314
0.236968778897813
0.237558479095507
0.239116800722763
0.231844813515721
0.23502770173129
0.241810502192759
0.230575698530249
0.229158057762734
0.234499485436211
0.232249329336739
0.232301940285376
0.229738012702196
0.231134760814757
0.22773163169236
0.228694177985841
0.227311551897209
0.225908837077667
0.226938681072632
0.226204483544865
0.207059976494264
0.243942234830569
0.237595322964083
0.20699648253876
0.220445525779191
0.209689737673264
0.212639773362017
0.202397480357341
0.213557578401896
0.223788818871754
0.202668589964794
0.203337129597905
0.204145120143828
0.203015048000977
0.207261705666327
0.194460005802064
0.191503318391305
0.190708299477072
0.181875594097093
0.200806739500172
0.16807602830459
0.22853378180754
0.194113508664651
0.183438430003925
0.173829137083668
0.20463798871464
0.186569627207162
0.183939059670937
0.185264378540309
0.181042913385576
0.190019764866956
0.179898683327529
0.179618344726462
0.175145582935899
0.177438014147156
0.192436290996525
0.172845813754706
0.16503064812094
0.18691078257883
0.173604345945928
0.164423327195202
0.19555262002583
0.183000344443617
0.168014014588668
0.161886253052806
0.158044854220782
0.146300248668136
0.162758914568181
0.165651308465732
0.158580084854688
0.160837613014442
0.154595678252977
0.157888310204898
0.153300868519214
0.159445236324483
0.139093466585573
0.158128714752048
0.148843743721348
0.138409499732881
0.151887889494693
0.141480013452745
0.172200438092005
0.145442167385269
0.139341455668953
0.134100345920861
0.157781280876669
0.145495349813415
0.144624506635288
0.138933645943555
0.130313422790822
0.146801376269547
0.134529736637922
0.13147918597607
0.140194243726316
0.115633340889315
0.122938206211677
0.142302922524352
0.151841909229862
0.140842267094455
0.130108063101936
0.130913389406655
0.135863809028018
0.137752419310714
0.1314430532325
0.117829364023044
0.145878715499429
0.123893117203107
0.156712529621754
0.143850892039131
0.138038022594178
0.139436739914974
0.145482638440832
0.138503202248443
0.145922373331877
0.149923459382872
0.152084566817352
0.143466902045001
0.162358929939293
0.157056745221118
0.160529372179921
0.163293405232366
0.165850848025046
0.164215179651876
0.172995125658577
0.178147330096936
0.17449284279506
0.176805365703854
0.184470287398742
0.184498350991296
0.205282107799749
0.190887797920228
0.194347554045736
0.216251256785635
0.216009071007623
0.228490997638258
0.218604317275116
0.225110150568927
0.229433390158385
0.231482283382311
0.233813364046931
0.232148763829962
0.252106188355465
0.246187836964764
0.246846312181306
0.255149224978146
0.252561759300489
0.251453692278513
0.257400799364907
0.271465284793833
0.268559138768055
0.284650267593731
0.264392700976552
0.274210352869503
0.267259242724142
0.268838005987513
0.275052384268769
0.273421370616467
0.280556820929165
0.268873626148954
0.289541829880421
0.283170873946457
0.28182224662507
0.291445199280466
0.283390792210866
0.286239924529732
0.285735573716793
0.283921842485865
0.289959747174679
0.299115380937005
0.299027769970217
0.295957564824827
0.332456013113598
0.316095855369396
0.304086907367501
0.31452335588196
0.313402193555132
0.316550955769387
0.319111260815347
0.321223632420315
0.329050649853669
0.323973900174818
0.331522316336364
0.328631922139207
0.32892875762617
0.330658589500824
0.342589345219753
0.344539040432058
0.340064470654806
0.335353777557612
0.341376443217748
0.370218106643048
0.35038969577271
0.347258428601385
0.353717912406246
0.347923262411774
0.35506915114692
0.350352271081761
0.355080201624796
0.353687466519545
0.351239598456425
0.356837737751628
0.359763174417811
0.353256864239378
0.352496354616035
0.350640121627058
0.352558213761977
0.352401103364023
0.344741497740748
0.354009926842868
0.354462217072084
0.344067256001895
0.35515642763479
0.355132920429297
0.34969718335787
0.345536286120808
0.352423300098861
0.36980303758211
0.352762183326191
0.347304202917568
0.348221865476291
0.348673797344109
0.34963420514808
0.347541818785924
0.342969261959261
0.371141834839909
0.357842188460123
0.353253962936168
0.362925250266892
0.365555273180265
0.367317227708022
0.365615231018714
0.369048854123161
0.369703340378676
0.368188409970616
0.361973433275931
0.361844079860527
0.36204982247942
0.366862912393459
0.369959602716842
0.377559741259791
0.366954221877403
0.365576201109566
0.364728811366442
0.359474329582043
0.359424105413525
0.352451828670284
0.351904439414493
0.352261464230247
0.347495213640775
0.343690998195933
0.341515743911377
0.340002200761446
0.329691462561251
0.332674984791663
0.326692348096029
0.329747691708868
0.32040600250682
0.319373008458527
0.323458030936123
0.321897893663279
0.31894677005359
0.315792376831809
0.307402042620428
0.316834779751787
0.313832603386968
0.308264709116794
0.310653700520964
0.307742710193651
0.306233687206455
0.304434647856388
0.310863732170244
0.309380173900781
0.300628407336894
0.305650200423384
0.306993160908499
0.307245952921442
0.308467666212416
0.309638376688403
0.305647436652947
0.307239816660684
0.30273749413289
0.303766713727585
0.307076423509662
0.302471396687231
0.303107520282431
0.304234034947784
0.306525413877231
0.301575264797185
0.301531145700767
0.307632401332482
0.302365943237638
0.30350612228749
0.298959396118189
0.305678956111215
0.301069926956253
0.299816853737074
0.30540787032753
0.301445053526281
0.301875675934929
0.302928435987591
0.299203148345155
0.297295520221124
0.299696569175302
0.296270177484454
0.302303153442828
0.30211333510996
0.299345143786258
0.298727487093023
0.294401317476233
0.301801783573956
0.301246416007996
0.297206759375107
0.297754241477755
0.296960345884721
0.295138529352784
0.293375330713354
0.287366155987005
0.286068508576128
0.289504822372832
0.284247025655047
0.280378088599694
0.277269865263666
0.28169819515301
0.272516180845367
0.26779017325616
0.269154512986527
0.267732659663032
0.267957600441608
0.262380507487385
0.258698998968319
0.261289773480944
0.257977833760716
0.259401027292458
0.257511544228235
0.257589962430603
0.257067089651911
0.254306705444802
0.255042592445324
0.254083137489908
0.255065925826403
0.250913526791268
0.257046424288264
0.25867035180736
0.260442370613514
0.258205171861526
0.259773483044901
0.258692936158678
0.255786858996431
0.266547166991421
0.263941629385381
0.260794211766151
0.267718323440215
0.265412879345667
0.269028360147113
0.269743797568065
0.27331631543232
0.274682527657162
0.26938828780066
0.272940331069276
0.273605259065151
0.277304000705513
0.275156145029438
0.277276243911171
0.276937756227376
0.273827617150329
0.275062721004729
0.276414447994111
0.27351559088392
0.275642504886012
0.276165051002243
0.27418046562225
0.270469066244136
0.270743101490174
0.272253932932155
0.269562287382159
0.269334120358422
0.269623909135835
0.26792074064346
0.263711271560238
0.266926582758091
0.264435241227477
0.265528093591598
0.259279395753607
0.261382677238185
0.258557441202007
0.259665571708097
0.257459104670186
0.259936615058607
0.25920790538032
0.256752337432384
0.255518119968911
0.254397002771095
0.252408778266157
0.253123170510496
0.254302859649962
0.251448956015709
0.251561313399613
0.251707626666141
0.246900837114868
0.251283785470123
0.25025917749142
0.24847113816842
0.244971463264808
0.246190143368016
0.245216516882144
0.243465505767363
0.243611239175046
0.238446167720834
0.239793670359215
0.239058844087375
0.234424541754693
0.232639533403915
0.230598296887589
0.231603675244798
0.227144383375451
0.225617129876081
0.223959487690737
0.224879414723825
0.222488234448093
0.221364628640995
0.220677549102005
0.220426349461994
0.226079500220129
0.223190199281527
0.219359956694423
0.218985323760606
0.221049318341647
0.21992773162039
0.218340841725618
0.21536895105036
0.214339404801582
0.213545504597231
0.212743022690966
0.209537349015394
0.206183125016918
0.204425116596043
0.203659415941939
0.199077033148059
0.199745010059947
0.199500236309515
0.197096386074347
0.199192985327423
0.202238207399037
0.202242448257473
0.210710955777619
0.213168663092729
0.220013913322264
0.229616463073444
0.237490476306276
0.245042627165355
0.253616730388076
0.26431769262664
0.277744007799423
0.286485529251873
0.29719779322135
0.313401847509751
0.322166072839166
0.335373193844374
0.34209838922881
0.358401568487947
0.368036622684816
0.383163145929127
0.391344370278026
0.400754259137388
0.406956957093537
0.421042952531783
0.42741023445122
0.439017221302583
0.44114277805931
0.451379014099184
0.455400077849102
0.466297725956747
0.468717463451037
0.479195063905729
0.48158858717014
0.490305224033275
0.489082351146541
0.497984972611482
0.49553264708379
0.499573837068468
0.497201611021616
0.500228824023058
0.498223707162791
0.498810985145452
0.492734407306368
0.500258134331038
0.496483392673929
0.506417041177859
0.508270399135156
0.505680381777159
0.510059328663811
0.510225773134953
0.512504119400577
0.516293901757076
0.51755346073718
0.522203410767969
0.522939441561007
0.529333161343676
0.532842378516811
0.541895838881985
0.547155927214045
0.5456431297516
0.568539801938983
0.569393138866027
0.575573842615671
0.579619283941333
0.593819070011215
0.601889638997473
0.604594488169325
0.618265984015275
0.614502513256917
0.624977341401096
0.627475715770873
0.641228772831227
0.640979516357766
0.649544715994694
0.643127042684014
0.642590980819926
0.641308761141066
0.645571767082121
0.639091944009482
0.632833408709653
0.635625988343565
0.633042846750128
0.634517072467221
0.637377676946058
0.633105015558561
0.64277112688666
0.649158991409507
0.656550280216319
0.67205378092061
0.677792134177482
0.685712043264531
0.695842844309126
0.719175114349755
0.726301050569603
0.727687188113921
0.751426276378967
0.748673586824886
0.770037180411626
0.770956275767815
0.784869873102109
0.806934611793264
0.82043621073557
0.823758406133248
0.830778978403981
0.851033470774831
0.866761614685124
0.876684256807685
0.891779589142651
0.912610456476032
0.910050162561207
0.935552763830725
0.96018519567915
0.97970711024684
0.983041514624654
0.992946188033081
0.995860185576975
1.02631475630401
1.02265449132456
1.05106504322121
1.05577620583352
1.04441158102198
1.04663871567064
1.06147160770771
1.06571660426831
1.05701887944332
1.060411953739
1.06506570470518
1.0601026792272
1.05735157640103
1.04641369974462
1.04231335637883
1.04600293309019
1.01901043336228
1.04149092896226
1.02285428617996
1.01581915981421
1.01098825795066
1.03107326671239
1.03503509474776
1.02262956433434
1.03391484799989
1.04654626993855
1.04832062321106
1.0554788189141
1.06609741222432
1.09052659056295
1.09631962847015
1.09188558876232
1.09904282037257
1.15061799886674
1.12244368450015
1.12402497121183
1.14116971158262
1.12719822117847
1.13400362073529
1.15315464682158
1.12894449127694
1.13703699629083
1.13019592836688
1.1397129228521
1.12980471701105
1.1210965295676
1.12837646396998
1.14214207763245
1.15141048948259
1.14018474512585
1.11619189197397
1.1287201932403
1.11796583428515
1.10004576471094
1.11347343301052
1.11164469973609
1.09809369436137
1.12661304230161
1.1004774127052
1.07937445116159
1.0656927331595
1.05182583379584
1.02386872474288
1.01711573392816
1.02415727771822
0.986770990314433
0.953218354534399
0.949497223734128
0.905341216241196
0.877067150104284
0.853677558913456
0.821999434869284
0.794850701752376
0.750235347059554
0.730846618813159
0.705317873744831
0.665574372943282
0.671657018112813
0.647256077897084
0.633418686155162
0.61853749988824
0.616465403633136
0.608854431516363
0.602366506111761
0.604425737109084
0.595330086384774
0.586980041371411
0.573684644384465
0.580683581955231
0.563063579883753
0.560929637565644
0.555479277379111
0.543161533930633
0.533231133473041
0.524728020253638
0.514154952331908
0.508638208189008
0.49087020060273
0.467920301027692
0.464675409232781
0.445021746385355
0.434049153529193
0.41537720880383
0.395519498795119
0.3801778047829
0.365320177287214
0.346313552736844
0.329449059730754
0.31641526691337
0.301168932035893
0.284434285412393
0.271841631349677
0.260201246318157
0.245540285908251
0.241352443213728
0.231632805585389
0.222680686690959
0.216835536866817
0.208093244218484
0.201198024382706
0.195398282930595
0.187524657903413
0.18879538404213
0.183043039252339
0.181818636171497
0.181458267715989
0.171502381624876
0.176388464157289
0.176898121761035
0.175987968033322
0.175652536954426
0.17588032155694
0.176123394245001
0.176696486497639
0.176017744808587
0.180519359843635
0.182377588003012
0.185456214255346
0.181230382402405
0.184378890408772
0.184218083819168
0.180002862850113
0.179393699862502
0.179437231266953
0.181892060726511
0.179796665025897
0.178755283604277
0.17370206074235
0.171423924760176
0.175661633939857
0.176614154395943
0.170500026886097
0.172839255235014
0.17103856980706
0.170339664698808
0.173641231524894
0.169476258788356
0.178492256547924
0.173292200224408
0.173375105646846
0.179876881030189
0.183425271431394
0.178691842314039
0.18392596993135
0.1893937462398
0.187921671572263
0.190485228185216
0.191328821235641
0.18809882270161
0.191320442416442
0.195231865957307
0.197253014891298
0.195503119474046
0.201339647211411
0.199168935929011
0.196193934084622
0.19561803743538
0.200398714099489
0.2066331958287
0.200998285066415
0.207210652846596
0.205444249309724
0.206157280725676
0.206613488546887
0.21206848235662
0.218188838516425
0.223833013750242
0.229576031436231
0.238583211330649
0.2456426641683
0.246987549976798
0.252186880277243
0.261831912326451
0.269336012428562
0.271305401620303
0.270050250937446
0.280080683080859
0.277503995288343
0.278159142192788
0.273867144842783
0.271636238149943
0.257075401525248
0.255751598263374
0.256343907363637
0.24568506661714
0.239743935167633
0.246814968762289
0.243360957333097
0.238779180084645
0.250038233744685
0.241615362303522
0.238165948398714
0.244381612880922
0.241151936843159
0.243690202194222
0.24245743456999
0.23878703196179
0.23782203272885
0.23096255992276
0.225927659466672
0.233221850678689
0.231267262094716
0.22239669848953
0.218711472945099
0.218110706658266
0.219071855333832
0.221119060168003
0.212497125285876
0.208225472768058
0.213429579434584
0.21508615170308
0.204830567900635
0.203466704639621
0.202693394182801
0.201820144913961
0.200983799557952
0.199218331143088
0.199580438652699
0.196727132856908
0.196137438231847
0.189332345377016
0.193514203704883
0.192737612878843
0.194286064496622
0.189138264006387
0.18093996042811
0.187845633074686
0.191613272694181
0.182613440402003
0.184580626387862
0.184859817020593
0.182165185941589
0.172087373132636
0.177004345970682
0.186133983418116
0.182192893027477
0.172870194535444
0.173806977223615
0.171686788640909
0.181578839323778
0.179107142993001
0.170367836025064
0.175119895042853
0.177639077707313
0.178447415043117
0.173352107587506
0.173367080051045
0.169613863089417
0.17992524021748
0.177649366465476
0.178457914143276
0.174034634703077
0.172532874531707
0.177915742999856
0.175042487050535
0.174821126170895
0.179194018914877
0.182743794629869
0.185114674540609
0.181902788980588
0.188252575940163
0.186957279393282
0.19636744479847
0.189289287684002
0.191223306553399
0.193838419753362
0.201791404320452
0.19373215475581
0.197993252018979
0.192776840164494
0.206634905336673
0.211659116715622
0.215299925512947
0.213568883989548
0.225379626360017
0.23130929515063
0.229669099289179
0.223186771308918
0.233789795964088
0.242303846348594
0.26309757080742
0.273538553765522
0.265247946024282
0.271504606332622
0.296178281475447
0.290502407240067
0.314845469784939
0.317864510852607
0.309257393343073
0.323175127675985
0.338935531343642
0.343463814543023
0.354454926837119
0.326111890002641
0.355330550470594
0.345391701125903
0.34497258547939
0.343675376417196
0.336314434587976
0.329239100736429
0.328561612564274
0.317163517840904
0.326694213842954
0.314471399397724
0.304958603753162
0.319547444563181
0.333557195988188
0.306822156358107
0.347800449777961
0.335504067760585
0.298080120303975
0.329570028499744
0.305414793773061
0.311778392835792
0.326620736179187
0.295672048469324
0.317196937465809
0.291355534130654
0.293852219903853
0.293431646908362
0.283540338039071
0.28662581734615
0.267702301061293
0.291059040220918
0.295825688252913
0.271474521114053
0.292472642452128
0.283568763879694
0.291465237986341
0.267268117843103
0.280666861672577
0.296262587651831
0.286971241435737
0.278268754372836
0.29024090892713
0.271319971748159
0.278758895235229
0.282676847004689
0.292768492622047
0.281892191631688
0.316351007960979
0.310401496435133
0.272501412895408
0.293247465871369
0.298870625824256
0.265580889410605
0.281967291414838
0.275007068548418
0.270230797821351
0.298764750103415
0.293677223448281
0.295391914236669
0.266478356357329
0.322190326681941
0.345611642789596
0.286347610522285
0.3120085116354
0.309363670788481
0.315202753621359
0.312054515219252
0.353048874495425
0.29187305632455
0.27477541780891
0.318102635699208
0.322041732872902
0.331125865579553
0.339326905253784
0.359834860197345
0.382223887683822
0.375965208178177
0.399306706206771
0.400652187097275
0.400163908032942
0.357284314827792
0.372300301142856
0.339157506470846
0.394690808557502
0.420423510849666
0.427377489189723
0.392744582542576
0.425399902997237
0.389559094477353
0.392760994599016
0.439940700032059
0.459026411688405
0.371613779793343
0.368536268244802
0.404221538472524
0.415820079676184
0.359074741198267
0.444421387340645
0.419248889518966
0.395046749072015
0.404298376221307
0.365613315997245
0.348646669431162
0.375027075436077
0.364455829376799
0.385440218020234
0.409032406926751
0.316521521085458
0.327449244271391
0.40354366899721
0.398182120125315
0.33688509134615
0.298951122020067
0.418286113411426
0.354478414758094
0.415812236880015
0.477525143256831
0.391899233486068
0.359074020656863
0.415234101344252
0.461330893102146
0.343278495178158
0.294946555668375
0.337141493425947
0.530623347011698
0.59616589008393
0.412456281302218
0.422893901281325
0.356097684300076
0.41726250177809
0.308438728236237
0.424566700809018
0.56654398402333
0.41513765532704
0.560456079410664
0.439671557280277
0.39801895811967
0.526090379199574
0.49500706538918
0.39564450882308
0.301994027416672
0.303856844849549
0.700693687267124
0.720669754724088
0.207173893086356
