3596
4000.36533379555
650.420452594757
1
2
2
0.0531995944630839
0.0480174027491291
0.0471023199217464
0.0401259631334334
0.0596335850583415
0.0484601130017959
0.0546607322662116
0.040866069011156
0.047739354048272
0.0402367483902688
0.0485988565935608
0.0509036671923717
0.0606204616691191
0.0415845736547754
0.0543083352155626
0.0426267908703719
0.0498957200212711
0.0363437718864712
0.0549258714782004
0.0424908716135329
0.0495517051283416
0.0417353170474695
0.0634207688413422
0.0416231511143487
0.0449559186834313
0.0521401662509896
0.0465172006514415
0.0357047822501198
0.0608250236955812
0.045730831565814
0.0551847259322754
0.0386763302247352
0.0483394070350558
0.044832962516787
0.0617855946432753
0.0487480028847823
0.0527790093616716
0.0409534391085953
0.0558988861115542
0.0378715797883365
0.057526135749338
0.0423564229674049
0.0528353197591506
0.0487226907591651
0.0515058438661404
0.050864866851666
0.0506656382616775
0.0470076263671742
0.0478907740569837
0.046398230019504
0.0640737240163451
0.040899186579574
0.059751054136503
0.0506211834290559
0.0482173943854393
0.048915861149263
0.05149805470433
0.0425148930811567
0.0436228574854801
0.0261781277629033
0.0502591540730955
0.0552920254116615
0.0388350272005661
0.0529116007581766
0.0597467369590402
0.0408705288544114
0.0426343552521979
0.0408025751804666
0.048245894908941
0.033156303377089
0.0375369183679957
0.056111227978492
0.06458147155396
0.040203369033898
0.0513132762916347
0.0427181300091412
0.0519992275833336
0.0464149625668761
0.0360087827336966
0.0288558191441224
0.0506564880288817
0.0462144595128127
0.0490610385356264
0.0464787127623155
0.0341256723664174
0.0529854856020794
0.0426927105621621
0.024029763885797
0.0749702108488385
0.0492770243195918
0.0515338005802112
0.0426650145015271
0.0471534558632457
0.039010975680911
0.0446691763342801
0.0324636496613068
0.050549786318076
0.0340754563972495
0.0460187252977656
0.0259491514390592
0.0409880576843048
0.0146015615176645
0.0831152812613433
0.0244535701101277
0.0623834449138916
0.0578686461910974
0.0133876070708699
0.0716930451706216
0.0669626006966485
0.042193624278277
0.0425107035868811
0.0397246701221301
0.0455421422045274
0.0432733313047397
0.0337961402436614
0.0203165073507674
0.0833765784439171
0.045726011159858
0.0451068547553097
0.0375651960399924
0.0194291126001669
0.00963405544486881
0.0853218511920039
0.0351412935296473
0.0560873616968069
0.035113304681156
0.0166943859135319
0.0495175973238607
0.0794503767280486
0.0445188721690207
0.0490231961006006
0.0249757923856979
0.0498603681681041
0.0141033895955721
0.0677240646758982
0.0412464268105058
0.031145299659362
0.0127046449923838
0.0251932390174821
0.071562651404927
0.066934591829416
0.0446676681635662
0.0254896984982695
0.0105358851759532
0.0799921238632936
0.0428882775306327
0.032411851040717
0.0429645823358664
0.0741988004992098
0.0305910782790551
0.0437211271709103
0.0233482951272027
0.0432380647643138
0.0272839913552824
-0.00477151258368889
0.00599388334636522
0.108256249798926
0.0196326140169532
0.0897280697059703
0.0466173119743464
0.0543048989888123
0.0438172735664027
0.0394610647847919
0.0382286068822577
0.0395442389670716
0.0391761036029792
0.0266104449095999
0.0599311023388194
0.0332063699857778
0.0233666057164955
0.0613980580617246
0.0351263183149745
0.00923281900225139
0.0903083162967473
0.0594085687834993
0.00106625182136296
0.0651441724705659
0.0443941272447087
0.0329171671173688
0.0268178544853379
0.0767533537054302
0.0512435328818351
0.0367316645868752
0.0304866004034906
0.033650322085173
0.0525036218046353
0.0557636697604358
0.0420384481176229
0.0489245859947218
0.00172701211358427
0.0342208222636245
0.0761723455386274
0.0734628913305753
0.0408884730528677
0.0404393591908485
-0.00650737305037782
0.0396955648433704
0.0711302924521447
0.0460438256666296
0.0433198456463103
0.0447968872107225
0.0280981877817468
0.0374669128860821
0.0425044317417448
0.0362048358056754
-0.00546659376762358
0.0556024502582349
0.0714611745300309
0.03603584638233
0.0294223562767899
0.026878253191873
0.00522355361919678
0.0646060500590392
0.0770152592021625
0.0383655094493164
0.0383338366716896
0.0276191624188557
0.0380481663572315
0.0651914203702897
0.0426132151137156
0.0441239529359144
0.0445874880101721
0.0472365652505713
0.0417787080043111
0.0422926878219165
0.0429911868138868
0.0386747385510773
0.031783848287462
0.0406940173145109
0.0451381893186137
0.0520594590959555
0.043459489060699
0.0497479880573162
0.0369279273020024
0.0341446707677182
0.0294548165551634
0.0769261579554085
0.0491774006149579
0.0433339229590402
0.0408223099506609
0.036739889963634
0.0360013179592857
0.0439919882499231
0.0360190373961639
0.0330646501460454
0.0246844810837152
0.0656572509400742
0.0596475525476671
0.0410510792555987
0.0295671690819202
0.045520136130844
0.0674614362993616
0.0419792960713594
0.0491158350158391
0.0521798556379927
0.034421597403678
0.0161569045266186
0.0551952906340121
0.0456517820249025
0.0307282499121612
0.0481561007413849
0.0531399522548014
0.041816038912009
0.0289829054568577
0.00306720903624313
0.077031312211798
0.0664934779559292
0.0105556287583509
0.0805716051025319
0.0677740875619238
0.0455025072425057
0.030684805487553
-0.030212595410122
0.0902390260183619
0.0955732291223808
0.0412102655379364
0.0300903317802193
0.0499453495722241
0.0490353607155301
0.0274997455602928
0.0418013053539607
0.0372454882813624
0.0542201650062385
0.0732722078744413
0.0768522843012469
0.0307929037673741
0.0497126166700842
0.0707477181888458
0.0377097747344406
0.0469141503455189
0.0405217845007762
0.0428155374531445
0.0461937655351301
0.0646849583879875
0.0420675828335772
0.0456634815891025
0.0499549005863715
0.0635153726701501
0.0595819280903045
0.0421754344140245
0.0467664497617091
0.0515512329535548
0.0563851667853377
0.0564448427342007
0.0444603930946087
0.0459973913554081
0.0370495026791042
0.0144200234594899
0.102009982196143
0.058039371076964
0.0351606900206727
0.0714428170499043
0.0657995481223147
0.045197812172124
0.0537075041692749
0.0523684360598832
0.0558864243608276
0.0308352613703759
0.0419472783533064
0.0792141110096796
0.0635701055348738
0.0534365212457212
0.0621142079547495
0.0541328259653938
0.0569511142069036
0.0577722478130073
0.0540154553898132
0.0613425937323319
0.0603068919262245
0.0426219899731196
0.0620103959502367
0.0703236738403353
0.0523731959774437
0.064978716326081
0.101877971624624
0.0727391917250015
0.0732201092058195
0.0621504848110537
0.0738272224929746
0.0738111468104375
0.062615264034995
0.0575707382622556
0.061764413071666
0.0881588519342289
0.0849826373335236
0.0566316663489302
0.0528007309291238
0.108384193648898
0.100912091470065
0.0992228729670429
0.0718876404553867
0.057986195178441
0.0781582246509438
0.105656675334924
0.0934961259336847
0.102796400765562
0.0928679497632926
0.0862871196964725
0.0969079380302287
0.089677608590196
0.0991411084812395
0.0931587981257766
0.105249570582434
0.105736382864373
0.0984664299521046
0.108360352337632
0.104366286275766
0.104188321592431
0.13242044162058
0.112447098997762
0.124423003608294
0.105172960133802
0.0955904874161639
0.115191061426988
0.123152462687567
0.141682301521082
0.12609553274468
0.138698040228996
0.147767794042115
0.143859666370985
0.118052549601254
0.138303507909136
0.132484029577949
0.142206547466418
0.14579963542371
0.150638059988089
0.148755011992088
0.155385129966021
0.156808656152278
0.161945374197168
0.150168893890044
0.167182346879337
0.163706565531806
0.1730734860699
0.152364254358916
0.165012233757368
0.150576331267109
0.211516343948573
0.203114160950868
0.191160830858515
0.181112906557556
0.195899782696076
0.185503048547815
0.198369778768386
0.18858083369521
0.193931684408646
0.188448487832558
0.21173951092993
0.218722757649202
0.224611827059197
0.221403914917722
0.226785502374087
0.227462267199586
0.217282227081891
0.217438496221144
0.267015527983706
0.223992306221133
0.224204482880614
0.238099623664249
0.252652715774053
0.243756809238506
0.249292799356184
0.26079368851482
0.253137935300304
0.264579277911283
0.2591150771106
0.255734712468989
0.271662266241607
0.274653781877849
0.282639965251458
0.277154214669416
0.270847211923142
0.288070215848399
0.305297080039103
0.272955911732193
0.314297475512269
0.303252889713713
0.340155896012787
0.290159825532984
0.314353561678591
0.314982208081427
0.312106679441302
0.313229180378738
0.348423054870082
0.330957751433382
0.31858533952079
0.342009344991888
0.344872181431963
0.353380046548904
0.362683639189305
0.359498968955084
0.345177960743754
0.352210171286026
0.37371486428372
0.365860304718531
0.373326602509846
0.358421321880972
0.410799149941541
0.378119071686944
0.406349430679227
0.390212632480535
0.394750059510812
0.391868583871443
0.431376211251985
0.398118730840875
0.449031876189757
0.424336743294392
0.428368407658264
0.42056546377922
0.435274749867433
0.418099433950192
0.453753735473246
0.444079172060731
0.479850247955672
0.470049556431963
0.467427741705537
0.47045170998867
0.491484943493365
0.458365245380022
0.492168790801186
0.480803226779361
0.494523309683635
0.488530701344983
0.523217135945222
0.487351205322339
0.491148666719532
0.492174004548562
0.509032605864971
0.508551935726303
0.575622172940431
0.505403167614368
0.544504498836929
0.543838696168835
0.575442284739234
0.554718649860909
0.550337824638675
0.559352008025703
0.558482932440144
0.547493336784996
0.575187372963505
0.572348978476132
0.596296072694286
0.597286810694318
0.646759516057608
0.597722163849025
0.577514628625974
0.606693001939382
0.645195744076657
0.627080510147498
0.625098170470768
0.594619425893493
0.642896216645814
0.633718816703883
0.662438408349591
0.647484692921504
0.643389336709366
0.653400483065094
0.696054083246219
0.640562927022585
0.691030027134423
0.681994819921189
0.715048427542639
0.671714512055914
0.710870173087049
0.680663980790201
0.719119558771538
0.709170432268688
0.726096929767172
0.675587353318212
0.780217652840108
0.703829991400063
0.770804738263726
0.737926889098683
0.756197163225646
0.734300023041167
0.800646089550561
0.777251407713699
0.787166759514393
0.765827051864992
0.839284691644823
0.785995485579568
0.83069837856307
0.764125518291675
0.843228521531315
0.828952928018625
0.86378657541624
0.823946053557686
0.847526810065781
0.803983668452184
0.819883468430991
0.749703878102255
0.848244291704574
0.845528780347834
0.928443761875564
0.858658415421443
0.919370521819442
0.889930833799757
0.908798416860066
0.864573471268144
0.879285639809934
0.841046274398764
0.917589220367245
0.891921286548004
0.966207145156557
0.886778602045838
0.957686556527582
0.891220276503263
1.00046536754071
0.911096378200177
0.893366435789047
0.841522366982745
1.00775327217328
0.888410716591588
1.0413610187435
0.926842504551657
0.999997504860647
0.986936996879114
0.990972290458789
0.92215669556696
1.07043065259594
0.980783501553884
1.11901653580376
1.06404368713021
1.0337888445358
0.90421139806151
1.08893449045903
1.00232021279661
1.09162944848807
0.935404786599667
1.08835126656409
1.08066427482905
1.01838940639713
1.0121208314465
1.10603199773451
0.984683343190718
1.10367655641306
1.04449542243388
1.12494220890755
1.11063099965898
1.1378617116066
1.10763883351082
1.19243323991374
1.03511674347819
1.16072747753984
1.13166417541414
1.15055055903118
1.00487731089839
1.12182102227373
1.15154966557719
1.22043698754499
1.17293824654601
1.21790651861723
1.06348175850684
1.17714532526997
1.10642947555363
1.2788056228751
1.05633685272525
1.33863119589316
1.12528579526164
1.42945219448271
1.23574381656477
1.25463398686187
1.28124236937158
1.56543359665305
1.19144802232903
1.1700315868668
1.13505284664654
1.22449082467484
1.08608013102257
1.33420684194031
1.2741657449575
1.27381480206784
1.21349205021259
1.23456389644545
1.17480662273106
1.43871185490775
1.29114291709387
1.49478089250462
1.08108826431852
1.48900979728266
1.04956129266894
1.13030336850977
1.21622998118361
1.2174630711923
1.27189922315591
1.35813448978791
1.14794368868136
1.48474370846779
1.2120076195505
1.38057600646874
1.10314748120372
1.44941939184448
1.21175997151869
1.41711061822505
1.44294186378692
1.41936739558201
1.41849448928796
1.49882266105041
1.5063281683923
1.5194975533564
1.52505331573308
1.36430073324867
1.25935934992064
1.44298815641397
1.39759818504832
1.5435309941986
1.2436606201872
1.43241803689005
1.32312727486554
1.70278732466163
1.33126681250812
1.42507995410816
1.14270626252401
1.49484421755149
1.22103422434444
1.55095583479612
1.32581930369634
1.45478000714805
1.24065103236699
1.39422503119318
1.36743678314645
1.89669762575771
1.40709824372061
1.48834480719751
1.41601141087708
1.61115683928311
1.32107663308718
1.55691913882715
1.29849627254482
1.6174662365432
1.45889629596248
1.60965072212441
1.26844996194843
1.57581843223644
1.46248964630212
1.48985675796054
1.40205544124204
1.41720938865712
1.4675367914535
1.55531057959663
1.36631440208927
1.66900602676393
1.34598813482508
1.45973457911586
1.26496424133992
1.43851361185957
1.26322324139633
1.69111684078926
1.40170169074206
1.59960521462921
1.42202716192118
1.84643806799678
1.51930006268027
2.00338889379825
1.43453501659988
1.88156835176328
1.34141291596254
1.5271214357117
1.50174445815384
1.89433876727366
1.59345808628831
1.42510508438009
1.49784372082884
1.74379636267872
1.46586605782666
1.68141177428099
1.45389456439436
1.67425035708381
1.43578555708265
1.72640188938836
1.35111444485092
1.52236383149085
1.31447064671694
1.53693782144163
1.47843889017825
1.54765629991345
1.36109681820837
1.60779382683311
1.38440091505317
1.77237498365513
1.2920793776238
1.49264915422522
1.38137961672423
1.50059927680901
1.38817363739501
1.32401931316044
1.47054697324855
1.60892612616466
1.45651693087522
1.67611355606634
1.40543057437552
1.43451280573963
1.49547474244866
2.17312778349683
1.32749574673248
1.50947830898693
1.39237626512391
1.51048656805801
1.44974207118256
1.67271599210938
1.66245591589119
1.50068423823336
1.41240434171957
1.85271256833917
1.43112914994877
1.56271418940052
1.34094604220684
1.56565586555558
1.44769974872762
1.81220566175617
1.35754434513938
1.4331806679382
1.44666032010263
1.4413379489045
1.57327459793856
1.6676550825222
1.32518324225873
1.5088111393496
1.46520186484337
1.52510872467397
1.35585380708356
1.67598556138774
1.4703007961814
1.80359490983353
1.44340676108555
1.57668609541194
1.5318586339286
1.47595305445743
1.43347695287971
1.51519163423223
1.39805928378093
1.49172730000167
1.42924024376096
1.46036196061067
1.39908682869324
1.52245283821049
1.41348735240609
1.52987899855505
1.38471261516922
1.43616472931677
1.44409056636981
1.60087984730392
1.33625227034883
1.46786184058954
1.44412252661428
1.54231410842384
1.30074300427427
1.38608492862416
1.4353384141635
1.51329932110355
1.41649030879023
1.47737148555245
1.48172478884656
1.79609698992987
1.36654689889832
1.44056150344707
1.372362751475
1.42896769427029
1.3872737294616
1.51527397623217
1.49022928889146
1.40565987225025
1.35587875848128
1.38320880752332
1.3455121554936
1.3363554122912
1.29676418184881
1.33768246351877
1.29778660558167
1.23285322053841
1.33423483686932
1.41200039170711
1.38912442236111
1.42117219774881
1.31381021737611
1.43604241628995
1.37042288060337
1.36568188399494
1.27388971941712
1.38899478389176
1.30092147250374
1.30628501346534
1.23625245836951
1.62527276304928
1.33859290047974
1.47692033082014
1.28270264870459
1.23907635861731
1.21936648724839
1.39583358470741
1.26171168410081
1.40868721200108
1.20801534881149
1.39558878264673
1.33071651715706
1.31212413577897
1.31794541196185
1.38383934898783
1.16350794476207
1.20367871168185
1.25772231165457
1.21479672920295
1.22186402048197
1.21416741330041
1.24423340183204
1.25791791711852
1.28822583205042
1.29049965405153
1.26598866176068
1.24425821652016
1.16398784678912
1.33311345403013
1.24517137971422
1.18649732159376
1.17457971538211
1.20171364280166
1.17956422055338
1.27530890872777
1.12889098015554
1.2280928721357
1.18376589232637
1.17747516780802
1.15063566845434
1.22860099553321
1.12395506154827
1.18784410948426
1.22615259057794
1.1672616868301
1.15041404655807
1.13554243686684
1.07912783293102
1.15606208045031
1.13016419478374
1.09713345098649
1.08573530859745
1.15735079888144
1.0693048650668
1.10829332831711
1.12563369131057
1.06764148108218
1.0762306121807
1.08807841445686
1.05764912490363
1.09641369452951
0.994771360920371
1.02940993348959
1.03396301090374
1.0744963541075
1.04678458683441
1.03508529724931
1.02836761082189
1.07220801151242
1.02507261945445
1.05095114170844
1.01897249356601
1.03777932353014
0.988944267697694
1.02588575124858
0.996172286801629
0.987719522759288
0.969901877336194
0.982393746794615
0.966913257054522
0.960477393397432
0.955401277568448
0.959364981444094
0.954145481977805
0.947318287306501
0.927327013190101
0.954889572819534
0.930336422208211
0.957632491997224
0.910840936966923
0.958600867207451
0.914853770719734
0.945527918754054
0.901453954291116
0.917649188758815
0.933212728540085
0.918702411577715
0.838592069853044
0.867620202658739
0.857237098574256
0.88164011949154
0.836095735804302
0.864213425285625
0.857101157862648
0.872300841704202
0.84614171436973
0.87720666389792
0.838215651462127
0.858419049441853
0.846673211131869
0.848996303692629
0.837545382872007
0.804395961058144
0.786283383466294
0.843330618854603
0.82062027044684
0.79223490039573
0.782324311075452
0.82099960771836
0.791191195179522
0.798107946220987
0.775818507268348
0.786318749480625
0.786538387448319
0.768195464447944
0.745067817185449
0.770891769261981
0.771105736445169
0.758277687935188
0.748543303250752
0.753449827218605
0.72047424477798
0.741903888910108
0.730909194228186
0.753374012229393
0.709815018576294
0.740907011930554
0.719965458680745
0.717807503365904
0.695170754294087
0.698378495842852
0.700689598470406
0.717470399238986
0.69812848349986
0.711891002717263
0.683795419935552
0.704464729002036
0.694034487377458
0.696366806424271
0.679738097339466
0.68073079828023
0.666995539408673
0.669131456175146
0.676511988966631
0.681839743938618
0.659521504002785
0.661811985384939
0.659934966857673
0.667265132844054
0.647195246848399
0.674783433558893
0.625874660079663
0.641584721895551
0.650013885689579
0.623145581803947
0.613244595011072
0.61446268459948
0.623817039387031
0.627677709830136
0.619441668845477
0.620011528583351
0.599249024999881
0.614166205657798
0.608153758118776
0.602370620286334
0.587777911517066
0.610875936230334
0.587751104183886
0.599260519709192
0.582685889397835
0.603915734259867
0.576878936476911
0.571648437739986
0.561161445011462
0.582872934252533
0.564096417403066
0.561769539974109
0.567038013094715
0.569489174933973
0.546139794192038
0.546793762758448
0.549726550989392
0.550856088184952
0.535144376754758
0.544866342893446
0.546180823722556
0.545072096537669
0.523677767759195
0.525306015001212
0.528365468766747
0.536376325652891
0.526120836070057
0.527469829524602
0.515485578872697
0.524341009537773
0.524232849571794
0.515585656762421
0.499811244642668
0.512974416645868
0.498075516334377
0.501544421775234
0.49469539184608
0.498513298522337
0.485019932906604
0.502487566520368
0.494201674185941
0.497397181402467
0.484035239337568
0.483246517630837
0.477954851795842
0.477201093013434
0.470294184802294
0.479216016096315
0.473289386059817
0.469366297909299
0.467403257267982
0.471414989186271
0.470014759621025
0.475336471910655
0.47035333291107
0.476989237959492
0.45446879695786
0.462617104647979
0.45434793052701
0.463935965974643
0.459544081565649
0.469628321838937
0.47051775582746
0.472025569994397
0.4619344848552
0.47396189876594
0.459124566444699
0.464638849823825
0.452549312293133
0.470038363723982
0.471064751017107
0.46904371853382
0.453928820579997
0.459476052604346
0.456188982989891
0.479628907099317
0.45875846768508
0.466633150594553
0.475496037749784
0.479842982406223
0.477018611747002
0.477618160544415
0.477090264451457
0.479817864379277
0.478285912431596
0.493175717662566
0.482874020669736
0.491713658726516
0.493018145737174
0.493562841685391
0.486891829491433
0.502417016262922
0.497995488389
0.506532766570972
0.496667386112134
0.51343574298025
0.512217833313548
0.512073827788093
0.513653630945062
0.522238975397273
0.51244365846899
0.519330839257908
0.514196281004075
0.52808925419684
0.516232150259162
0.526043762655707
0.544574616975806
0.533754090957571
0.53876413739441
0.550727966313354
0.535679594638887
0.548153171084418
0.550651389418577
0.549754590555989
0.5537384252073
0.566335577684893
0.574405160540361
0.587263163143411
0.578580325655578
0.594562360886902
0.581676639477169
0.59869839625561
0.589556172085936
0.590465888760594
0.590581888919985
0.609333655990707
0.613579336031313
0.618415565461924
0.60687942923926
0.603096102744422
0.611525214992793
0.617536391822315
0.603799099774701
0.620190743326317
0.609084949097978
0.601705989215879
0.607654648547382
0.629451131800661
0.600946510484406
0.626415302658004
0.617198551502228
0.61768332413533
0.62605466370553
0.619135555292626
0.611601985982024
0.610562914562299
0.602216305182012
0.612899013245724
0.620644367827259
0.611743165394903
0.610707301753221
0.606071730821886
0.595653025163392
0.623903721175238
0.617491641474176
0.615670768422354
0.609240706075763
0.601862357186851
0.61548303976016
0.623993294516216
0.608013543280052
0.597186721321997
0.59938909625624
0.612644430053755
0.600766323473058
0.611032594320584
0.606462277367709
0.607940788255049
0.614390310504736
0.631476286593521
0.613309567761072
0.607913162269018
0.615662042787309
0.616429610442506
0.604615343221332
0.612671696930566
0.606113969088967
0.60907412847082
0.60492045570343
0.605003038327989
0.602899722460429
0.600461265592927
0.600045659170416
0.610582809115294
0.608207699379467
0.608745520756186
0.605070095528885
0.592530686404832
0.592026990346963
0.589883988469534
0.580056547887169
0.590242221663343
0.577786660769223
0.577777682050384
0.588864335558569
0.586370456428087
0.57221836959849
0.577755127750335
0.569596433223032
0.562601102673965
0.555267335029148
0.561971441486741
0.56174305945777
0.555505040017019
0.536911457404716
0.545676801904714
0.551308119850969
0.540437310965777
0.533885814226942
0.522136993960787
0.51760080779131
0.520791037103327
0.524277844005231
0.521827412914062
0.51599215453791
0.51081444643693
0.496197667681754
0.514728015223887
0.492506271738442
0.485983778463584
0.494911288630194
0.485104019375354
0.471461982460479
0.474428309893011
0.473989448381614
0.474821690118778
0.472678091763956
0.463284317316184
0.455482250897726
0.458074707325532
0.455350046206502
0.454108117777388
0.441152005263765
0.445206700262845
0.437641119026054
0.437063580258125
0.437982023817619
0.437855984331501
0.432283419553526
0.430806059251119
0.425523361836663
0.426569317755195
0.428781591895871
0.429153184151685
0.421027394329351
0.419123979380674
0.406713595277036
0.417718015084788
0.410013878464047
0.403241676864133
0.411431507282412
0.408512700480119
0.402082955206937
0.403766413158738
0.392778380534346
0.395747510205384
0.406908743170034
0.40470285667033
0.394870278180717
0.393128139399514
0.387315068554126
0.384967611565674
0.378250751880814
0.386030255373195
0.384556666331577
0.389112094406285
0.388094417925743
0.378788762225393
0.368113739756008
0.378482003383762
0.374822242570867
0.37750679370644
0.379207059879948
0.375873610700557
0.375186644407861
0.3760120996061
0.371207342405741
0.373110556234328
0.358119206171659
0.361730170880872
0.363518729353295
0.362586721343314
0.362808934273251
0.363167486488148
0.357911333223785
0.355295108915877
0.356533122875953
0.353497432009244
0.354229361370613
0.350986321533079
0.345834600541685
0.349591668636573
0.34733485665938
0.344334691258231
0.347168747258766
0.35348027146245
0.342478610475052
0.34424101005203
0.347345849474352
0.347849650744744
0.337337269474141
0.334063617139751
0.345091333429445
0.335515281391792
0.335989887524205
0.335184653892027
0.330287858982938
0.33190640493892
0.335875796514626
0.334890705955163
0.32849171648232
0.325373014525633
0.325358835657745
0.323997798668377
0.324728177712537
0.321093244222442
0.328696736655303
0.326163252223894
0.327809429948619
0.325754610716655
0.324120879673719
0.322493760346659
0.315681153674293
0.320891713447141
0.32472501695037
0.32188491684555
0.319934572526468
0.32050711054911
0.320169710538389
0.316966629139245
0.313019013527643
0.321164266427964
0.315723992901059
0.305940087059936
0.317266715679203
0.320594371100275
0.309822765383058
0.311319329953906
0.306018355582095
0.304496777606729
0.31705783045524
0.306325678744458
0.308916993897293
0.304749042307749
0.307796809465333
0.308025665412211
0.304506782018863
0.309548342736843
0.304335482672953
0.303774807839682
0.30449423953469
0.309231188045045
0.302051795715637
0.304781345118945
0.300127186173024
0.302890109044033
0.302882327112754
0.306210766725709
0.301729199424892
0.304042194310465
0.300640843714838
0.295702881186386
0.293703492417507
0.2944677247274
0.292451526453845
0.294136712328118
0.297856005106754
0.301518237542193
0.29365772291903
0.291715167664783
0.289228787031313
0.292244653520249
0.288430189059491
0.287920821382149
0.291719047567495
0.293396897877956
0.290253815465845
0.286375790094291
0.284526639613408
0.285647351604991
0.280787848797746
0.283626511397728
0.284313921533533
0.281931495346271
0.281139504657483
0.274546190716075
0.277401608203026
0.281093951428685
0.277305864871841
0.284220074528775
0.27327544812489
0.273837509375525
0.271236549393341
0.275631328851795
0.27600495482125
0.274841943323151
0.280035458130019
0.268684934601561
0.268873228781408
0.273875028915842
0.265462623519616
0.276268545213001
0.273267245953696
0.265602516147718
0.264281203644832
0.266358252236696
0.262360895311466
0.259814160295035
0.25947050850417
0.265513101016339
0.265867349807928
0.261088125447218
0.255238931205747
0.253867751516521
0.253959955788334
0.25596600314285
0.257905065407946
0.25817050019642
0.255905835163526
0.251603051766672
0.249344742819011
0.248752273692753
0.247712505723579
0.248704619757537
0.249363348882549
0.245498055417285
0.245351233672715
0.24619645528593
0.245714104067976
0.239143120716436
0.241453985964936
0.235797770382633
0.241833385253873
0.232796298660189
0.23978529480481
0.235522466353056
0.232793112348778
0.235632891764154
0.229560641387462
0.230785439575939
0.228367534124368
0.228562126486993
0.228693062575539
0.225891143342028
0.222112927172756
0.227098611653034
0.22066570320372
0.225689805216993
0.224174547511585
0.221857351105234
0.221476981016654
0.215277855420238
0.218176738985189
0.218140265415133
0.21662086925425
0.216023443384818
0.209746712824857
0.214394864286923
0.2174804856914
0.218158752706513
0.215504517685841
0.207517314674799
0.210018779882804
0.205181577167681
0.204318399343394
0.208697978537786
0.204649055581454
0.204540257433176
0.209266064137805
0.203727229792669
0.207010853523785
0.202335370960714
0.198460223477311
0.205230358598335
0.204359869167886
0.20114735858363
0.200216984033167
0.198432958621275
0.193493332185421
0.194752335333714
0.195083421817981
0.192216625756574
0.197762260938622
0.192527039505251
0.197023383275049
0.193891386120877
0.194055057113218
0.190956203082327
0.192446863664192
0.188444351847866
0.186987026849352
0.192715048233352
0.187822150861002
0.186356406717783
0.187346458898136
0.186919544130341
0.187601452829255
0.183635610096772
0.186178607873529
0.185467672180182
0.181138281836099
0.18135783613566
0.177546920705245
0.177170129280505
0.18079390061674
0.18055917886486
0.180582281205421
0.181897213964075
0.180395942465036
0.180595216185639
0.178423012213411
0.179787326090892
0.177340802013954
0.177214664242404
0.182020306117232
0.175227396049827
0.176076242997189
0.178627602632189
0.176741995059721
0.170524810321653
0.174309634847552
0.176589740472827
0.174778575380509
0.170112315033234
0.172784835469626
0.173038064967684
0.172052982100757
0.168499796873986
0.168169963126548
0.170204452429255
0.169847323965213
0.165389030524647
0.171842387913507
0.17245141600673
0.169590368103852
0.169354320494607
0.166734141477519
0.168537768181624
0.169257605241338
0.166495562961519
0.167952765011289
0.16335094064884
0.163422236478339
0.165095294938992
0.165163336925144
0.163856908096203
0.164149437475292
0.164013636739617
0.167644983557576
0.160560723619585
0.16429815494994
0.164079001792664
0.160720416359373
0.161040723836769
0.160516484691679
0.162975567213433
0.163309035866612
0.159945186640264
0.156046630053427
0.157511393748697
0.16048392018073
0.154537101052683
0.155860040339191
0.164387260334799
0.153575412991564
0.154171717723182
0.155360662912429
0.154727094819019
0.158304621533752
0.154541536513945
0.153840605834929
0.152882055966336
0.156272319277122
0.151879082312305
0.15211828985502
0.152177703544373
0.152514186025849
0.151558568487902
0.154094022941588
0.148757885850627
0.149044031514878
0.151651705924527
0.150912977766944
0.146991918548207
0.149296888632382
0.151978089489436
0.148875155046146
0.151656661137203
0.149641798703211
0.149283027191747
0.153885471112173
0.146541117238464
0.148099026192756
0.146216721923847
0.147106073620835
0.142773213148169
0.14298822801071
0.144430025188488
0.146338568485725
0.143530937920465
0.147919654803714
0.144117887119167
0.143821631716832
0.141579184661156
0.140972948685283
0.138425390007275
0.14210774693118
0.140466434810069
0.141179102248836
0.144280098484269
0.135983396232129
0.134285676250748
0.139158514286409
0.135874657388454
0.139385278235188
0.135013576078367
0.138331868839956
0.136844443407189
0.134912755975118
0.135291669721938
0.13531546090563
0.135710380693211
0.137477465708957
0.134183080733828
0.131013034540098
0.126269799148047
0.133152005287617
0.126745741190809
0.132100755287097
0.128950675584414
0.127026917009068
0.124951290910265
0.129911321190433
0.128746153877979
0.123978622780331
0.126920485180085
0.122329078615332
0.126149624048846
0.127348083291963
0.123197210091167
0.12369365872109
0.124447458693461
0.12637642247317
0.123329654270719
0.122551276934024
0.122566279258824
0.120735017470929
0.117634772400031
0.121847661724496
0.11698844878993
0.120141704773633
0.119161668316864
0.120868693546367
0.114693090834847
0.11744520194914
0.116832705774081
0.117199916405078
0.111958831244588
0.116771693211055
0.113072664565387
0.117424034998906
0.111521379664534
0.113995557316555
0.109120137612459
0.11160080213605
0.111003441864165
0.109098804014981
0.110579592355005
0.112384857515542
0.111285875568499
0.108658611389788
0.113244071207165
0.111504267531452
0.110750747664739
0.109494239615227
0.109549500097558
0.109827420045094
0.107218140365393
0.105079386013121
0.104910825467254
0.106394280280584
0.104028596171499
0.105159218425017
0.104571746280685
0.104591045776679
0.101504862960261
0.10620152619484
0.10397372967832
0.102016845364965
0.100675738131255
0.102064288275503
0.102307227695619
0.101808717748273
0.0999209903493822
0.104527404222407
0.0991039642145354
0.104045796365186
0.100266748554879
0.100256100214592
0.099978646927462
0.101071570913037
0.0948324794214634
0.0974644007613187
0.095300971165734
0.0999772119019696
0.101881026950637
0.0995674472817305
0.0940038507009457
0.100865248888321
0.0993841197692917
0.100498591418999
0.0944442620839915
0.0953928542983777
0.0940522870791488
0.0972921463774484
0.0955887762966621
0.0965329684575316
0.0968418171881495
0.0959317969219152
0.0919329564213827
0.0994388189521076
0.0930491298588422
0.0938450895634729
0.0929151452348655
0.0936261658299366
0.0953150222922702
0.0911172417733885
0.0932904490651964
0.0920907726697048
0.0825185964128829
0.0928080098070606
0.0919295523118346
0.0964531513510253
0.0867952673180104
0.0950461411509965
0.0829158768310923
0.0929661762114955
0.0959057634362913
0.0927825263828649
0.089718718200618
0.0953267618004282
0.0956076389784886
0.0977132697040969
0.0910375451111536
0.0942975926297675
0.092369132022515
0.0900803361876468
0.0827124541105584
0.0894161421536461
0.0905438653259991
0.0975050325728831
0.090984295926835
0.0961265666409005
0.0915041613569149
0.0877387093836609
0.0901627535886126
0.0862157298790854
0.0860928510749277
0.0864597136790712
0.0868366517989926
0.0893819746371818
0.0801708253323008
0.0889618850088343
0.0917852641935277
0.097628072187032
0.0827492965016925
0.0934340583093292
0.0913100249420915
0.0875569403003709
0.0916720100989337
0.0888739347364795
0.0876333440880103
0.0885820945237175
0.0943358071116971
0.0837780234250024
0.0914888232677562
0.086193274656723
0.0952287990478231
0.0819430000182879
0.0928456506529822
0.0818248510668246
0.0981147196635815
0.0716132127792916
0.100747858801484
0.0787600216421767
0.0974188796090547
0.0743498350942759
0.0978257915925604
0.0808456803586613
0.0938475666410413
0.0765195646468459
0.0931448266323504
0.0843514133724752
0.0915714748983789
0.0837805331115245
0.0840731462500077
0.0831183028170213
0.0842143686297075
0.0856259120593225
0.0853367071502551
0.0861117985743035
0.0871106705569122
0.085019051916808
0.0890776504145758
0.0822663431702041
0.0836357253837024
0.0823601598122978
0.0829217292036139
0.0839641755620426
0.0825856434651013
0.0837754631590639
0.0848251253461495
0.0848388841128017
0.085936723953582
0.0842361290171736
0.0835773745150382
0.0831807838287698
0.0846330315612917
0.0831409392390626
0.0811339258307262
0.0853802162347955
0.0855599573599043
0.0875122259486684
0.0839493196439604
0.0830817335217292
0.0849062472383755
0.083757394416438
0.086486317498227
0.0825126197750174
0.0839943310156589
0.0829333184100893
0.0827822010231479
0.0852649742664868
0.0843604214835617
0.0842794825189148
0.0881032512138165
0.0859150133202711
0.0867790777654764
0.0811660529207114
0.0833164096471014
0.0885611277393566
0.0885037857360031
0.0831234811282801
0.0844326615753063
0.0869012392042851
0.0846746725310452
0.0845138477025241
0.0853307621186707
0.0848814758740439
0.0869197466426511
0.0915363902285676
0.0836860407436021
0.0868232500023545
0.0856060893692367
0.0891286662151898
0.0862119584549546
0.0846962681187629
0.081481187577706
0.0843838900239802
0.0833620423679758
0.0856940466588947
0.0874206553092245
0.0869559071907615
0.0841964336550656
0.0834149968590423
0.0866189606058295
0.0889828862578842
0.0855812341665647
0.084169088865226
0.0851091416905547
0.0872631540730936
0.0890131668178198
0.0865887481161876
0.0917715710516886
0.0845560617070949
0.0876462599511724
0.0844939418209766
0.0863241381928621
0.0864614309154415
0.0901158400082366
0.0885593653592633
0.0873482921359583
0.0870376164874745
0.0895034369710197
0.088544640488283
0.0884826224402097
0.0885553144129363
0.0877401333441529
0.087281705679526
0.0876712643294021
0.0859224348513096
0.0919961673568492
0.0878483495980158
0.0875392338165456
0.0937041623434275
0.0911939111913204
0.0890869393490169
0.0900075136724054
0.0886128592927765
0.0876312821016772
0.0921863914474275
0.0893830665758074
0.0909607799003462
0.0880582573089139
0.0898160809130262
0.0918509835925879
0.0900233018915374
0.0933438820352019
0.0907681515327356
0.0890761264491154
0.0922075446809503
0.091769844106249
0.0908136167886093
0.0915466359177102
0.0941932501189879
0.0929030463354416
0.0901559712487897
0.0953750768075375
0.0937262956183193
0.0901331738669964
0.0933181546043172
0.0942689673505123
0.0936535375370365
0.0922541907325119
0.0923072380230751
0.0932859793596812
0.0947533153342457
0.0933078522813647
0.0924430954902997
0.0951910523656647
0.0962959021880684
0.0919097591190026
0.0909865647040568
0.0933148870624149
0.0959033968089328
0.0944702790811529
0.0946714866560281
0.096098979938494
0.0974686228202859
0.0948264067419323
0.0974693742006382
0.0945093281678716
0.0953907617761149
0.0954270037353525
0.0942109407336386
0.0919031851256641
0.0971521119492417
0.0948705568981729
0.0966360914694817
0.0949195733293826
0.0982492830849641
0.094801024463557
0.100259642230771
0.0975386406387159
0.0986384697895724
0.0977389001555988
0.0980820488158978
0.0983100989168645
0.0998190177544038
0.100891135218334
0.0993592208529817
0.100174056745697
0.100287028231845
0.0970432921077021
0.0977393590616973
0.0973683766182601
0.0958273823265679
0.0973177663842199
0.099847082853034
0.0990715890485719
0.0992121476559129
0.100855600481824
0.0986631290943975
0.0982080073254079
0.0996886592696055
0.0948927530005638
0.0983161625058145
0.0976841604096578
0.0997657771226265
0.0958246970852009
0.0991708443787513
0.0973636428112149
0.0985651544476625
0.0958052207639939
0.0987243604555985
0.0955460840524361
0.097126377757677
0.0944174402122444
0.097638725591444
0.0969886233854736
0.0941386666945064
0.0943593333724182
0.0962982699448637
0.09741526994612
0.0954170649176298
0.0972241003675779
0.0941331009154403
0.096625778404323
0.0954631647654266
0.0927184666421559
0.0945132967185044
0.0954391646810945
0.0940197285533978
0.0954841675674764
0.0943052878089982
0.0946664847098046
0.092975125306339
0.0990209176241922
0.0958677547940608
0.0907104839851679
0.0939338075842911
0.0929768513926824
0.0946562509867339
0.0957148568723792
0.0970805493564501
0.0935868475262193
0.0932493549935524
0.0914708625919207
0.0928489031634521
0.0913597583133896
0.0938841399693856
0.0979403476138905
0.094463301616519
0.0914119007689685
0.0968495359101416
0.0918480829724164
0.0922589870717476
0.090381547793637
0.0902556019671803
0.0906804502759328
0.0910571722619419
0.0909173561637543
0.0908456149758661
0.0917547372873972
0.0929771394140768
0.09121934781104
0.093186842474829
0.0913094733831744
0.0919194695590065
0.0899580340921271
0.0913928957997319
0.0933936370929213
0.0924125045061218
0.0898948457697437
0.0913460948011091
0.0911923157883707
0.0882260898050859
0.0923174519755531
0.0954150193235511
0.0912174569310066
0.0924020876186937
0.0910966204808605
0.0903661769337946
0.0935488354231759
0.0938764248348705
0.0886112897960706
0.0900091395611972
0.0900630408417009
0.0920242064154975
0.0911019824891544
0.0904150190997727
0.0917975840087354
0.0913811153173127
0.0857506257024558
0.0899930166346021
0.089843358660777
0.0902728589668137
0.0879222809833129
0.090584814912438
0.08970117231604
0.0923593124981932
0.0911800235136152
0.090924068788328
0.091235340228335
0.0892867029765323
0.0888986262900308
0.0859846921394665
0.0876076073479352
0.0903225544174889
0.0901764905195623
0.0903324164887555
0.0874240743451572
0.0883290181711792
0.0885926153043071
0.0921168375629223
0.0864974768451567
0.0888267143121439
0.0879196320208998
0.0890072224164116
0.0864172780011743
0.0869387094328093
0.0885292333792942
0.0895957577268002
0.0858039686762115
0.0841120651666498
0.0840748573182775
0.0857249259485978
0.0856022133555415
0.0848584820462746
0.0835903561943382
0.0856939459970592
0.0816049373198273
0.085203817199494
0.0835938225628139
0.0828845037257811
0.0820971008532335
0.0826281426890965
0.0811344317492964
0.0846215660742539
0.0773198049437381
0.0847932107212651
0.0817807077339439
0.0822400291623224
0.0789236705764671
0.0789330414127234
0.0787237674186723
0.0808168902854828
0.0785898602576725
0.0815499501646653
0.0802821456431369
0.0805564966754076
0.079967678610795
0.0821570851470463
0.0781985094521874
0.0795605080061801
0.0774669069970868
0.0798990913511729
0.0784914889019672
0.0768156069072316
0.0753856142116309
0.0766510284574863
0.0743915060796672
0.0761499336660663
0.0728787955121395
0.0758402002881673
0.0748936501463462
0.0726721377776951
0.0785922681733585
0.0767260681130605
0.0766534879870371
0.0772705417602858
0.077736325960781
0.0748580273584307
0.0749961522541157
0.0745242621248641
0.0744887300952855
0.0752404441651094
0.0750334592859227
0.0752756849835898
0.0747264106283457
0.0727924910828786
0.074456548774301
0.0739066508106045
0.0743378318163085
0.0743468904991344
0.0740646656700781
0.0732599365217025
0.0716241983793534
0.0729221139349386
0.0717235343245859
0.0727358312986672
0.0722115170352932
0.06858501990158
0.0748464934871939
0.0759896668273355
0.0734305124325875
0.071949323998227
0.0756496304191111
0.0716675150738989
0.0706290928657096
0.0738250117640904
0.0709345832629426
0.0728417158705167
0.0709756713147849
0.0703895553556808
0.0702292689877898
0.0676893705727395
0.0700410835950867
0.0740899142643415
0.0725145163461099
0.0729112671806881
0.0700936346321815
0.0701379526553166
0.0696791439951788
0.0707080805783362
0.06911464893299
0.0660132729192357
0.0699531279779817
0.0692281399557365
0.0613845155497469
0.076252521966859
0.0676919425764124
0.0695156672498341
0.0683167961956858
0.0703889199114372
0.0669048502208449
0.0687428233137969
0.0657940407377921
0.0682257426024212
0.0686835181513411
0.0684456280879324
0.06492999712148
0.0679455368175397
0.0648477493770382
0.0687153005792029
0.0644413623485262
0.0685330622936234
0.0654636555296696
0.0674576738369466
0.0668464313150158
0.0668166117236271
0.0696203636311074
0.0709826201209741
0.0659232407166528
0.0735331914074081
0.05232668764213
0.07491710126569
0.0734202424512043
0.0681567170833288
0.0676203506635282
0.0683321742941582
0.0668954324110632
0.0672084476483589
0.0687987441590615
0.0658829666304663
0.0714306123426691
0.0616656245126275
0.0689930204570067
0.0641032529033874
0.0639081435050456
0.0668096522434409
0.0636877779864658
0.0667426318861756
0.0669467380959341
0.0659058210329471
0.0683417396919982
0.0684292762204517
0.0644771763069488
0.0691792819441364
0.0628648291170134
0.0615630112128783
0.0694595337524438
0.0680914318089316
0.0654529449531587
0.069743334844516
0.0671555033399026
0.0591936805244763
0.0784319815769742
0.0646987505321323
0.0690603861130901
0.0643813867995733
0.0664561152883096
0.0701760127490307
0.0656032347373455
0.0636072576256787
0.0665048926195413
0.0660167660856844
0.0647156133791197
0.0651685692369092
0.0665192685988429
0.0681940875597851
0.0650598823070609
0.0675987969433251
0.0656129960431703
0.065560089028434
0.0623642745319631
0.0694567256435719
0.0594051984804746
0.0610507357235164
0.073191964619625
0.0672639523818773
0.0718307895878467
0.0656113361505374
0.0689578524724054
0.0641891868861011
0.0671281340386415
0.0617797944519455
0.0654218283465495
0.065860311592541
0.0678359124434094
0.0660467206164553
0.0683608892205736
0.063311962449763
0.0692825040994272
0.0628027895177767
0.0667580948171648
0.0636413858236431
0.0695288775463951
0.0651846282480347
0.0692593564677119
0.0591535353048401
0.0694703797058979
0.0667523826081155
0.0689594714115457
0.0483745479869627
0.0635061490006378
0.0856901995932005
0.0611890482930361
0.0740721743866922
0.0653251489136199
0.0703410855453456
0.063538804042841
0.0650916926533578
0.0684549762026169
0.0681740577789508
0.0621849169239355
0.0673019312712682
0.0687457285215114
0.0710036045855606
0.0604612550001853
0.0564914709526404
0.079240223586891
0.068672213446216
0.0696004435757247
0.0702099045588684
0.0549869542071076
0.0859789420143059
0.0698467229741182
0.0697534678017094
0.0712097263560222
0.071352261701069
0.0724354685837085
0.0730543970471062
0.0668735124464584
0.0703953933186909
0.0725606769808507
0.0646138238659521
0.0696050621669639
0.0678417010570454
0.071088541787201
0.0687845173350445
0.0691451868721769
0.0826450739441643
0.069891188001363
0.0719753544541342
0.0761382978367294
0.0698280324737244
0.0765053471825466
0.0750740190012163
0.066932038298337
0.0684310692924866
0.0819294330389965
0.0675768987185338
0.0709380044761161
0.0790432515376491
0.0714335408186978
0.0745741445928361
0.0733478062372418
0.0778104903541962
0.0738496774196435
0.0523880843497348
0.0915406721842948
0.0694339036815325
0.0929831392938595
0.0752844138571817
0.0828797971863652
0.0726579341356407
0.0816903131234691
0.0683525126174733
0.084426015846639
0.0793185254792659
0.0789191598629407
0.0798629931435964
0.0691615816500193
0.0842225465431315
0.0798619221150749
0.0855102711617591
0.078344781548294
0.0767022865916929
0.0825965965203419
0.0875290865551547
0.0581477724025038
0.087330710264844
0.0874666297211229
0.0924929552136795
0.0932046335849697
0.0657280367774017
0.0956721028328898
0.0900218318560613
0.0853363551952608
0.0861597195326856
0.0844063778761138
0.0862608200466676
0.0687583541241371
0.0980526044854005
0.0924972118817518
0.0849373148569745
0.0977125804518736
0.078404042461159
0.0923259973181058
0.0997231840284106
0.0913086474452734
0.0932342703609477
0.0953438251026576
0.0759246956043891
0.0916702393391885
0.11281042748657
0.0775320445527871
0.113743941812152
0.0929509645079811
0.109800253598622
0.0988965095022723
0.104266921318223
0.0934956979234529
0.111764814361761
0.10769113874476
0.103834766544681
0.089998842809094
0.128418126238427
0.103814728544804
0.117010636901689
0.110265985962268
0.0981018164374425
0.0951047361991475
0.140804941071964
0.132682529333585
0.126037318097675
0.106971304406224
0.127685843828194
0.130126670852809
0.126302727794953
0.12753802739936
0.129196541512236
0.130706612117219
0.127810809283497
0.130812429030452
0.136997000451318
0.134159438553538
0.141471244205307
0.12216045502293
0.13190212378211
0.142603320300879
0.17117773541244
0.134612562364123
0.154363080414493
0.158902038791347
0.153512459613663
0.159372993986321
0.15093620734334
0.158231828022171
0.164009730143428
0.163391074877486
0.155770682245198
0.16586901438777
0.179047480297605
0.16057505493691
0.197794245912085
0.173750407392537
0.181251732028786
0.118849312510958
0.250032405390736
0.217765434416931
0.193619176725249
0.205177661163504
0.16358325764934
0.257409504108683
0.235100047315335
0.232583612392133
0.241710116372356
0.246245884617756
0.244962252939108
0.258124985777612
0.261440441355976
0.272430236392771
0.280451493094524
0.273157030980014
0.26357433202263
0.328167591666069
0.328509167127278
0.331152155962088
0.316687316552112
0.331225161788556
0.348437854786165
0.349348918610334
0.355535510604798
0.366675839295737
0.335736295558311
0.435400315594098
0.395502519493031
0.39961268786041
0.393035510710272
0.435426308917633
0.420629910177842
0.437483552573673
0.475556677449975
0.449140488217996
0.473272462691023
0.469724625215542
0.487718360819554
0.4699161901481
0.51509328669206
0.523799105111473
0.512028933802992
0.52479249715225
0.527475528837955
0.537068262496458
0.539993715492388
0.552040153887518
0.531507436445934
0.552767624149059
0.549225383362091
0.638601496346657
0.601398163528859
0.550414775810145
0.581027236329902
0.549928936645927
0.576071490389524
0.565834400055812
0.592415523229088
0.619338337692548
0.575503926149809
0.584998903309131
0.57714739949668
0.584147223738419
0.585467835730913
0.588944067437753
0.570970971202553
0.590984385543329
0.600630273950641
0.567736472609108
0.630942984464119
0.5862584874508
0.588282678843497
0.580217165695382
0.584725638875103
0.579583558515505
0.569322410325688
0.551030181245388
0.592065571994367
0.578243922432995
0.570007395330815
0.565900834139592
0.574798104469169
0.577515203703253
0.551113700359308
0.556049636231875
0.547885582811945
0.538251907030955
0.524066987603683
0.498227579365049
0.57500473913769
0.51081355185875
0.511279620378414
0.52696406075218
0.512452784036112
0.502967075026422
0.494267261248097
0.487962582769117
0.504562746058601
0.495376357598205
0.489900031230399
0.488623447127737
0.482609516530103
0.476854625349605
0.476883457126154
0.485622351486269
0.475947395201003
0.479855912692033
0.472683466555992
0.483754392437126
0.480920397701194
0.472146306101613
0.4673358160884
0.468880795630496
0.469068909731239
0.467252214573033
0.464620485250178
0.466860053160189
0.46965493125329
0.467283746923619
0.458457180900362
0.465123912632416
0.467898315604628
0.465350182977944
0.454196744622437
0.459214012588221
0.453506248003804
0.461664147176709
0.452905704091111
0.452044580358195
0.449842050946191
0.447507898048385
0.428399413667092
0.461763363538039
0.472067399593397
0.43829736270367
0.444454039970419
0.431175795752087
0.435570222151464
0.41856845919086
0.443383536142698
0.446177189285612
0.416073224091679
0.419179314567621
0.41469088525011
0.41633372853155
0.428148148972841
0.404574714104781
0.408484204271922
0.392049723423696
0.381150129308014
0.440781853104239
0.353288611351485
0.462869249686942
0.414968592906089
0.391097683268769
0.36594146597993
0.417244922576371
0.393049168827266
0.389884018072001
0.385334063275347
0.376945526027629
0.401647208184773
0.380246702742017
0.382948043955853
0.361101320682367
0.369226474238122
0.390874106558529
0.353651500722726
0.352842214233485
0.385995399352677
0.349758458004761
0.331467716475925
0.400550011713191
0.374295964144531
0.355711513866613
0.347234207207238
0.349279506816666
0.33261968425433
0.361794004387138
0.35154980239927
0.332807351973592
0.338570155726229
0.325600795973723
0.329256743744234
0.331357524815581
0.328300766361795
0.302703164148992
0.334519290723632
0.322364862225051
0.2980525770424
0.315484682724234
0.31241878046519
0.349105669715153
0.314095123412762
0.298923738978457
0.290915614262004
0.327262526179342
0.299774615252759
0.302377230344496
0.296728741942178
0.28673667906698
0.303553771355246
0.290159846015249
0.279399324870627
0.298328109026031
0.266146317194551
0.292442010949096
0.287168401783325
0.312362816269253
0.299043967830793
0.278355747653663
0.279039207195105
0.283834765710899
0.282080314344107
0.277208887987613
0.26816575795383
0.299401317144189
0.260932609199625
0.295669332271482
0.297936548911125
0.288271074526125
0.286986816415588
0.293378322015699
0.288040109471741
0.295955059784369
0.299625126123597
0.313135963615195
0.291874632689305
0.32160526343973
0.311548266169309
0.320288382433698
0.316975210955064
0.326621615201388
0.328547654132895
0.341103753601698
0.344256958286536
0.349756858779847
0.344865943553994
0.353793679297627
0.351677549303423
0.388842507246921
0.36386595107545
0.371760142061026
0.406688915449291
0.403343733852272
0.429183283999314
0.423853706766115
0.426366672486425
0.429344628959215
0.439203897744077
0.440884157916091
0.432536231437709
0.471322002379419
0.463135480466656
0.463686255679678
0.469445323218786
0.475149409828789
0.474555968530833
0.475825648015765
0.482519187578826
0.494539656381576
0.528058982005564
0.510373989772529
0.507737185424936
0.514030329787393
0.501743981523663
0.518303364790214
0.519646889894124
0.509496814978831
0.511057079863517
0.534945731208724
0.524617487215982
0.522524406097274
0.529093414284946
0.537456148365669
0.533010504539945
0.541035628649877
0.539346711421565
0.553728206077608
0.547871287854848
0.549702411144237
0.523554145670747
0.597726300008268
0.585975879432588
0.555519121081553
0.566147206626197
0.574414312454111
0.582160774917551
0.577707267812273
0.591375231934132
0.611753242816128
0.60801288367446
0.61209160794815
0.598851195698641
0.599630002840039
0.600115555386786
0.623719530505323
0.619251073826461
0.617167000651863
0.615967555640247
0.595920157221637
0.660963703340078
0.635076156997685
0.636329436235488
0.649168230702105
0.642295506274348
0.653430585986309
0.649937484330305
0.652413576189394
0.657990969177411
0.651486704592061
0.652325469180467
0.649186409623137
0.655998567251966
0.66458656856501
0.656280042340116
0.655630681347341
0.658835578168679
0.643157867330069
0.6447142146432
0.655644240099629
0.640638529849597
0.643908488028641
0.660838725009902
0.65635646170439
0.650793105199535
0.645353965291849
0.659067250333669
0.664025502851542
0.645832418635752
0.648965387738482
0.649260958533728
0.655085024819296
0.647967354347683
0.647710968098716
0.6757240752703
0.665532894681055
0.673647578138684
0.670179302729286
0.667318277582026
0.678338623279555
0.674872182029594
0.688172145884277
0.692028494962063
0.688670527108957
0.679873065830877
0.6932425519543
0.689615978703328
0.690448969333607
0.692035980073684
0.703468515943227
0.692385232001199
0.688775762996043
0.689093055853758
0.680747614460552
0.681998051479607
0.683615136190724
0.674214748721747
0.666771624693154
0.658782385358347
0.649307166070657
0.648104111027821
0.649567402154708
0.648835914170589
0.649439100222871
0.627207966448827
0.62984302955765
0.623183978108223
0.628751670150343
0.608268189714484
0.619132215621059
0.612807546278413
0.613337886993433
0.607607092325621
0.60722628649212
0.604756839158564
0.602579958469878
0.60255817746069
0.601339658578661
0.595297093633301
0.592018552464584
0.601911154186552
0.599939306000917
0.599293928253051
0.592364124258471
0.593459268743062
0.60006718701877
0.603413733101029
0.599149472232573
0.587991012396813
0.598968350149806
0.585980899492178
0.600052229877971
0.592841437811246
0.590715113854008
0.58110174026525
0.592250019440983
0.592909521502949
0.593224770871568
0.592537422078709
0.596133618611103
0.588224589224947
0.592178985334764
0.584871309284704
0.592242004176737
0.592078358489668
0.592307331586868
0.587311921824559
0.584459994070174
0.590494736667993
0.590017141526026
0.585478287634936
0.587269685094382
0.58583383191416
0.584684544618081
0.588240927458357
0.587321049022248
0.585884889142322
0.584887550838114
0.575777114896373
0.582345364899216
0.586258558968947
0.583561836320807
0.589222683162566
0.586241488722007
0.582846584533449
0.569278233807399
0.574528853631365
0.569198511184232
0.564206746842276
0.559002788673106
0.554371198399226
0.553703024015598
0.546655240639596
0.546827175144544
0.541429863163884
0.536583091691164
0.526501211010499
0.522589267391372
0.522810348158739
0.519846498004251
0.512619376883066
0.522354057707503
0.515455280403153
0.518595505320646
0.508327872319124
0.514112538045601
0.517740934772772
0.512909613404324
0.511100233425286
0.501265038553268
0.509224636386154
0.513346424301469
0.511285288658583
0.509011812005172
0.512844680867547
0.514966754239818
0.514914669206615
0.523037935760342
0.522719085649061
0.521413882399071
0.519142307425239
0.525860815822057
0.529747280310402
0.534773884200073
0.530689663723569
0.538938242351713
0.539528540102489
0.535359878406443
0.538398900883106
0.539728765406444
0.538392940842451
0.545016551540296
0.54369854166577
0.544379539170963
0.540485798017614
0.54294104888121
0.54607977947536
0.546771485983672
0.54153146913906
0.544765050313824
0.536889897696516
0.539787047354524
0.535855738757857
0.53759087872255
0.531029820145085
0.531679363125883
0.529332299617445
0.525138629607067
0.528867072018047
0.52933935690865
0.521370351821406
0.521659376148564
0.515582033751812
0.519132853164504
0.514720085253551
0.515073660278025
0.510885091753932
0.519252327951083
0.511406505635665
0.50703433153122
0.506073460308011
0.501935051909956
0.501240328696582
0.499358788104297
0.497280104404773
0.501805191477469
0.497683865419433
0.49633340359953
0.496900835188786
0.495290164850491
0.49338002767338
0.490543272724054
0.487623366497405
0.486312384427377
0.480714375708465
0.48828129869977
0.476569921832918
0.477386265801309
0.473913374977242
0.467360993145892
0.464964824068249
0.466327773339774
0.457360949826246
0.451760678185403
0.450585839017782
0.450039414638596
0.442165019910364
0.444961542037858
0.442330589710437
0.441984818096343
0.439208864254418
0.438254344233576
0.438858025964052
0.435934410439976
0.433161434329563
0.434149339130697
0.432232915783825
0.433387515407155
0.427931175382205
0.424385817993966
0.421466368204653
0.415186907677854
0.415791980242096
0.407447310202661
0.400337359646884
0.397649122514556
0.392485908021386
0.386867825513929
0.382361750114644
0.384544890649584
0.382032793725222
0.383498363519627
0.383631374139939
0.386784457619736
0.394395857302035
0.400257554656606
0.409757138357831
0.421295353428681
0.435195650161657
0.446623258326142
0.464088362838898
0.477633778060026
0.493846199908435
0.514680608776239
0.531867636344237
0.55399768137041
0.565421572877573
0.581819167946277
0.600235594037569
0.623805982664429
0.63460714714168
0.65678100973904
0.670914832692282
0.695704492667694
0.704750551924218
0.718087888116953
0.735137873701576
0.75209910641991
0.758017024833131
0.779986718881608
0.799187871676943
0.80389585996692
0.812255994877518
0.821454943990263
0.831946553065883
0.840047248200329
0.857435532862529
0.854375554579825
0.848789266398709
0.861994063038168
0.857606890448584
0.865498495008039
0.859570344106259
0.866939086480175
0.872480886715886
0.866198588060045
0.873769286062485
0.872652426098294
0.865461652412749
0.877015333642906
0.871833208545836
0.875650442525956
0.87695373346948
0.891268246011103
0.885345693624317
0.891263868311472
0.891599959975496
0.914171982150567
0.899841568810373
0.936709307088582
0.926571745803973
0.94127966069754
0.947961665101902
0.949286097062271
0.9796789249748
0.960969277637125
0.990701292797227
1.00828305133591
1.03142219808715
1.03068519935725
1.06637839182812
1.06385568702109
1.0622793524242
1.08575225592848
1.07927416438608
1.08137353863949
1.10399770271989
1.09900871016334
1.10207511958204
1.10834513620821
1.07557451650692
1.07509907984353
1.09033454079687
1.05278353784339
1.07915797923887
1.0764932679692
1.06972768675719
1.07033958527003
1.10220422318359
1.10814357788337
1.11452798762529
1.13588919257542
1.13758661511817
1.12650955817765
1.15833265760778
1.17850835146739
1.20725858168317
1.22898556835091
1.23575468818907
1.28945524876225
1.25944427735032
1.2907722034222
1.30981450117995
1.3398303212346
1.35773441274342
1.34685761036172
1.35519703737951
1.39031721789545
1.41170852164398
1.42920268424038
1.43321978246241
1.46936852923083
1.5420328523634
1.57030459969697
1.59574528668134
1.53911316404918
1.56852963747984
1.69039696201442
1.67345458796854
1.70842610022233
1.65570864618401
1.73578200922319
1.77752900832751
1.78814090730666
1.7058659250855
1.87166449110397
1.78051043063497
1.79633026456199
1.86014809564765
1.74433592184594
1.88361979163334
1.88119078759125
1.86555156614096
1.80230163947233
1.87758916562815
1.81183849070397
1.7980873278843
1.71957343013007
1.72833645944652
1.78583398992473
1.86573168110174
1.82892499170229
1.91902623174149
1.85793469689081
1.82760151638416
1.79386269893385
1.90650902824857
1.88944001403589
1.91043518073415
2.03379755267218
1.99299336702566
2.05677518341022
2.1743592108808
2.24017346232674
2.00032405455202
1.95553582967365
1.89044977973196
1.94256756488163
2.04597955568048
1.94664982513685
2.20913615010958
1.99336976205586
2.1733003497527
2.40211722767322
2.4473888428149
2.22262945609115
2.16129179751451
2.11491016397739
2.17275323485818
2.01486424158611
2.29406052628357
2.05892418420222
2.39460416949798
2.28117507682811
2.5571599240379
2.23820424082703
2.3026481424855
2.3908781745037
2.26137324114876
2.25201557649668
2.37038702715543
2.04893057145416
2.30424954643955
1.85534917718368
2.54035878867743
1.97073142803771
2.18429654812142
2.03243479120815
2.08519593259935
2.06740862559663
1.9078676764044
1.72833422273903
1.82466445794463
1.69986591359571
1.71087220694027
1.73174972517657
1.57259886664589
1.66313394468342
1.67826283844758
1.59583390543222
1.54702975662062
1.49746037413452
1.52476749813738
1.44087805097612
1.47622421179876
1.50150766524573
1.42961739684261
1.42008515873115
1.43118816344041
1.43994806112017
1.399974349401
1.35329554587518
1.35630786031315
1.33268803471805
1.3137986797384
1.24226065223031
1.2283761758212
1.21472688697774
1.16251142341489
1.15764358423434
1.12895256890763
1.04622538163064
1.03341997220142
0.999525306652674
0.977446451570735
0.915191987375823
0.877089236165406
0.832455348570069
0.814528318237226
0.774059930728979
0.741168742630148
0.685020414615484
0.678683539682283
0.645575065549192
0.629802104761831
0.601791704608085
0.581874288042014
0.557109533470023
0.55821528698761
0.540394010054404
0.526111975006334
0.521918342742903
0.521585935653739
0.506613750282856
0.492850967480447
0.49297771154763
0.498082873680733
0.490647112727139
0.486400668674828
0.494648783277817
0.483536196643253
0.485618336722556
0.492385401689844
0.484952117327411
0.494857993053538
0.497148882561765
0.508432352391445
0.497164779771654
0.495962987512382
0.501872715294997
0.500159346788663
0.495300084635783
0.494062524116521
0.494723984973066
0.481500899028904
0.469584890763865
0.475894797423573
0.467634649050345
0.476680289238661
0.471898821724035
0.47698466916246
0.466751923723653
0.471988109007652
0.468938684396853
0.46010642901006
0.465880119691922
0.474712533053546
0.473304237526302
0.478220423371744
0.485797219062304
0.478806725633505
0.482960115652307
0.488779859753479
0.499977970272137
0.500942674815656
0.488924188931437
0.509348237523354
0.504890061422876
0.508091662780871
0.513870217428069
0.507363825581948
0.508700611676015
0.517596216308135
0.510097170753985
0.521505492150028
0.516089602335953
0.527900276065508
0.521459888979859
0.526527506162983
0.526840553659041
0.539884692602383
0.530706356080704
0.547340644539362
0.568505002430522
0.563969544876996
0.574833899685131
0.587240641399457
0.597070110682315
0.623179341542126
0.630344052339607
0.650819422967721
0.66882528821556
0.66919296561736
0.686603507922055
0.698427723982724
0.708788367330263
0.70483698826301
0.697427874494066
0.67859057658011
0.664044487120114
0.664188383346718
0.65059492766641
0.646826793686094
0.628066537980908
0.638734030112911
0.618956948272181
0.618717841018625
0.61934625887657
0.610101602978113
0.625757899265779
0.627363415375117
0.631360536363682
0.628324460141379
0.627429633853202
0.611587437977656
0.621694655219761
0.605882967115187
0.601932759261235
0.59879088293904
0.600161904585226
0.603667515667875
0.580172527521079
0.582124040367133
0.583197329244984
0.577701072280532
0.567894258754918
0.558572973078751
0.559329499898937
0.56776158280798
0.539591854219194
0.55307855911735
0.550315456320136
0.55640426552127
0.551372922896998
0.550617645967496
0.537776974959333
0.532794213228959
0.52485174692358
0.537436134995271
0.533016761100079
0.525230165311276
0.52986921446474
0.517761762593055
0.50618460981657
0.522243298851187
0.526229985654417
0.512056806011515
0.51668758944808
0.509529820552617
0.498492677246066
0.509142987977066
0.509172891608211
0.499484805271109
0.506203684203581
0.499326174800207
0.501401467364983
0.521080754474166
0.506360853396353
0.497031534063573
0.470339131552589
0.482377297954671
0.492874950498753
0.504315631107151
0.492209067862222
0.502690383132937
0.492389660849583
0.485705814796241
0.483702170447715
0.496067402017109
0.505381550689222
0.494718302467882
0.511818719977556
0.504587852822324
0.48835140952275
0.506433345350984
0.523889819744844
0.518434057837167
0.507069895951481
0.525928542331224
0.520395324655534
0.542781874629731
0.517400950806758
0.527863523995199
0.539418067370737
0.52541218846622
0.531405967244759
0.537291144229165
0.531760115902027
0.569031598499767
0.552868342880051
0.563743509381567
0.580896849010344
0.601006199359505
0.580448899330663
0.622110261824769
0.614435720397253
0.644857432504189
0.627757622072189
0.628169743523417
0.670455376754035
0.701799531738038
0.708353290137452
0.709223525726106
0.759002854468814
0.791361000029265
0.77797183707367
0.800969924603067
0.810119982322133
0.837687774623259
0.852130785114732
0.860881802146393
0.79170925277426
0.853910623856012
0.905891683242452
0.865701982856788
0.785460587604934
0.888817638126152
0.83614539257982
0.906550853667811
0.808560096865002
0.827554508335989
0.881187694244167
0.850473972736391
0.889130727389346
0.861670390608673
0.83623256420154
0.834207558195277
0.805383719739328
0.845046076042687
0.818021451082647
0.859754271736379
0.766797879210915
0.763340181290413
0.826333153196017
0.817735075286542
0.798465096648003
0.795565779405107
0.789166537819392
0.822517375736515
0.791092893897068
0.755231879128007
0.767145002633749
0.788107959783942
0.770813359933518
0.837386987869352
0.75034306025463
0.737772146850526
0.746698349097257
0.675417871987606
0.675168631754402
0.794949018897261
0.72329198349263
0.776045183877349
0.753799493808805
0.820707311096328
0.751671763835101
0.758782204594386
0.762767914637983
0.867777093618211
0.787623018154423
0.782912839370321
0.752107078675649
0.758808783095274
0.767840291588678
0.741791428175641
0.660659906980174
0.758442882929817
0.82427609403558
0.831013182204897
0.739200028989262
0.778942229123306
0.811537076639933
0.765387185778026
0.782751272247473
0.874619432143344
0.772631559225396
0.834678213473711
0.906515336299079
0.799487597603476
0.810029251746809
1.02375476887333
0.956054771355299
0.865968832726544
0.849195244617329
0.993978049807663
1.03098723123525
0.990460131672804
1.10471824747154
0.888492929644894
0.91495459744584
1.12751646002609
0.891125466739365
1.02046718475595
0.946974193368108
0.994505175261442
0.946449064856939
1.12756976724946
0.984301190343194
0.957613318115792
0.852243865540466
1.20400758005997
1.14955669824316
1.08979264069531
1.34020207324011
1.09892678737095
0.985534857950122
1.05545295451091
1.05757793732212
1.29251668621623
0.985131193954824
0.92373457045259
1.0271350769276
0.989133217419053
0.785688459538034
0.945205508463801
1.22612378465953
1.18424706360551
0.915337000111407
0.846550330752048
0.952496012503034
1.24374642096309
0.85351161273941
0.972900635655097
0.901660103614918
1.28240239748706
5
1.84523767850003
1.14434783005482
5
1.17596899778321
0.908701147886075
0.838158563882665
0.967221348753911
0.81578093901712
3.34563413209013
1.13130733570849
0.664619666355194
5
1.67404677366477
0.98636985205373
0.886061912035359
1.28212971100632
1.28493151807548
0.578861105764536
0.75174933309605
0.801132979297201
1.15821013599756
5
5
1.08731247488802
1.31725040670662
0.960855453650359
0.963593637839182
5
0.787558670194223
0.726462707896503
