3596
4000.36533379555
650.420452594757
1
2
2
0.0246061811829195
0.0204434771855415
0.030242151645644
0.0155365242602828
0.0279037812301105
0.0198539557485087
0.0348022937971087
0.0253393242746601
0.0262456210582464
0.0209405914478327
0.0269178062071336
0.0264078970736187
0.0377286574439405
0.0137032933475934
0.0253526899722074
0.0159150195229843
0.0274156749971723
0.0138112055199567
0.034202303360741
0.0145745639664605
0.0254906957343081
0.0229154023720744
0.0322111350135287
0.013935625278141
0.0354395361051229
0.037417101659095
0.0223375231166717
0.0145916530375894
0.0371888866909187
0.02283070788795
0.0416652378262243
0.0181454833334685
0.0364414794374567
0.028359711374765
0.0345181928980907
0.0264118271725984
0.0354366477510505
0.0195900535774405
0.034618681532833
0.0184307981454813
0.0419397264505318
0.0245365177093579
0.0294798474031637
0.0182713654979224
0.0206790936353037
0.0232689081923478
0.0314201939585491
0.02568829684723
0.0272453381338711
0.0250525970931117
0.0327390600871534
0.0101481896963308
0.0344323216326012
0.0279415436667777
0.025921746643637
0.0239814457353878
0.0308300015856241
0.0190558820529134
0.0181580298752727
0.00226160041859243
0.0312151991069644
0.0361246079325582
0.0250225448929632
0.0294631092759634
0.0335381463847093
0.0262761761920088
0.0213928363020216
0.015001388123953
0.019657239752
0.00991127789087647
0.0154209277237439
0.023734432204111
0.0441476141467443
0.0211927549176571
0.0239046132266734
0.0249474709144223
0.0414596875615734
0.0262893326780171
0.0193224124834774
0.0156988230646559
0.0307860061246476
0.0264965351999782
0.0215742934924326
0.0178775972370268
0.0170027325565609
0.0327198579699103
0.0252437528984486
0.00102113911620793
0.0549538465827526
0.0326878256277619
0.0298767835180773
0.0138147208600627
0.0275355197640979
0.0175125400477926
0.0275646290961971
0.0227449578454949
0.0349044560870901
0.0174654835391584
0.0321913780866609
0.00575822550257047
0.0345195137202041
-0.0141706421368218
0.0631167874263068
0.00170970693217833
0.0437299909496904
0.0403702028597978
-0.0110455876858966
0.0456177379554508
0.0474508037465443
0.0234893271610666
0.0184637199350121
0.0153657874847372
0.029924474969991
0.0249808203508611
0.0112097941454173
0.000540677869858983
0.0632416401566176
0.0293893067289829
0.027417198402584
0.0154631281752415
0.00385864006482979
-0.000492387528496581
0.0699565331374807
0.0090994991438997
0.0322170916969051
0.0181387539422375
0.00423727859470155
0.0282658060483938
0.0634094239777188
0.0221158402616218
0.0292348012519547
0.00669283680625949
0.0234007210397331
-0.0203044124944745
0.0527154776945693
0.0252981190057018
0.0159856774529564
-0.00755883678520811
0.0195702051235666
0.0583341500109193
0.0439055000882674
0.0189750789112278
0.000584463152842138
-0.00183407661989011
0.0636089397013767
0.0231009412106517
0.01672296706528
0.015877111731089
0.04825438703507
0.0124494367816845
0.0284854767884172
-0.00415520931182241
0.0325309664377226
0.019615103930109
-0.022606302400761
-0.0177576836868456
0.100455407210532
0.0045196766593304
0.0785017299774222
0.0297888653760272
0.0378985962096885
0.0288383302806733
0.0219112083279218
0.0135243123629949
0.019434255254811
0.0141108016343884
0.00882362761883347
0.0512591725328513
0.021473973906814
0.00649588809908116
0.0409537778468981
0.0178157826835801
-0.00750882094957982
0.0707551994471831
0.0486596626782208
-0.00989031801520815
0.0577105139666547
0.0347200408075884
0.0131090892944792
0.00298842542412936
0.0577082791491365
0.0258990703889977
0.0233116548712329
0.0156911669072168
0.0172138160711666
0.031173637445656
0.0338318652974336
0.0167023226981256
0.0305829607019373
-0.0193484561639204
0.0123078297396706
0.0602662620344625
0.0638139256737199
0.0165643778536732
0.0218300604707284
-0.0240249528335547
0.0238551367273394
0.0516089355356099
0.0262291262938942
0.0239969300931241
0.0255153651142815
0.0137213522671625
0.0190739604331538
0.0224323321008469
0.0175084130189567
-0.0289175918122321
0.0467519379648845
0.0494120671736315
0.0208060693785685
0.0178749108957476
0.00803339897259594
-0.010606734786414
0.0549659631307488
0.0629084777358963
0.0169062822205714
0.0190512602645626
0.0060831759403947
0.0171012653631899
0.0427540076363606
0.026229763062753
0.030179660588523
0.0192303250584195
0.0264908696475987
0.0203853732634453
0.0295884406632418
0.0230980086193953
0.0222578745906387
0.0152612705441951
0.0191245837918562
0.0243267128166717
0.0328751032930803
0.0268712316796403
0.0308133979092101
0.019662748818474
0.0168793948564552
0.00182819046567113
0.0491500684004128
0.0346387446821605
0.0310317814260689
0.0178555900191191
0.0236514312288109
0.020487612197635
0.0239955093563296
0.0206319802432039
0.0166178755840704
-0.00334909435438916
0.0432201506893181
0.0347730578479231
0.0218427684268443
0.0114141667268728
0.0236726101441987
0.0506693709286841
0.0223800083829378
0.0289495610855331
0.0317963502508467
0.0125425060135653
-0.00800632265482202
0.0309011507626761
0.0282159814963457
0.00921688396881338
0.0148647330002753
0.0306071541868392
0.0180609037131023
0.00234055136833104
-0.0135304480821056
0.0682980501389285
0.0400717730126717
-0.0145836086109756
0.0646053012288107
0.0522062264738426
0.02986221981993
0.00879762290049132
-0.0588142546146099
0.0664711930539916
0.0855986359040785
0.0269549013032862
0.0186111571421451
0.0312029225633975
0.0200661726411933
0.00867708514091859
0.0214237406577684
0.00551029823856848
0.0375881752967752
0.0503746453448924
0.0580200955302518
0.00358432049693442
0.0095113384015371
0.0552936265604802
0.0218914902388407
0.0232451115599205
0.0196331705135901
0.00880609574209688
0.0116748305558018
0.0415274567569404
0.0213261885998727
0.0286400695696956
0.0213178484616502
0.04331100147935
0.0332557916112198
0.0136719819954833
0.0248187686366483
0.0313052953061443
0.030384088515076
0.0256752262937074
0.0260534770057875
0.0260427657775775
0.0115449536481769
-0.000527342024364431
0.0659865972960364
0.0284044281901609
0.0133503921220374
0.0430342889871377
0.0372260245109937
0.0211886317700097
0.0197567224208144
0.0226113666979999
0.0256865412613566
0.00408042250229633
0.010562951037413
0.0338304238692837
0.0345089972926197
0.027963110330983
0.0357570339925487
0.0214560580069784
0.019206818480718
0.0228742078118236
0.0264888976625603
0.023653742243529
0.0254157654084832
0.00816800019804589
0.0304337963875616
0.0327221281161731
0.00741101304571697
0.0197021996340895
0.0605120203358599
0.0310529193705506
0.0308905561841472
0.0251265088399722
0.0319921406502019
0.0249322386386857
0.0283351938726825
0.0155060017756693
0.0192796674078099
0.0424963137078105
0.0369163815302966
0.0104178108841216
-0.0126185117650032
0.0364073079468948
0.0675627054559297
0.0543772762398268
0.0213462950928075
-0.00149708424339694
0.0255071592621413
0.0523433535396
0.0382094412426046
0.0498250475685463
0.0408651788610688
0.0243002516292215
0.0372442751242328
0.0186247716483174
0.0362248450011276
0.0316334339483739
0.0305442005964051
0.0313327865616557
0.0333422340456181
0.0380179879078171
0.028427135327057
0.0248573240881551
0.070554111256649
0.0467639655902738
0.039323140271632
0.0302204995444026
0.0265148042519289
0.022568254864883
0.0346152353139655
0.049103727332004
0.0519440398970796
0.0413947165790081
0.0619376729762901
0.0518044389070577
0.0359087140142858
0.0430679274380497
0.0349886379138979
0.0462108252311936
0.0373757088813593
0.0445442907345973
0.0383297768060566
0.0491977105994973
0.0460672289008826
0.0448267912064028
0.0360342127435174
0.0508632619388002
0.0520282508938081
0.0603491154953947
0.0356531166212973
0.0322848307281563
0.0107276653601305
0.0802630995863
0.0835751448713338
0.0739429660046425
0.0613561865472704
0.0577114354598641
0.0604637306541849
0.0561910724612634
0.0528636551192904
0.051340450382808
0.0512107538553467
0.068306759411381
0.06601732333134
0.0774599305812983
0.074745075359728
0.0550547418104861
0.0619138931946606
0.0696516117632787
0.0577856055428733
0.0980692208140403
0.0808708526566261
0.0546714782647759
0.0807205228241687
0.088919704232351
0.0632874946373578
0.0840420792338861
0.0833623441054921
0.0811399068041496
0.0786591299857366
0.0761737038957038
0.0793635952271129
0.090286803958268
0.0908441141618231
0.0841940341058204
0.0815517487922781
0.0821253267733969
0.0855028045804031
0.0979565309710779
0.0898895160199736
0.095468512055143
0.0906996347760095
0.106062112883989
0.0886008545430336
0.0972542436942455
0.0911546814111363
0.0929603453119391
0.108497494123806
0.121087967349567
0.113056040784661
0.103533418218118
0.106574368320963
0.110986758267832
0.110073202171216
0.123310726573004
0.111396143275964
0.110914860948533
0.110193374627234
0.1257814680041
0.116691435138469
0.114922768888477
0.115585541989711
0.138113613266796
0.121685927904105
0.133264757034314
0.111182176884802
0.107459883522531
0.135796051648523
0.145165829598867
0.136498103960445
0.166439009979967
0.153411397390557
0.132534496584651
0.137682486397678
0.158603789118413
0.145356262455416
0.146103274415333
0.152673193174763
0.155131476661458
0.157018067669856
0.158457344878924
0.146424953739588
0.169792537021485
0.152042370158567
0.163754486811109
0.180871519533063
0.171896030909474
0.166238123099641
0.179103880234872
0.164773572960295
0.185054358918193
0.168804548386896
0.165623641977187
0.167483924584486
0.198453047354605
0.178865073359393
0.180029631436192
0.197810427562208
0.205145074769463
0.175591185973171
0.197620183460922
0.19291801187289
0.205151943056359
0.195258417125627
0.211898307700981
0.203279515780653
0.195728290579952
0.226567044550301
0.219390886957368
0.210623323192495
0.248581100548466
0.22870709030479
0.22856224553281
0.227723134568076
0.219901736334794
0.218733141804495
0.219913969127137
0.225079618944218
0.244408354767873
0.222339718625361
0.271321490064227
0.233527660631511
0.259407836952172
0.23771323656861
0.228413927066412
0.24905973918162
0.252674592526477
0.264220798277593
0.27470419740301
0.239803306163989
0.258186904471823
0.259106051008255
0.286949976923365
0.257250209668018
0.278951744633911
0.28036952568666
0.281400005896318
0.288537394702983
0.284345823145771
0.280742169201888
0.292504669516239
0.286971750847761
0.298912798225861
0.29160620597743
0.32498769739829
0.280452289153402
0.319029834916949
0.292349202106216
0.309654722317145
0.30953918377631
0.311019626140374
0.299821818818866
0.323965147325559
0.330395542696373
0.327993409724417
0.315300555482488
0.319404818856927
0.305958529049827
0.314382633152665
0.328744214245102
0.35919353052013
0.330426842292313
0.327550911195843
0.359912817851759
0.324657523455229
0.334888874938475
0.335254358181988
0.337094240410268
0.364915352664129
0.352729746445033
0.361881171011609
0.335988913330215
0.371404887454275
0.342920541696137
0.360678443202533
0.343958969402285
0.384998209604216
0.349051777188013
0.391386733334914
0.370646932176274
0.403106002998874
0.384342694858677
0.395834190642383
0.374705801552628
0.410153442665672
0.392647983454835
0.392227980103878
0.382176397632182
0.400140050788697
0.371348183872276
0.410572403514911
0.380354656327599
0.421873817041527
0.387150305622278
0.402200651846054
0.388645975683386
0.417539025563829
0.435039776205596
0.452646856230412
0.381529924953547
0.426314985976774
0.436748490622783
0.438058248624822
0.403143115667388
0.455306750514128
0.424477059864793
0.436365017541225
0.414163188916298
0.44510617093554
0.438276706332058
0.423952780549136
0.434195998066415
0.459276034409796
0.440982948161475
0.44456799667643
0.426331203039223
0.472234541120032
0.436657387026801
0.467163066839331
0.438577070911435
0.469078593934338
0.426760543560428
0.488491856738954
0.449288946330315
0.462332949515163
0.462104411676068
0.481712260697298
0.471428419641669
0.464305632859108
0.478180372259714
0.474344053010434
0.460876831159475
0.502959655794487
0.445898525073149
0.497215936270791
0.47966972361765
0.511563329575961
0.484671822825999
0.495808129505555
0.48078845044359
0.488011787495183
0.489713001780263
0.484245095042504
0.483788581214329
0.507605721431871
0.464404506426258
0.496576803019237
0.495851691860786
0.510779799755475
0.487479891085362
0.53091405778352
0.486751615094058
0.504865189688833
0.479491576314577
0.525156320658113
0.491256986820431
0.511068804167879
0.497370474253213
0.544912261126056
0.504912188742492
0.517626413547111
0.50683499470214
0.507670487994086
0.495675819179107
0.524426569229098
0.489344834382217
0.539810829348708
0.510736845671755
0.515724092517252
0.500097042581371
0.531218498918329
0.500778621708752
0.531001929717101
0.49366412281855
0.536252495884814
0.497613594920583
0.543755275799023
0.50941529780845
0.529499649925241
0.516490442267186
0.524830023983552
0.502703261051581
0.553910492315503
0.520923112136491
0.577305896778564
0.529138109941412
0.529507535595581
0.524792695983118
0.563771625743027
0.518994349720951
0.529263458455853
0.539534031968255
0.53484209809452
0.51401324461934
0.55409776494438
0.530537787468688
0.562507464276718
0.509544572704842
0.527683305086972
0.526019022692212
0.555668202256739
0.508708536359917
0.57308884864094
0.505415740465675
0.543034628869734
0.508932512352019
0.557493589145049
0.517724075991976
0.537555085523302
0.511501132573853
0.581940245943019
0.535491684524887
0.539498183000513
0.518733888875716
0.510509563050133
0.518515201532386
0.544892286465999
0.524085931019771
0.543176927541878
0.508272079721112
0.539541070909261
0.527005036700286
0.53995438351458
0.529583767734584
0.558185142768955
0.503453522537365
0.531279743844156
0.511497253255295
0.516971955150498
0.521259916749922
0.532631741214185
0.525788441970194
0.537336396265464
0.527572678733657
0.547541258262625
0.520299897046429
0.521148621328322
0.516722511471703
0.537389710567646
0.531853127408914
0.549851064899584
0.507987523072484
0.54154428773569
0.487005854072542
0.519563756213747
0.494304241984493
0.531987495352976
0.499459450735694
0.53736624500092
0.487210176711245
0.51853362378185
0.501760583083775
0.531098862316027
0.503705029831227
0.525141527912626
0.503519316311814
0.51819056626471
0.499713715086104
0.517002351131029
0.51568052462975
0.52756896525582
0.493164965732677
0.513989345477484
0.489393160597435
0.515075094672406
0.489558543696374
0.524222798984299
0.502190839643661
0.505071133033538
0.508437177741713
0.504191141757329
0.500679836098938
0.534942016911145
0.484216051452822
0.506513071718165
0.48720004977351
0.497010249631975
0.467652474849435
0.507195863265859
0.490284486734134
0.480561687912557
0.476268814677396
0.492192994714255
0.460924260762137
0.490928855003409
0.468237078542698
0.472653856436938
0.475777942227859
0.48747833073912
0.470393346980985
0.483262715989942
0.470069890354772
0.490869866816863
0.454220241686365
0.496289372867794
0.47717811206738
0.458266083857333
0.449868422651057
0.465650782334859
0.441127689811317
0.459519913722034
0.445178242120719
0.462242171215535
0.444931532788051
0.45444334724511
0.446788698629273
0.472613963377062
0.444107348245495
0.448666978264781
0.45131683124726
0.436791814150187
0.42328558852667
0.442207019084539
0.451092779009821
0.450703882102081
0.439246857714049
0.454526658786582
0.431796711955633
0.433640184689123
0.414519556448712
0.437725907618619
0.418840020212794
0.424718589703221
0.419223159995429
0.42664589920108
0.427616120645147
0.42964707115563
0.409240866796795
0.431301104176373
0.387647847528883
0.418339094009443
0.413050684665338
0.409118340783507
0.396114599503198
0.413603947011356
0.402607109576533
0.417614552913576
0.410745505817022
0.412300542764521
0.39259743959004
0.409398092642922
0.391532423586907
0.399295401822674
0.397844685177533
0.401109624952327
0.374431296902893
0.390939086211566
0.373831394999384
0.386767896172039
0.38576013523052
0.392471076456669
0.368912881037144
0.385560870058975
0.379489636049594
0.38848278045805
0.359609447640769
0.372749471840103
0.365511389612536
0.362924316357778
0.360294575634214
0.373045827828351
0.357714274479708
0.377561573991769
0.362833360348488
0.357352596830534
0.348905470342583
0.363717475021262
0.353337774265385
0.358947439487384
0.340872526090851
0.351829354099301
0.322598154652231
0.340263664100828
0.33234525381939
0.331734073472098
0.3371050746152
0.352839177281982
0.326182631096881
0.337141680255354
0.33899304066251
0.338011734167374
0.320696919979525
0.339285748600464
0.311784552633105
0.334533422682585
0.311744508271353
0.327733716002306
0.319763545966865
0.324746778230985
0.314713520335793
0.319243373411878
0.297097201600701
0.312118871083612
0.305693606464838
0.322415701814361
0.294115692883661
0.302119007396354
0.292386341561544
0.296248822830851
0.287246669114187
0.304075832229694
0.288333141407849
0.295683876909593
0.283451807289399
0.283387165767841
0.273927955117542
0.291333096751081
0.277993899224931
0.283921864288268
0.278676599214868
0.290190451248045
0.280765778752171
0.283345280285244
0.261792378367044
0.270049069554245
0.278685601891766
0.269362116540221
0.257929174347925
0.262603385510174
0.256092770125656
0.270937459395288
0.261025690318529
0.259397883238401
0.255104146093623
0.263110973981823
0.255342967114443
0.267022006139345
0.248145046482542
0.255066557509816
0.23937984234257
0.250852953977319
0.238463698981533
0.251226925761848
0.239209295249796
0.243179761713144
0.227524585510363
0.231218389675767
0.237807536523873
0.232732675968198
0.230269610946418
0.241264775912371
0.22995091626877
0.233616666653027
0.2323230795055
0.227112542071774
0.218568149685942
0.226369615442504
0.219191494112879
0.221487962202112
0.205919260241446
0.223034432407643
0.208486555956795
0.22143973610537
0.212652748244481
0.225925620160097
0.212464406262501
0.209317706789208
0.209084516139643
0.213284586113091
0.209580663477451
0.209412698074576
0.192939421250639
0.196873565264456
0.200445206200361
0.206389673773732
0.192058236562089
0.201402544348969
0.19749106485889
0.203227796657586
0.196522131306043
0.198979212731442
0.195849767175274
0.197570191523914
0.18610528926721
0.189113449524164
0.186084938098671
0.190681339795216
0.184925337018655
0.188838655304062
0.180016282583082
0.190577936963578
0.177730821403891
0.183228194513736
0.182144496006549
0.185745423932127
0.179047237626378
0.181330945326235
0.169620819017205
0.175066539518529
0.175298040222749
0.180169411194127
0.172550208854184
0.170466692209652
0.165259539759987
0.176750040889971
0.171815327166873
0.177211234629858
0.163280940040758
0.165549527615329
0.161557466123203
0.165454892381856
0.158163289312779
0.159510735610116
0.158462542816262
0.159698807600322
0.151296730565988
0.155591518270492
0.151904996898263
0.164891865665304
0.151942397092628
0.167466735387161
0.149383410539005
0.159551431698106
0.155365294716521
0.150896987135605
0.142037210619041
0.15320962914354
0.15123565182665
0.15188075872002
0.144392031438524
0.146225603032389
0.142846450100619
0.152453555465521
0.139424721489663
0.140250343257412
0.136245578019863
0.141132258173011
0.142174426430695
0.14811546981408
0.133868263661251
0.138437862055538
0.134927187895878
0.142230683689735
0.130347132083596
0.142455686423361
0.129891387879215
0.133653241732075
0.131909538812795
0.128519013471092
0.13105149151562
0.136313593844105
0.125665906386786
0.12711738041928
0.126618486040688
0.127418429839922
0.125106886369014
0.127637099026454
0.125556130425797
0.13099760989588
0.122282387584775
0.126114632992895
0.120571675657729
0.121066033771876
0.119608156452841
0.126166352583077
0.111869980050787
0.120177364842779
0.119021114529814
0.120924487074726
0.117770689678322
0.122175379831477
0.111227208561294
0.116931915338726
0.117946360108453
0.117483735821509
0.110621816156545
0.114866481952956
0.109780768847191
0.113404373526661
0.108169774366515
0.114193132134312
0.110886104469152
0.113494678255885
0.104590236261322
0.116733146775644
0.106458682013844
0.110752633888275
0.109652656620719
0.107070278327884
0.104780359310487
0.108365888697636
0.107001339936114
0.113725697926587
0.107940928901218
0.11590950237289
0.113383373407315
0.109060751530997
0.108179093865026
0.119860390559262
0.107546087974609
0.114370880811786
0.105721623562269
0.11102469484715
0.106904043944066
0.112854207900947
0.113207329080759
0.115613595407774
0.116343876146922
0.120423248069357
0.113872795074535
0.12312300749352
0.120582711170625
0.121825166547869
0.112442601352581
0.12262006265139
0.124482614854985
0.126891489917344
0.116517851264002
0.122869014108197
0.120718363898188
0.123533289991665
0.125032233234977
0.128786487502948
0.127130786078188
0.137633657669448
0.125840945143404
0.129416604668324
0.132157415259259
0.134104130000392
0.130298797033343
0.135167873502625
0.132078414949285
0.138991188839374
0.132994879663043
0.139459165644643
0.132303447549571
0.134568168420497
0.138374224686068
0.14184570046096
0.139861848256078
0.143580738516513
0.1447373541762
0.153220297120563
0.141964416317248
0.145129865043076
0.145434033132252
0.151355773721431
0.145056402300186
0.155930593286818
0.153982041447785
0.156937688374388
0.154311294054571
0.164144486823747
0.158350175228594
0.156496670217997
0.158377138276974
0.167690380121992
0.157660578905422
0.164555332783658
0.161967803535447
0.165877464673757
0.166675669496573
0.164631824222282
0.161171038070091
0.173849297605572
0.165321260963397
0.167702163838786
0.160180739087451
0.169874517021151
0.167407833523528
0.16967835075761
0.162335972251834
0.176197587321745
0.16426441264689
0.167935076106962
0.167199944284143
0.168204861544776
0.162926555552859
0.165686496307257
0.155749286113396
0.161986586437044
0.159378822164806
0.164272079297695
0.160672868654387
0.1614791088322
0.156960683549996
0.1580488441811
0.160700195834181
0.160297614887351
0.159365143123261
0.162536846467895
0.155154768286511
0.168141832925808
0.165041904231988
0.163099557305176
0.158963561236349
0.161819111675912
0.159794300533771
0.165548074361421
0.155259449898606
0.161478239668575
0.159955725103177
0.161256930152802
0.161471911112767
0.157813668395745
0.150994629399942
0.157726714163116
0.160564611445869
0.163820051449541
0.159039455846532
0.167207752225406
0.159968590014398
0.162967434742666
0.16185196136102
0.156294194409885
0.154863788180768
0.15702723936919
0.154712353691028
0.153597563803077
0.153745127701895
0.157747532544277
0.153555438021782
0.152538827090862
0.151770584243686
0.154685636046728
0.147799434874813
0.150854697675283
0.143068048207521
0.144965191228238
0.142463935672243
0.14521970175538
0.139647453294984
0.145434538052389
0.141546973593784
0.144616945908876
0.140229751364058
0.137595390926371
0.127023515314303
0.131134208641002
0.130885805104492
0.132425021082562
0.133120373805271
0.133391338261411
0.13358002961696
0.132031299609175
0.119550564380111
0.122522404960774
0.121618716569294
0.122575555178698
0.119427639334606
0.121980412505518
0.119776364831025
0.116865882408522
0.11098577934978
0.113978926410976
0.111278733309565
0.113544667079524
0.114225649957107
0.111487467802907
0.107877057535979
0.108544101055203
0.0988303536265839
0.10635283481772
0.105609681254766
0.103250882553057
0.0991870959458056
0.10721832381653
0.10326651509646
0.101526190349096
0.0987138217692356
0.100876636164672
0.100022383422379
0.0979243050626191
0.0906790094143365
0.0984414542013529
0.0974534223798053
0.0990249690017684
0.0968191573197505
0.0980628199190158
0.089067974769874
0.0989230694685088
0.0908244998547227
0.0919957657733204
0.0929689649709279
0.090871876548123
0.0887287850157951
0.0920675862208125
0.0883995035630814
0.0921840529049298
0.0888757499755345
0.0916336470037822
0.087342962408866
0.0885664342789094
0.0884551289797118
0.0925037991360616
0.0816757226269126
0.0851564720374578
0.083603192894974
0.0826103563194619
0.0813425819955196
0.0847711320221062
0.0815140437960876
0.0869082395979206
0.0796757494714096
0.08268758735937
0.0810922161958104
0.0831567861625237
0.0818667448837915
0.0859955622900403
0.0854640517006277
0.0823400424054703
0.0795359212937359
0.0821602176700957
0.0801451922816991
0.0819137599686886
0.0802747026389062
0.0831876117575399
0.0822090353140403
0.0762164923590368
0.0811669069157926
0.081288144428785
0.074330924436574
0.0770240393673088
0.072125404114859
0.0766974054992815
0.0791282839047794
0.0768674948559631
0.0722323263647043
0.0763485866099703
0.0722991502815108
0.0756755544836657
0.0736841002229402
0.0766012297152393
0.0742832763047276
0.0762599641807469
0.0745074812201081
0.0695816547461169
0.0757166737916584
0.0740474335432179
0.0709590639593763
0.073844774299831
0.0725566318903304
0.0729142913325865
0.0720324876936314
0.0700719613632242
0.0671791437269584
0.0740672262172884
0.0720710525657457
0.0721962822640807
0.0728408748484317
0.0715628510496408
0.0716826643253126
0.0656537378716109
0.0669995070384841
0.0692890822740343
0.0682449788842143
0.0684227312628639
0.0627171155760471
0.0677579735935106
0.070819267945907
0.0699547316972975
0.0650959791680284
0.0672660958419816
0.0633393372377365
0.0667035596144141
0.0633490188047229
0.0635504180500365
0.06861638175371
0.0658617205133449
0.0679211546860158
0.0641452978369836
0.0640747619838593
0.0687114991562131
0.0686999865502495
0.0631227524196292
0.0634062755025818
0.063930454214667
0.0648007668569639
0.0678669287244295
0.0678002928644977
0.0646783453207943
0.0642636986497324
0.0663807590601382
0.0576392789619432
0.0656194132386944
0.0647786985313385
0.0665368857460833
0.0623695429531375
0.0688103799899913
0.0625310012876998
0.0639238263049947
0.0621484119764346
0.068201720534921
0.0647947973088209
0.0607495396246107
0.0592052074382569
0.0670954486223771
0.0604662408376142
0.0614557641191518
0.0658463570596823
0.0645219575404434
0.0637654556170783
0.0655170329284635
0.0573165357707544
0.0622770624784184
0.0616490576217538
0.0659026130843501
0.0628357635471238
0.0596426683771952
0.0571790556460374
0.0609279971486485
0.0587361866316012
0.0603967636083676
0.0578059581634872
0.0602953415115175
0.0606032185798762
0.058221370416095
0.0626304182429686
0.0566971531263942
0.0570698657891382
0.0607440980294042
0.0569266967230178
0.0616479593090052
0.0560080460354472
0.0563541041168301
0.0540306703650601
0.0615672230197936
0.0552845027802165
0.0567412437035001
0.0554000251458609
0.057188846046493
0.0540942960454846
0.0543056468082985
0.0539154176118467
0.0579919529239204
0.0565885375035072
0.0568368314565507
0.050353026844875
0.0544525300731149
0.0493488469535311
0.0516876286097096
0.0538479060909378
0.0541851000152479
0.0505443317197572
0.0571553670196596
0.0525134103906017
0.0526341140742384
0.0510905882269171
0.0540115704836128
0.0541743481871026
0.0537891536803192
0.0498395564641381
0.0537371462242487
0.0535189339203788
0.0509679347491128
0.0485881827795476
0.0517606358305269
0.0502997906013399
0.048528737439385
0.0490135530218049
0.0513771691547423
0.0542660964482864
0.0452050295390783
0.048403982442731
0.0461996877804788
0.0512120757362982
0.0405117105725897
0.0480589241543982
0.0492555844422955
0.0450839376417243
0.0511431366851496
0.0472734087821229
0.0465766834911789
0.0454448332181804
0.0476664528481849
0.0446089047311728
0.0453582786361801
0.0442209098125949
0.0454114975820384
0.0435095856165927
0.048726137626152
0.0441865563434462
0.0476593946427316
0.0465737824142612
0.0432184382233886
0.0440962108322292
0.0454909382959856
0.0388590996693073
0.0436736529433002
0.0419675399203508
0.0458107866400822
0.0418386048727848
0.0424742692396994
0.0430645220042151
0.0395466938728236
0.0436090097208966
0.0413905822400818
0.0406820854148012
0.0413451159604946
0.0393454112424437
0.0435693152680695
0.0423080216570713
0.0404774050215611
0.0416539097573816
0.0387683152512848
0.0377717033824117
0.0413620272494693
0.0376438120744248
0.0433254990681348
0.0396923100444351
0.0417495005349616
0.0401439295578732
0.0405507644345816
0.0381483057055979
0.0358029222164105
0.035427297470532
0.0383370123803914
0.041342120383775
0.0393751575083706
0.0380609296239682
0.0388881953933697
0.0383275646391434
0.0362216379671925
0.0353357387711785
0.0393797314103816
0.0368842891022913
0.0388727834552193
0.0405508344219965
0.0392240460144305
0.0349633806955474
0.0373790166810863
0.0354953445970463
0.0349889843341495
0.0371555731637282
0.0350595792417636
0.0389703730152274
0.0350234112758954
0.0306521239781058
0.0349379766310359
0.0323990151261487
0.0353633687588027
0.0376416427735507
0.0366259671265133
0.0342356734972304
0.0370682490133655
0.0334033217723655
0.0330050025237345
0.0350972433211716
0.0328565997377596
0.0347706719164748
0.0333923043916898
0.0332480196261756
0.0302909511564065
0.0328028063807337
0.0368786541495643
0.0358151340717344
0.0333182723583045
0.0329436018980231
0.0365695020693649
0.0339756673806523
0.0327759524613051
0.0304551385441434
0.0348049820273795
0.0323401029409194
0.0305586425675808
0.0356395729694213
0.0320859047689475
0.0341237513858396
0.0338041262335646
0.0337908751451465
0.0344806717810126
0.0344629831695794
0.0336260996220766
0.0311595150949897
0.030285219961207
0.0312848046735759
0.03601136428858
0.0313937969562249
0.031141952140942
0.0326331169416568
0.0308604851585785
0.0313096573363571
0.0277423837143824
0.0288331452785013
0.0329206819886842
0.0345690747082883
0.0317951260267394
0.0276739739649163
0.0324304627481505
0.0298456674291959
0.030334316066828
0.0304114262062615
0.0303873243473671
0.0345393723411342
0.0296316562291099
0.0270999507903618
0.0306295767889747
0.0312114941910146
0.0277426066552945
0.0284305787047854
0.0272572237922049
0.031459164372388
0.0297268067758935
0.0297438033739417
0.0321467598943217
0.0313649541094575
0.0258751841337213
0.029075446484117
0.0254318791693391
0.0275483286781492
0.0264581210318087
0.0291169799299314
0.0270470899510239
0.0282817700398324
0.025827284888652
0.0290752677698822
0.0245223253395535
0.0271591751900895
0.0301049564659939
0.0294036479714549
0.0311495354656333
0.0281778168467032
0.0293694542748651
0.0283058841539631
0.0276730146326858
0.0253336648297604
0.0278118121629769
0.0282637891826177
0.030710730103359
0.02895103194471
0.025957927022277
0.030241904908763
0.0289591370822424
0.0281582682952703
0.0281730158553546
0.0302124175203013
0.0260519346631108
0.0296011652379791
0.0250663302360143
0.0255159077986707
0.0296021338071688
0.0288249510311742
0.0276998358060307
0.0256290205455516
0.0237216516119949
0.0243826275360969
0.0245444042369063
0.0295251662957729
0.0231689057310929
0.0258040302120558
0.026364088065598
0.023826639470147
0.0248178242573484
0.0264467457655943
0.0287185328368827
0.0267015997670473
0.0261474994419926
0.0255118447486317
0.0249015458655849
0.0236659881518796
0.0203026548448161
0.0249818491994656
0.0232734957047289
0.0235564289463741
0.0210278678300372
0.0240017697076248
0.0255676640821297
0.023422180553986
0.0204044434676604
0.0216663465250666
0.0212960382106946
0.0235367002615975
0.0246220478006798
0.0225864054351506
0.0227849058703853
0.0259400099385238
0.0242655070810768
0.0222391373580747
0.0263227468158183
0.0203897972257155
0.0221163448109521
0.0198172245924902
0.0206273845845855
0.0253125359694445
0.0236475293630449
0.0213261670152978
0.0204863904563739
0.0251389643779055
0.0193215789127533
0.0208182327132334
0.0190395624814824
0.0240140634496825
0.0205854721210219
0.0242444405457237
0.0198353935948428
0.0195361030990672
0.0199926848605756
0.0208097368602507
0.019380411378957
0.0206425781558556
0.0202384501118182
0.0214163622722744
0.0227865395655902
0.0223974892417331
0.0220152653111519
0.0196155071258072
0.0212475505560302
0.0217265561869674
0.0206799273148565
0.0226800862776777
0.0211944859071067
0.0167971420104819
0.0171569162943241
0.0178682478283684
0.0184607313589407
0.0210520291049582
0.0180024573242578
0.0228915474773527
0.0190575961513082
0.0162819288946122
0.0155374853062803
0.0179634565828467
0.018044891985327
0.0220215239796661
0.0192757646880671
0.0183719564110255
0.0193307029659628
0.0179135527773046
0.0172111325498783
0.0214150355286728
0.0142608806786079
0.0155849317796036
0.0164616817751346
0.0161377502034041
0.0157272376822794
0.0177024329123781
0.0163668643880766
0.0179760969048282
0.0206912579795332
0.0190442470799649
0.0166042373347106
0.020851907052241
0.0176097913738
0.0193675484257695
0.0192097409371111
0.0207925190386667
0.0168045041257165
0.0170455429108768
0.02160331106824
0.0203982769092136
0.0171393870725903
0.0157761021018056
0.0135265816407763
0.0203585177257045
0.0177582444580242
0.015298644170474
0.0145962173536766
0.0184110996681738
0.0216434705252189
0.0183369154966218
0.01265573736786
0.0163087143918573
0.00913726252281409
0.0185145222557307
0.0165312756955704
0.0211570031336431
0.0109804989475182
0.0196144156873167
0.0102209969509048
0.020043361931994
0.0171879263547631
0.020760004786143
0.0151336030327956
0.0175153112205167
0.0230886907601486
0.0237953086717035
0.0144731353933214
0.0231435121248751
0.0169694432321367
0.0221189883579896
0.012760360632918
0.0231583876334667
0.016619034213499
0.0242376511226804
0.0150787573505082
0.0252024852194395
0.0207569152907367
0.0148102589054811
0.0086028164807418
0.0171355035896833
0.0103830408272874
0.0170843326707347
0.016618567460412
0.0194547340191271
0.00894291219135205
0.0200990575959111
0.014375401153153
0.0211534188503094
0.013111161620021
0.0223191806112902
0.0198886032834831
0.0206896492073398
0.0175503136986886
0.0209551003865558
0.0129388809128417
0.0178253428943281
0.0214328071920043
0.0134835599624324
0.0246950376849244
0.018394907877183
0.0181856713460396
0.0100163656831011
0.0218032928134435
0.0132524192025618
0.0308149568661747
0.00568563190629039
0.0257478276248578
0.00737154781944159
0.0300372099010028
0.0040918514374504
0.0262815247836665
0.00660095199288805
0.0249778127611881
0.00460051534807672
0.0252901084832809
0.011893683230762
0.0227960343709538
0.0146668904302922
0.0145700933906674
0.0153976134266524
0.0165414294917475
0.0169423656269609
0.0176345761724504
0.0156558241400556
0.0175706855313346
0.0176906372927401
0.0189354321259
0.0136737542193964
0.0151387177869511
0.0107337525298742
0.015747996787448
0.014213512696961
0.0151907316354328
0.0140283763406858
0.0133899430636394
0.0146250723133935
0.0164844467007392
0.0143098281003928
0.0175291507181553
0.0174512296693174
0.016948328828402
0.0129201429897738
0.0135011347274303
0.0164317216865678
0.0186067396246315
0.014376366892199
0.0153123507369764
0.0124662149285789
0.0144622843321792
0.0156015586530082
0.0164840071621324
0.0132617125529213
0.0159971611399036
0.0152730022611093
0.0126535226697961
0.0150131405064578
0.0174852925824981
0.0135000522313585
0.0137714942519932
0.0179394376454225
0.016272038393149
0.0144994375465499
0.0152838189987142
0.0159768362364897
0.0178513707851709
0.0138909873730484
0.0113496733940732
0.0144541964694927
0.0171850963293296
0.0156131233294755
0.0136872871914072
0.0157501794694163
0.0157293713604414
0.0155086592323662
0.0113378981581303
0.013755711174366
0.014345577155295
0.0167085554567045
0.0141673965937154
0.0146404786587187
0.0151817786499618
0.013735137476389
0.0138352334658255
0.0129871279454812
0.0151607583498353
0.0154593653264893
0.0148764203671474
0.0135314383163592
0.0150195284013066
0.0151165850116388
0.0157757854801908
0.0119318470631481
0.0139176626921959
0.0154298259570495
0.0151879570165664
0.0131983980893548
0.015039184871978
0.0153738884488563
0.0140577725197471
0.0136659603558496
0.0148005141938449
0.0126887162037139
0.0169751168271735
0.0125263837783709
0.0153659158270482
0.014370937784677
0.0139638743780842
0.010101416837297
0.0153062445373445
0.0176989721213183
0.0129811762390579
0.0143191626151461
0.0158432996079417
0.0143122890679342
0.0138743169833882
0.0157346314500302
0.0135329712123591
0.0162690107179846
0.0167591379299076
0.0144844133059861
0.0146602707407636
0.016737155424493
0.012633081603783
0.0158638073547598
0.0139923649854832
0.0157207343433681
0.0165325216404397
0.012035544491199
0.0150470701151338
0.0143969015817522
0.0147775996245508
0.0154931523343228
0.0164117965986395
0.0119951275296195
0.0143195041960095
0.0153542781347338
0.0165572100735501
0.0161059271553612
0.0153221666061408
0.0122878452445799
0.0148094015642999
0.0143313888438361
0.0141385759247695
0.0167278727310092
0.0174165018533779
0.0159856775109526
0.0128432751195302
0.0158939414902538
0.0164401638247813
0.0139485896400627
0.0136164238298736
0.0142128062586173
0.0144431063717177
0.0143967872271407
0.0140524437050911
0.0114896180679508
0.013471250352507
0.0167358190311698
0.014796662308113
0.0160290423003357
0.0137552618768392
0.0168181618810445
0.0150125183822237
0.0150761162744249
0.0165730980082292
0.0157975212993526
0.0165380248639292
0.0133716841816671
0.0141588144400221
0.0153768114727593
0.0133294990461417
0.0183212792111892
0.0142456817065482
0.0143431797144417
0.0165595595486585
0.0161915500247582
0.0137016518077291
0.0164951220613883
0.0147826162498891
0.0165118523684517
0.017159676905363
0.0178321388207214
0.0139362679014213
0.0156857000660518
0.0168079308103701
0.0166215230460084
0.0164518260387029
0.0151864544853606
0.0132427396356807
0.0164979848939653
0.0135869364061456
0.0173976823605992
0.016422686235844
0.0147959909311332
0.0181447039468189
0.0157532208325435
0.0163877994229197
0.0161512252835764
0.0112652944086449
0.0144977089623036
0.0144980798934211
0.0149169152168597
0.0144476600779502
0.0172872795510712
0.0155912144914528
0.0137581025458744
0.0141310983343313
0.0141378162855489
0.0160685507915942
0.0170983346290327
0.0122408981794646
0.0163081505886122
0.0133004812288815
0.0126678697630748
0.0141559480981519
0.0161995170367274
0.012468532891108
0.014714955255561
0.0164044560523575
0.0107367978941283
0.0123451967834038
0.015581535751641
0.0147816381919532
0.0149129779552575
0.0141490451851285
0.0145101772204417
0.0133743378104024
0.0152731629553732
0.0146816707367612
0.0139265552940307
0.0165455363458089
0.0167618075873378
0.0122911568700779
0.0133582495883158
0.0131457197364717
0.0150196442210492
0.0159815540056453
0.0179407840161628
0.0129154698849674
0.0150035081480826
0.0118260928171233
0.0145689254430561
0.0140739562211267
0.0145602837972674
0.0166910305169252
0.0148017288920914
0.0138750673966965
0.0181034665338004
0.0145237980963496
0.0140544574700496
0.0155183081646866
0.0118209385101476
0.0148858650189274
0.0142561837923821
0.0162077041271333
0.0145611337120972
0.0139072500985124
0.0144921982494801
0.0124855163775525
0.0179610055259679
0.0139716931685637
0.0146324507979853
0.0136410334826672
0.0124467730800169
0.0168906500734172
0.015400287333407
0.015175968593876
0.0158199501464594
0.0164629919972061
0.0160080705095786
0.0156175699371698
0.0169151423389848
0.0119392789067775
0.0153158963002036
0.0126421690375359
0.0141719030572697
0.014733575472281
0.0138902124356307
0.0122785615061149
0.016089457640431
0.011180213245438
0.0163482768148202
0.0148410820248126
0.0147340912748687
0.0170738488900982
0.0152033063787804
0.0134756251208562
0.0122718716392067
0.0160373155653783
0.012313477168323
0.0123841629461732
0.0157445855196398
0.0113341460515654
0.0154582501141352
0.0142741449036443
0.0137272697764804
0.0150634439329218
0.0157723081754321
0.0168033681609419
0.0139970276207036
0.0141580067348146
0.0155600203481172
0.016467747305694
0.0110487709487876
0.0102239500424854
0.0140780912029316
0.0156368710515082
0.0160480533131905
0.0165456792681375
0.0158981522319155
0.0136931986203308
0.013897544470014
0.0121806008724736
0.0126985710122576
0.0125952742458022
0.0170281355008272
0.0131926108477108
0.0126706339422208
0.0112015076895766
0.0146367183942442
0.0129390376128736
0.0136183524049694
0.0140739821934686
0.0128105663957955
0.0120919027090327
0.0145250478690258
0.0128873119616259
0.0138798983309341
0.0146423433497113
0.0138973236339589
0.011541414602651
0.0164556250958534
0.00894887032307248
0.0170913349640057
0.0140534979573801
0.0143420998105137
0.0126217000310491
0.0124359796608045
0.0118174324236507
0.01320683655577
0.0137967960932819
0.0129522488418488
0.0101672211158312
0.0146289737186783
0.0140216216939833
0.0131514614704913
0.0120395109263283
0.0129164013162728
0.012535750414492
0.0142769955710396
0.0130229055022071
0.0126890788175926
0.0124410059858713
0.013377083399264
0.00967464156411267
0.0158760660849976
0.00906704389850104
0.0129918997408541
0.0134941964376578
0.00910481167784697
0.0145040699647708
0.0133003819011707
0.0115213987047229
0.0109894003732418
0.0164624343040939
0.0131411647093043
0.012107283259748
0.0103203935589615
0.0114944171368429
0.0118730457624858
0.0104837521223842
0.0104178973995376
0.0109030448668769
0.0123616692511671
0.0114662811690067
0.0106450725661481
0.0126189773618394
0.0127232685862006
0.00858860145063988
0.0109368798886859
0.0118343033848578
0.0105022647286517
0.0102500266910207
0.0126213856158979
0.010740908244236
0.00870157193254109
0.0141313280974136
0.0135953387206237
0.0129754577323033
0.0111570401228832
0.0133039073201574
0.00911766634512548
0.0108151086175003
0.0129793834164108
0.0121702694792702
0.0123346521485056
0.0111753469595344
0.0113996465219222
0.00863631621872055
0.0090047537281198
0.0104275461201575
0.0121181031418467
0.0120567783968417
0.0127166383366483
0.00995725128182295
0.00774691212579451
0.0126143080457934
0.0130562462100065
0.0100619416318007
0.00737508019667166
0.0113518859208546
0.013027822055369
0.00202553537319113
0.0181210450699891
0.0115142542106329
0.0145207071067495
0.00886043243983237
0.0132400956761647
0.00947424993236595
0.012785165784762
0.00769408337223572
0.0121122835955204
0.0105705142113889
0.0102101665555737
0.00745494790629692
0.0101759957783011
0.00791394840714563
0.0106168730699534
0.00982067040874434
0.0136586106751816
0.00909493171084339
0.0125224548514064
0.00965378814321458
0.00884769893273644
0.0142478750501871
0.0129455369743136
0.00710306627416353
0.0159461818542954
-0.00166401547402267
0.0215018789149506
0.014610227983736
0.00978997725854557
0.01070865650871
0.0114862733844986
0.00828309264283968
0.0091839998093934
0.012019425977548
0.00831540937987883
0.016466144041335
0.0069956462835625
0.013230316893513
0.0100344895256766
0.00793819411701821
0.00903466027907033
0.00642247629598124
0.0112468486589117
0.0101760642823624
0.00843258201004053
0.00973491263190301
0.0125996304606273
0.0098226070251324
0.0119893484948714
0.00931423765121797
0.00824451028747482
0.0134148861528215
0.0109496491647778
0.00871998202010208
0.0120189902240962
0.0101967261194534
0.00373798499128598
0.0228005735693499
0.010961530851904
0.0137470136476491
0.00770606716159208
0.00961924738231112
0.0101210076723697
0.00826058142553232
0.00854798571915209
0.0116041406327127
0.0110542217474237
0.0100973482234775
0.00969486360384289
0.00811602363676703
0.0104782253045991
0.0110797228383209
0.0131740300025468
0.00968429570487782
0.0132498513164841
0.0104910240548416
0.0141107486967971
0.00188372103312647
0.00391213644871729
0.0174201337859033
0.0103539470111073
0.0138277733860558
0.00990515193281796
0.0146634060232189
0.00925935378681217
0.0135083807539612
0.00664132378081432
0.0102138416252911
0.00894696495931941
0.0123925831762573
0.011160856716333
0.012858695808178
0.00715310385255389
0.0121534194235137
0.00914837746550528
0.0114188957517319
0.00744210239406391
0.0141731236114991
0.006088708850333
0.0137870546364551
0.00431658185241577
0.0143821785464808
0.0101011034705079
0.0162181177693641
-0.00636988785621814
0.00300063286720666
0.0305886591871598
0.00501058758907322
0.0203394973047752
0.0108457886986612
0.013325053281216
0.0075439209391869
0.00672754662066064
0.0126501539976586
0.0121859372930044
0.0077976010936218
0.013315977933526
0.0105796695922522
0.0157034191757751
0.00598580197095449
-0.00033758646448194
0.0242240074188087
0.0144074076307874
0.0120129092892592
0.0128906457654065
-0.00527111531424091
0.0275123429319316
0.0106407888768436
0.0104676604899359
0.012673719397375
0.0105126810005318
0.0115825344303642
0.0139187013160931
0.010105124443531
0.0145070853559387
0.0157127441652893
0.00702290450314833
0.0105083254037361
0.00895258795749812
0.0107329257387587
0.00890780958568777
0.00697116156248976
0.0179214802280404
0.0123043553339547
0.0127324620637032
0.0155119617052028
0.0115038924259723
0.0125355255140186
0.0122474423659355
0.00792058148623528
0.00538567960728853
0.0193868431862076
0.00616290227534828
0.0102962208367509
0.0194050142910031
0.0102528130533186
0.0101700733472221
0.0101814789057478
0.0165716628129116
0.0106845145077206
-0.008781761384117
0.0310539457400721
0.00707960343043643
0.0296892810866704
0.00818871232435123
0.0168004613055754
0.00741537567154274
0.0211241231371023
0.00270097455507954
0.0198425783048116
0.0148693511959095
0.0115176885694679
0.0126685800636037
0.00438752460767009
0.0183540211102114
0.0147132658844933
0.0167394314864977
0.0112111013066268
0.00902358965806757
0.0136615815274438
0.0212513389366964
-0.0102800331757018
0.022194597574832
0.0194488917241965
0.0193378253777496
0.0238802023565156
-0.00558425632155921
0.0275302621663256
0.0193662178378273
0.0143776754865006
0.0151503646176708
0.013574930992255
0.0185224917656454
-0.00377774484319027
0.0260574907730392
0.020965903003655
0.00955236546456505
0.0227350464504631
0.00484032134045411
0.016057826858274
0.0249480766692325
0.0164589435507631
0.015637793723144
0.0212796066446098
-0.000978511157126921
0.0114329442903157
0.0372903658852963
-0.000526545894155039
0.0322846545694484
0.0127171213385472
0.0282498229256151
0.0171660032356179
0.0210238401801022
0.00513388728629606
0.024863823503872
0.0194005991779625
0.0144165296101511
0.00155678400938808
0.0421038508392814
0.0151011013238212
0.027865846120085
0.0203873540726898
0.00602851012260064
0.00369848353554358
0.0440230233090502
0.0312368531900135
0.0321742819616538
0.00928592772276781
0.026836708058026
0.0280685131518645
0.0243551063791115
0.0247789450410948
0.0213072613967659
0.0233399609145965
0.020170621783033
0.0243683176177161
0.0268785755555789
0.0216371018745244
0.0315386424041018
0.0104701918772254
0.0209809031706233
0.0197689143517801
0.054958422405894
0.0164465313700779
0.0308222352727512
0.0398559002675114
0.0311201031554506
0.0347535683758098
0.0258635317251214
0.0314590006825825
0.0355370668637384
0.0340422085298494
0.0231880180093716
0.0283441414211511
0.0427595152357009
0.0206044261022707
0.0571026946952261
0.0305619634611006
0.0363053953050862
-0.0324470102846376
0.0956169788168457
0.0607550127824533
0.0395152201535538
0.045169500668458
-0.00652701806547387
0.0840194228095525
0.05896857706586
0.052439018402896
0.056768155851061
0.0562892071347297
0.0525725725666644
0.0625148716658739
0.0551815500842072
0.0639404196699905
0.0711930810694534
0.0568060456258315
0.0352147665320929
0.0789443769626202
0.0850403815459234
0.0952879938142229
0.0742956917219307
0.0822934220659293
0.0930053626273216
0.086618292912866
0.0866806055893444
0.0937970796015226
0.0511580906832138
0.13428512662095
0.10133670864302
0.107674443018743
0.0930271855315747
0.118130933195534
0.0983725736291662
0.103085171712901
0.14149038120989
0.114923692014501
0.131285348048518
0.113091180355247
0.131843934159769
0.110050419343506
0.133471315237422
0.143055617365283
0.134497969616666
0.142819701850172
0.137623500658066
0.138208479493818
0.139999949897045
0.147914728622211
0.127847144896973
0.134129276790113
0.111437011385034
0.162079703292686
0.178815271859518
0.140294653313253
0.155320514503864
0.128154998341607
0.156345333603503
0.138387174374437
0.143131994097967
0.171653992656293
0.143366889648123
0.146142657895067
0.139753444778217
0.14684896745687
0.14118160056985
0.147608709830155
0.136046288166728
0.135575682262588
0.152490038943281
0.0962347767954926
0.186115284720751
0.143082038770692
0.149825840175463
0.137001275396205
0.14209703626456
0.131457589466789
0.131918372698419
0.118174488085994
0.145330613791233
0.128763491181825
0.138509029363587
0.122586002712745
0.121985212577698
0.147849534658592
0.124422771082304
0.125799380064061
0.123861619261165
0.123767415556938
0.117198617711896
0.0775083822761882
0.151663559619512
0.119570781455617
0.118470968620837
0.120047483219255
0.11602280063409
0.112419019120851
0.113482414513117
0.112643199536302
0.116200883330932
0.108703429647303
0.118855678682373
0.11359075948126
0.108825770327789
0.106941001258086
0.106674716628397
0.108893968636251
0.102890894561863
0.108055505763119
0.103605978775672
0.109554924337622
0.10982802142323
0.106692474659898
0.105371059772646
0.105417631282809
0.106839543696919
0.105932648977162
0.101900406657599
0.105059258748131
0.1053275268296
0.103529337708572
0.104093039074574
0.102096398485417
0.103445526678078
0.10394303342618
0.100301381724483
0.108195612634833
0.0996177361831747
0.100154143401403
0.102429477385597
0.100108212300141
0.0993334911822394
0.100988714230191
0.0773220674345897
0.0987618290851418
0.125333435108498
0.0957922530614999
0.106454287772496
0.0897992884124079
0.104121283400629
0.085064955389902
0.0935298489149647
0.115038314375855
0.0949939369402653
0.0994739097200456
0.0917335420101718
0.0889918787121667
0.104222352912074
0.089884545597159
0.0942371508496016
0.082920220373791
0.0610368737171814
0.117077412403315
0.0475209933532678
0.141018244109817
0.102093028287673
0.0884232303637766
0.0696340452303935
0.113899987988073
0.0921249703623992
0.089465469506837
0.0855691987589545
0.079699296092775
0.108073863355569
0.0860240338753195
0.0925173089392651
0.0833947099151462
0.0787373762822546
0.0998590686299087
0.0862613889926996
0.0701422491895294
0.0995497222755326
0.0800510082061092
0.0701436343713327
0.105784873783415
0.101615159299264
0.0901760494843369
0.0802614364248089
0.0808685501186321
0.0600665807605669
0.0880832206289243
0.0909423437219266
0.0740782583833416
0.0852036639389419
0.0705384429095147
0.0792526262105947
0.0722121993473236
0.0855168389730789
0.0593715303046056
0.0822944344095093
0.0767056949977216
0.057148351500405
0.079424600877672
0.0524235594413071
0.099272901915385
0.0759064583518614
0.0642590987763283
0.051331439022939
0.0920907529170769
0.0699424089296915
0.0712598684784506
0.0709196342378972
0.0547340194143195
0.0759234446525506
0.0679022225652301
0.0535532011069975
0.0728264559504607
0.0476913431130275
0.0566823118139224
0.0675297816652697
0.087694589748518
0.0746852171389681
0.061692958996963
0.0618648489455248
0.0618286316280761
0.0612535141175599
0.0572325435854369
0.0424480551161732
0.0795204868761831
0.0392691223058302
0.0750949144031717
0.0708522346321094
0.0605958781496104
0.0649488670660795
0.065509190986451
0.0521632107393287
0.0605622179394931
0.0709680335939076
0.0746992261260677
0.0544577833428753
0.0786164128186759
0.0705598868337666
0.0720969759154712
0.0705843478862137
0.069034707954422
0.0661634352731664
0.0776554694133265
0.0774822432652086
0.0777203325061403
0.0798935717031275
0.0783288459236587
0.0706233137320065
0.0985266022511868
0.0797092972981172
0.069874311990136
0.10059055603664
0.0956491578746962
0.110111114412043
0.0915301756875563
0.099907864365345
0.100660951985309
0.103678255593521
0.099774968133532
0.0898946791608001
0.114596448640529
0.110691750007563
0.106314991162731
0.113016601620973
0.110217161866262
0.113115950632049
0.103127278217623
0.116390105719684
0.0879188747052588
0.141761483825443
0.121580377619254
0.124957361114995
0.117043933290805
0.114528754490463
0.124628178995756
0.120846450939916
0.120801878413934
0.111488133380254
0.125997949208479
0.131303450722501
0.120622045552733
0.129546484866298
0.123790063072867
0.123439858252908
0.124119432443204
0.129589771658281
0.128235807973758
0.130283671932907
0.129243936756353
0.109645907245638
0.139193622377884
0.147978128012044
0.129723903486041
0.141272931086118
0.133603993984652
0.137251836488847
0.134422946686058
0.13747345899209
0.147454938129162
0.142897292948287
0.149150638010776
0.144509139261401
0.140190399980215
0.142289334786701
0.148747945502163
0.154972399483632
0.144287097497962
0.14476208362965
0.114961527719685
0.17188262800522
0.148908735376977
0.153333451820972
0.15601038036775
0.148716073974386
0.151883181531759
0.148855549331785
0.152199273978703
0.155256784305719
0.151052883771924
0.153788972057566
0.153585850323075
0.152824230094872
0.152205332891834
0.147900287665152
0.154990411658035
0.16199771586245
0.148140710770249
0.153738654850077
0.15059127978855
0.147157126638207
0.142369753850227
0.156937061339233
0.152532912096123
0.150484392347159
0.14451685468067
0.158002777971546
0.157350391841835
0.151423619801531
0.151668840273364
0.158094245410426
0.1505152853343
0.150421916543054
0.140980483873899
0.159363129751766
0.155832901424562
0.155894148413962
0.152511996597461
0.157420903144565
0.156554961585132
0.15409709432581
0.157406089584595
0.158229644444959
0.158793581974705
0.153922097069414
0.157616566726334
0.153754859440708
0.156467335178029
0.153637455913888
0.158232521680302
0.161640208329612
0.155964855718967
0.154520415554175
0.148539726956433
0.154503128628406
0.151558338226847
0.148722359633865
0.150890398198897
0.142842859910657
0.141885682404073
0.144835115716448
0.146424216132472
0.137035110124061
0.148267244313658
0.135577346717045
0.137556607602188
0.133874150580592
0.133781540218967
0.133114893073151
0.133468583575778
0.130310112907831
0.130117283186272
0.126892704275971
0.129251282919786
0.130284902931439
0.130169886988617
0.127725057123811
0.12787993652423
0.129271028552513
0.125220204716694
0.128252126629843
0.128007710107159
0.127006859614028
0.124679795531142
0.125461075040658
0.129280405041084
0.127947229033636
0.130060119594405
0.127095296834009
0.130031092935565
0.12605727305969
0.12365391847144
0.127746843192174
0.124357839800947
0.125328325775598
0.126838046586599
0.129313224734582
0.125736431786569
0.124449820417063
0.125271780730802
0.127140012665233
0.12677147421699
0.124649548247183
0.125755349412385
0.126944691351785
0.12668642578748
0.128084075919343
0.12516672817673
0.127389221985189
0.124955535962052
0.126160373383264
0.126673741677423
0.123154521338831
0.125825089890931
0.127862370712306
0.126417073434328
0.123531020731395
0.123094871734899
0.126171983612116
0.123981737971186
0.128184144178773
0.125186661976009
0.124245567094648
0.122830756841229
0.124543147064148
0.122579906232079
0.122322537301151
0.119215704909741
0.119257858492011
0.115227058721104
0.118050987152945
0.116541847691349
0.11811569317045
0.112632331578396
0.11303578073589
0.111902266938266
0.111359094482491
0.109953914458477
0.108850664706163
0.110447873437192
0.10707454935781
0.106924782614654
0.107454981678735
0.107051129151499
0.107923217091398
0.106579204988013
0.105555595821164
0.108595287992483
0.10619529463768
0.106307518804711
0.107845133983611
0.108308186968465
0.106609794971298
0.108117923447534
0.107427357021451
0.107763592753186
0.107817639124396
0.111160377092753
0.10822947962447
0.112824100537376
0.110724871043226
0.111990669617987
0.113744182031094
0.113107580432966
0.113602998418396
0.114764061938534
0.115976259954847
0.115372528634259
0.114817674761715
0.113595745915365
0.118334769199791
0.118271991299459
0.11925293641312
0.114731617292402
0.116972731040981
0.113823044402084
0.115875468691247
0.116154608013661
0.115508453467542
0.113344418040068
0.112752815182593
0.113222581750105
0.113509683823727
0.116211384817919
0.112360378968447
0.112446922208953
0.113192229827111
0.110173972884092
0.109565284355808
0.113622880360024
0.112071924759257
0.109709847998659
0.111263940773354
0.110391585938518
0.107478923554658
0.108645187196577
0.108269014407317
0.110209138427279
0.108731504278754
0.107666452094813
0.107455238988158
0.105777480397929
0.1047894379776
0.103465159672397
0.10672316175834
0.106359765458299
0.104878049327744
0.105299050065161
0.105461255320789
0.104628716632292
0.105452499518322
0.103923353666045
0.103361431419876
0.103642392352461
0.102458367191368
0.102143551112373
0.101196246996429
0.0992303328564584
0.0974691494750016
0.0997443321951399
0.0960564703938447
0.0971178519992233
0.0959772287788394
0.0976964026584695
0.0957569639498589
0.0957391311576624
0.0904790415945708
0.0938522653729833
0.0931121941592406
0.0928327429713687
0.0926645357545898
0.0905755506234196
0.094101164256057
0.0929859916108162
0.0899686303185471
0.0901659579383205
0.0921533691759345
0.0915370667202612
0.0914770822671614
0.088042281907827
0.0891278130967489
0.0899782083057159
0.0879579184852463
0.0870931527676346
0.0880072345128462
0.0847924643444257
0.0848926059929206
0.0829895436793138
0.0831384014718664
0.0827611667896878
0.0843924345625117
0.0829027512540979
0.0847290439963134
0.0854730613940601
0.0894256776620968
0.0921792946407719
0.0949732353771376
0.0985441946064195
0.104630965701625
0.10688514167346
0.108518249154896
0.117410374868052
0.119681975799018
0.127264794805299
0.132220548463827
0.1370207810483
0.141030586670016
0.146923844185577
0.150525261987412
0.157725535255545
0.161895389966229
0.168149313478527
0.173144665431589
0.17675184505261
0.1796859315448
0.187287095759127
0.188347436617249
0.192759044806101
0.197232242811191
0.198322339408441
0.202877932484703
0.205042838272056
0.207924863304995
0.209688788181768
0.20863058021536
0.210305225375805
0.211331130770428
0.212486906818783
0.216967642058843
0.217307379596358
0.216386197977586
0.218407789691814
0.214919086230141
0.216174986673192
0.215815209083582
0.216608681686354
0.217683024932314
0.217105987547062
0.218109508728356
0.217436932316504
0.220893023642913
0.223145125863493
0.224983781620951
0.229625990788444
0.228423715676081
0.232799364935231
0.232241766638776
0.232740881196398
0.235379379519829
0.240443735307127
0.241387076763975
0.246759785609878
0.249903892583499
0.253218095364732
0.257429126837239
0.259185913641675
0.262375933228032
0.266599129101401
0.273959734134036
0.274231717134193
0.280583080951142
0.278382024047996
0.284540187643879
0.284194445865548
0.286739272085589
0.288646751145912
0.289795011785925
0.288672552896078
0.287338890106588
0.289259298458698
0.283663362685565
0.280812486741199
0.282728480016511
0.284478693797858
0.287006028442398
0.284197612995248
0.285777326566969
0.285393892559993
0.292768586059026
0.296008856323165
0.301462112107318
0.304155053343948
0.309823738599991
0.316904507077325
0.323282331242821
0.330406639721933
0.338042262463722
0.341834007186877
0.34828449703895
0.356681491536094
0.359355996569214
0.365823885079906
0.372020469638843
0.374527467903266
0.380081471599584
0.388511962614025
0.395100066025409
0.40170867377317
0.401529889987673
0.411666980761205
0.423933394415279
0.427591856948604
0.436677867692267
0.44164800175254
0.452528171105233
0.45682711326419
0.460323929432668
0.464624108309887
0.466243733444328
0.472276525094574
0.477686332899527
0.478009561462839
0.478856287391836
0.48234058507126
0.486936635404748
0.488690186240782
0.479514230000956
0.478831816068817
0.481937863569082
0.475998469973571
0.467693322820213
0.471291693403538
0.467561749207462
0.46574610503445
0.458610422707007
0.458391706369628
0.45515904437004
0.45476426086903
0.452222102701994
0.452391528070906
0.454758810788801
0.45354939453648
0.460287949628204
0.465678684525974
0.466787120086929
0.468775536613972
0.473945420811881
0.475255681334868
0.482144127158821
0.490496375504698
0.48183959066236
0.489430199123444
0.492993206540939
0.486797508575898
0.483081956041035
0.490252393535035
0.488704772870904
0.492483321226382
0.487733949933586
0.486849079196623
0.483832548243273
0.485020568783157
0.486796636510746
0.488882167770906
0.489528772748814
0.475989671170673
0.473820933744374
0.474630810173341
0.463062379857725
0.467442780081876
0.4606805345697
0.460546607930808
0.448319135175249
0.452165801087123
0.44297217662951
0.437289355359547
0.430956705797732
0.424986193013127
0.419728122266512
0.413287201746879
0.406443470515321
0.399188889708832
0.39458945931254
0.381636649371112
0.361928762294065
0.358384488428158
0.342182285737557
0.329608897883765
0.314360763927749
0.303162424959596
0.288845625274892
0.276583785384192
0.264115705497641
0.250267441799672
0.246863511889614
0.24236419368392
0.234782031952146
0.229156362921802
0.216377861271374
0.220235035244948
0.217515713433282
0.214333335473194
0.209637803663538
0.206604671844989
0.209618269766839
0.20672002070382
0.204704433151287
0.199292977914046
0.194643519861682
0.195387792570452
0.188923356417197
0.186271161283369
0.18833751838319
0.181767270825744
0.178031684969697
0.168647046504913
0.161173676783958
0.162038657101187
0.15148792976568
0.147747616338506
0.140781715989843
0.134946120389002
0.129645975814592
0.122781639708181
0.121049808210842
0.11526847509027
0.10853711976525
0.102018166900845
0.10025076903406
0.0932611399282003
0.0859064411235687
0.0802869809486568
0.0798174696076276
0.0757980415862108
0.0729146764904745
0.0732298552937046
0.0689674785655021
0.0662649557091224
0.0647627940874793
0.065226265319132
0.0633965538986892
0.0606545701782079
0.0614173423614096
0.0614096820824187
0.0598442874845856
0.0590611136608
0.0605003896120929
0.0602432140197901
0.0596821870888386
0.0601191307660153
0.0598254357408668
0.0585447608196457
0.0592990807404364
0.0660190817038496
0.0657208556470086
0.0634370514878763
0.0625253954059516
0.0647118407226289
0.0666746098064094
0.0600710062746911
0.0648134083930454
0.0625367149731552
0.0646946701074986
0.0611731035728524
0.0576839667527662
0.0586351809255108
0.0584744505946683
0.0585918828823101
0.0618028346222487
0.0551831645006321
0.0578510338960681
0.055634694954465
0.0567830882170808
0.0602356508584787
0.0583666915888979
0.0583158820676992
0.0583436903438786
0.0550427889338686
0.0586652984541644
0.0659777069341702
0.0608559313564899
0.0653180540835186
0.063746308525551
0.0657665565798131
0.0643858794653423
0.0659228812503056
0.0670721897132028
0.068751204862998
0.0704000329411885
0.0658871712086899
0.0677026371745839
0.0707712554201156
0.0733051251791038
0.0686375618880253
0.0681636414283466
0.0684541961410172
0.0732984150502841
0.0720957098999162
0.0690279945120443
0.0692839811574678
0.0734255674830307
0.0730951175644374
0.0779541058737193
0.0789308260677214
0.0806111004632491
0.0871307748439058
0.0883002097816916
0.0867110925226005
0.0925912468168894
0.092046476048315
0.0957829274988812
0.100833034528214
0.100022385603448
0.0994141251599458
0.106167020795327
0.103175058600192
0.109109366063072
0.100495137262262
0.0969519009575806
0.0974381065590178
0.0927193737511798
0.0936611259475588
0.0908310932735437
0.0894846031909899
0.0928995885459454
0.0901970578063954
0.0892069886445245
0.0888182403080594
0.086433754035467
0.0892202103975015
0.0897705783443287
0.0875841335468229
0.0861706118055401
0.0875005410393572
0.0914072210893688
0.0894693051823455
0.0850363552827166
0.0828451612233824
0.0872752856222887
0.0785089850165469
0.0794391161275936
0.0798390870575147
0.0784486642828943
0.0823554454434627
0.0816081431340842
0.0737409618944782
0.0782362543531356
0.079627375274599
0.0869018426299557
0.0774789016544067
0.0725365160132221
0.0734463504195548
0.0687246096862686
0.0699179522059141
0.0714186885134023
0.0708089230271831
0.0685957000784893
0.0732778936481845
0.0728354029423767
0.0636351680182537
0.0689580552201324
0.0709763132087192
0.064275231059598
0.0621568706512815
0.0721838816522167
0.0722331105612054
0.068198035662017
0.0632543515471563
0.0670184131496429
0.0602516659166073
0.0603551289278922
0.0634027467802108
0.0653955569338729
0.0638912904151216
0.0647500018470256
0.0657503322163023
0.0648400232737738
0.0611897159995085
0.0663689059137516
0.0581292807290421
0.0649414172175213
0.0632618414396099
0.0696350628067221
0.0633379476648575
0.0631967510846662
0.0653427544549299
0.0658805205088894
0.0657519862257567
0.0685315389910875
0.0706088188339293
0.0692501414534847
0.0664582418887393
0.0578503822651423
0.0637969135147277
0.0645887231480034
0.0612340200534663
0.0667202291705281
0.0675155956453791
0.0650517655950287
0.0703434144013608
0.0734684046657399
0.0734131147213103
0.0686757075035031
0.0666816220970613
0.0653489808857116
0.069477311238644
0.0723667863778783
0.0788916544327
0.08362846542239
0.0791339552209114
0.0778749726146953
0.0725991903000772
0.0769472395380099
0.0842914544759298
0.0919353099759626
0.088644678928794
0.0984278046507855
0.100695967541462
0.102086875310532
0.102993704483171
0.106426489962477
0.0967205727454077
0.119323780580827
0.115315627174903
0.113424551669185
0.124666500731207
0.122330176336625
0.120520779807603
0.135313620731291
0.127930398406624
0.130585388481355
0.13045987714054
0.139659308167228
0.130116930251867
0.129365778016875
0.129383877939524
0.13473331362107
0.118889158930823
0.125908962356426
0.124990183224479
0.116808575741066
0.120375484442117
0.125608884950079
0.132862468856163
0.119976599490457
0.120255001275047
0.124428848583455
0.118769405374643
0.121197952834785
0.119622217798713
0.112285888597333
0.104303018854391
0.12195389986715
0.114691430314453
0.111898514701839
0.115647513184694
0.111338343156138
0.118469477432964
0.12066153838577
0.109218515005249
0.0954711943000747
0.0975296223882542
0.101036907635886
0.100107711704525
0.119233759432102
0.118879036313762
0.109579158759851
0.120557716902236
0.0942079712140817
0.0926852057355319
0.101741224384507
0.105871340669643
0.104240191838572
0.0949354314785786
0.114656485069072
0.0976035289174489
0.113336927577362
0.118166814508135
0.117937939089277
0.138266227321439
0.102967134319567
0.115353955424709
0.120347593429548
0.106100851015109
0.115150752582492
0.112589347099774
0.118759399955125
0.106576037398252
0.117200829403634
0.127766162892387
0.102839515737689
0.110466484789669
0.110290663813628
0.107715032808738
0.112905438712776
0.110447338616994
0.115954062300229
0.0959686050112347
0.119469265801937
0.126870108510229
0.0885008465913034
0.096322265100438
0.130334600782527
0.12891818505011
0.119095356945519
0.127393522513685
0.142557954463228
0.132187991224089
0.123721772603731
0.153051214557753
0.170991594025365
0.160390060690763
0.187128495397172
0.169390364426659
0.14107390329334
0.136596778486952
0.158880521595784
0.143757744007285
0.152299183896664
0.147819028288781
0.142410456805349
0.135993538524915
0.115396496948941
0.176501585033717
0.16555867549958
0.13536029955408
0.138151650033464
0.135443950230996
0.155723736343344
0.157901233961415
0.138220713916139
0.124775006335749
0.149082416052301
0.114959908205312
0.130604997725315
0.164183634691893
0.15723072690797
0.128293183551063
0.13655851289248
0.142342372958884
0.105149377362026
0.168206345908085
0.215034434250088
0.159283618890229
0.189827108099073
0.15163719894122
0.190243842886009
0.235713671621129
0.165886434888728
0.0891232382005617
0.113392012192337
0.116408387377391
0.108026126960941
0.0835897872292656
0.103956834428726
0.122074051878493
0.400687058476768
0.213749190055201
0.189407237411172
0.160615564542103
0.202475023207498
0.150016194544301
0.155830406224027
0.261988842275879
0.110279571467227
0.102466010379543
0.123941357787168
0.108076436764485
0.295146846092176
0.25210418761962
0.290025092837505
0.154522686540455
0.0745673172298826
0.395150585764409
0.331475151945281
0.060945776274582
