3596
4000.36533379555
650.420452594757
1
2
2
0.0469665056150281
0.036019157813988
0.0443579091334882
0.0349150512154073
0.0504355804764779
0.030556004234221
0.0509745566311707
0.0411208061052985
0.0427779431801949
0.038524219821086
0.0459431299153385
0.0431149367474316
0.051086846789237
0.0290059902044324
0.0484525018066147
0.0318423160299493
0.0382139276146699
0.0227480504401569
0.0454043497340934
0.0348305117935009
0.0476727704243135
0.0441402242521293
0.0500352668799963
0.0279004858589559
0.046253422030783
0.0504772711569155
0.0410707650840817
0.0286944730571094
0.0587737016031428
0.0368217897600406
0.0434374547450748
0.0304143419149841
0.0437854341423745
0.0304242372299996
0.0477432473107179
0.0400430548471204
0.0416345007809878
0.029916721558003
0.0465150293472729
0.0282758832461224
0.0619414852348319
0.0385130331028399
0.0451896065673213
0.0434818148327481
0.0502171773294213
0.0360430333714639
0.0397725056055886
0.0463395840633094
0.0532461795761744
0.0444260465943159
0.0542442255882581
0.0314394329513393
0.0538180916788974
0.0414603678027864
0.0380435998964157
0.039868312517986
0.0449026778123885
0.0414211889781872
0.0507031482085386
0.0207856699049465
0.041777887226563
0.0411831088543656
0.0299625532404566
0.0351748410741832
0.0435092192696823
0.039830593349404
0.0398104834996484
0.0360761529152485
0.0371570660645696
0.0288937441587718
0.0290949427661106
0.0413911004172657
0.0636581307728139
0.0386850081263962
0.044136416136646
0.0332123137224106
0.0476593404709683
0.0379790097750221
0.0332773108486973
0.0258685552870838
0.0430750522384476
0.0455296113106945
0.0428434313671044
0.031179376200551
0.0334194585920992
0.0481977438978839
0.0380181792243974
0.0143243616471438
0.0679147196931652
0.0454111516514798
0.0486055974050263
0.0384383353927675
0.0427167464106582
0.0255135409948768
0.0389693219333187
0.0339379582685047
0.0496131205735843
0.0329743395711677
0.0364753264327919
0.0119174045897495
0.0467478036953103
-0.00342759855449164
0.0862238986558404
0.0128542432553029
0.0555089283722389
0.0535038950521377
0.00645472564029509
0.0634041358773913
0.0638132168625058
0.0362781491800212
0.0369283648105072
0.0310175908248394
0.0354666495502092
0.0326318416184612
0.0157213826724855
0.0161792739511148
0.0825229744596926
0.0471892713497732
0.0433643554899527
0.023681339845666
0.0167743939211124
0.0128077528325921
0.0907035646163473
0.0316630419322453
0.0620585131113913
0.0374062609888466
0.0140692956326132
0.0430673701332571
0.0813099026953885
0.0295584443630323
0.0429166051396192
0.0179599851132206
0.0385943764863574
-0.000943450752328011
0.0690672534929759
0.0436255175018689
0.0353447729688963
0.00572460592066112
0.0255168129757909
0.0599893441728613
0.0524465060153535
0.0321996942864645
0.0200232074055621
0.00605764242452931
0.0793319022148673
0.0378653373154726
0.0256654459231709
0.0351678275607217
0.0621622013991302
0.0209020978291325
0.0433521604892353
0.0098867990048484
0.047717054849729
0.0271457391568141
-0.0152902815755711
0.00602276527652805
0.128240907735414
0.0151404565397913
0.0846496410130968
0.0356344677994271
0.0530417527884996
0.0381004546226823
0.0416063972367755
0.0280977313279009
0.0315955108267268
0.0263072925195521
0.0164078954277534
0.0572025219905211
0.0218522836500492
0.0144474558916024
0.0591503059278008
0.0281170267859439
0.0104061076754879
0.0796165013146215
0.059698291409386
0.000419603567233193
0.0617367031850384
0.0422889865299001
0.0295001957176601
0.0106045349294552
0.0669188244929811
0.0386917082887438
0.0348933140489022
0.0190843547230885
0.0208412941330932
0.0430309407392195
0.0525870680463491
0.0325863661449965
0.0427809637084169
-0.00389861620767859
0.0192739565047588
0.0570805153071603
0.0702235626734134
0.0374704519748036
0.0406346074022018
-0.014589209114848
0.0395246721776395
0.0662747737733412
0.0375746558800103
0.0390730380619939
0.035661161605407
0.0211509544283204
0.0364392478006494
0.0270018633866387
0.0316402101908157
-0.0117573851261233
0.0622068872854958
0.0672682357479413
0.0329023282337167
0.0246667823834791
0.0215029493863512
-0.000699347251580463
0.0649797724766673
0.0793272991169512
0.02865593772673
0.0319383690519362
0.0228264538046546
0.0343418534511194
0.0640200535401598
0.036410173620895
0.0396718488719247
0.0378919549595604
0.0392973332507784
0.0323493757933558
0.0403019035150531
0.0354437742081119
0.0379413964653517
0.0294291889940721
0.0367122904418029
0.0326395287446404
0.0482745892570531
0.0391606241607913
0.0409540889503784
0.0305187004241973
0.0262086540115803
0.0176322627932183
0.0574337658951405
0.0385054802926543
0.0416962471385913
0.0286132808246493
0.0306788207101658
0.0321001669324495
0.0421826271135597
0.0339838196104695
0.0333726035444614
0.0097596994295103
0.0524899723232486
0.0476184618967046
0.0335260257480475
0.0211760401302991
0.0311321037023099
0.0627461066337094
0.0341777853980849
0.0410498010603148
0.0456338782222435
0.0254194896492659
0.00944223873707707
0.0555243227387825
0.0393901723294144
0.0180148540579276
0.0325022540937823
0.048298590937731
0.0364721762172761
0.011888737438793
-0.0113803141189019
0.0818012903410047
0.0521299077956395
-0.0111715977851184
0.0744639393711411
0.0584194047409783
0.0413076033049068
0.0227500399309887
-0.0537665530721002
0.0867975634836515
0.100158669718303
0.0393085247671536
0.0280348982277379
0.0416126723495443
0.0465495511300339
0.0200438910014833
0.0454864273356168
0.0353561568295268
0.0423322660385945
0.0418084582195656
0.0698193892626674
0.0221010600477148
0.0361273525445193
0.0615456998628341
0.0278704132725476
0.037430817138711
0.0330403275637016
0.030620308488443
0.0389128043684439
0.0519790353347155
0.0363175203401557
0.0442751932827676
0.040317644774925
0.0689597901862003
0.0507861090006676
0.0282387891700021
0.0408888868419643
0.0477116415869837
0.0457341746131663
0.0421823750560885
0.0351167640846928
0.0412035684852172
0.026673722716045
0.00394697111872801
0.0826673541134757
0.0539288825034723
0.0351922263085742
0.0661206975930131
0.0533237822924592
0.0367679836219604
0.0442171783601294
0.0421475528043001
0.0459605702568367
0.0182498248663758
0.0289153767985469
0.0493135697300693
0.057927728141335
0.0447706822862188
0.0539789271749814
0.0428923686030106
0.0420435145346107
0.045240945036291
0.0453920917220285
0.0476277806419125
0.0565337256982658
0.0293869063792346
0.046380094776849
0.0524468506983128
0.023157655724826
0.0407297802877038
0.0859974044415611
0.0515930493142208
0.0589543383438391
0.048296366378609
0.0532419238591469
0.0524227943265539
0.0512878067088884
0.0378722916459312
0.0437727677736801
0.069029185065479
0.0614282554004777
0.0355176536140156
0.026974910808637
0.0597503515013573
0.0949158341520709
0.0885582031446369
0.0498445910887549
0.0304530352005589
0.0479326706362659
0.0815291030654926
0.0656319734118209
0.0818515247528743
0.0702870320423012
0.063408858371154
0.0676877340021374
0.056317064576208
0.0790146906261698
0.0707401395252211
0.0745797743150221
0.0712528178575907
0.0737603978890516
0.0750665404439588
0.0658534323072027
0.0589912287137883
0.10844140397609
0.0918085315726989
0.0846380248280858
0.0731249492635496
0.0754803669390943
0.0641821156553902
0.0941861228800439
0.0988049864764983
0.109309397192494
0.101964604674692
0.116906427588845
0.102682354553404
0.0903467804171605
0.0954150976494018
0.0947446504553887
0.104290730848741
0.0975290949447554
0.104254295159879
0.103290340440508
0.104554061655388
0.111450382506866
0.115127232046585
0.104093514615369
0.120993207993305
0.129543666114047
0.11679010919053
0.11004044110338
0.117903254747171
0.100007945336522
0.170207741989323
0.156286506585974
0.129170787792101
0.129616351828277
0.144832601564238
0.126427619131003
0.131129076016495
0.140828499767282
0.134312727629001
0.124964186867284
0.142856449938791
0.165147459618021
0.165180629120828
0.167344471976368
0.163174393217421
0.16429171828478
0.150261555365933
0.15796075342709
0.19361520025169
0.171134148962272
0.142750347492181
0.170679261663197
0.184130438966659
0.160353369419529
0.190867169335472
0.191584635006493
0.181918526297157
0.183096692884994
0.180399930337833
0.187977038937991
0.198442459477243
0.212970553408679
0.200874746423609
0.195080936006165
0.196142535035251
0.201101104622738
0.218063634217754
0.197459573171066
0.215971621612501
0.215958787261338
0.230674945533381
0.207000586620856
0.223280166598218
0.219513261995096
0.223334195411081
0.253107418556748
0.251944546622173
0.23896994622368
0.245076123361774
0.241142906331073
0.253784863141044
0.24274580426989
0.258040966789882
0.280166832434723
0.26008879485303
0.253111748321676
0.274743056333725
0.259111168528551
0.285325561139809
0.280824993288062
0.294142771487649
0.26774338128252
0.2751328934654
0.293011749524624
0.289244447889404
0.306542941826131
0.337459244626783
0.330088902992049
0.336388702516776
0.314972974293757
0.318524502675059
0.334932096941619
0.326823693964489
0.322077635479426
0.322482877662094
0.332563329809277
0.357879303137031
0.322583591813476
0.337932804631984
0.335963642256087
0.379186827917331
0.355745441624397
0.350807622449624
0.369963368666512
0.368525969670947
0.361825637781028
0.385823314423655
0.339390380969374
0.404806535953073
0.389168267638085
0.425023448094494
0.391931731141776
0.395235610628782
0.378422107502415
0.417985767579836
0.392054587253897
0.416961034792417
0.40794405075559
0.394509055929963
0.406703992539229
0.433044980574378
0.420816887465932
0.439698822031031
0.445902593457816
0.456106429248196
0.422575985583251
0.473574914657562
0.43455424282949
0.48386636976203
0.465063443100982
0.465079633206208
0.452966082116132
0.470117600797561
0.463970982513812
0.47943412422782
0.479717552371763
0.52363993707845
0.489986780374043
0.527237646019427
0.489985366627267
0.53545018209953
0.480494244043515
0.521084535781716
0.484855821911444
0.515248223412741
0.519345485659045
0.531033620132056
0.521397014357462
0.579179238969511
0.516075090103945
0.565082141315945
0.577495167711845
0.567972784743727
0.570952762106521
0.569072370827743
0.560811435002203
0.591170757604502
0.563059019756644
0.637615353749072
0.586028017005623
0.583935818016959
0.574687617055766
0.597274846242405
0.591105268073823
0.631638890732321
0.587201060894727
0.625129788954676
0.653025287213937
0.646723559868355
0.612130128223653
0.611687055963618
0.607202977601787
0.660897385391945
0.652427826132922
0.658295494730704
0.638316189551089
0.677553858136665
0.667439155679989
0.67431599527303
0.602249915817054
0.661674604640627
0.678001338520799
0.716776509858536
0.663312912557426
0.720187024038435
0.665717688744813
0.726006326642617
0.720806168346209
0.750316524160998
0.688593233210344
0.771338211129295
0.718771785132488
0.724256826584552
0.69005290139211
0.781137644994882
0.745153305608652
0.80800447965172
0.715301785734066
0.815862584460885
0.736337374376586
0.796076589556536
0.755684649331543
0.804386874014934
0.7948776610541
0.796855297789709
0.774692802066713
0.827353159526732
0.776699513088068
0.807609269940411
0.783776179435825
0.795083271458343
0.731668246000815
0.834718971080934
0.764632783331724
0.777425897865716
0.810209132413145
0.918216230008832
0.795874402022128
0.840316967915555
0.813671577556292
0.834874654992926
0.8347895911067
0.942626194539577
0.83396728052089
0.924509894408693
0.765783544948105
0.863130768566317
0.798917340461249
0.876099093327899
0.870122890959517
0.886046107171558
0.860169586269599
0.931545858090496
0.880546554978657
0.889590127033222
0.810303027171885
0.961366893405191
0.888500790499557
0.98075887068093
0.865439415412339
0.919159385936588
0.895760613223348
0.97811756310726
0.884892005242421
0.996275096808483
0.914721620295881
1.05327862378814
0.913466666880907
1.0142693377923
0.872612569849709
1.05415068396843
0.917058958372273
1.01088911308493
0.949045508633027
1.0061855078583
0.931684453305504
0.959288504767367
0.924484362167088
1.01937234183493
0.948836694463966
1.02585307418164
0.946194529613203
1.05401801413253
0.948756428339382
0.986769921665333
0.891728973343159
1.1291302542917
1.08339382071966
1.05495049066619
1.05368621322478
1.11969682027881
0.984347928930267
1.07470671886006
0.932938402896613
1.08818568806149
0.959692459148756
1.08024616762443
1.00613661363417
1.09251272360553
0.938579190784303
1.0352578836601
0.987365115656418
1.03509453664412
1.05887583955197
1.07374515202946
1.02760339800247
1.12178464469804
1.01594568809788
1.24664347817573
1.01643096810329
1.11208515414107
1.0566616058961
1.1704267385756
1.06629293927832
1.13939128070085
1.00636647933212
1.11771233793504
0.950800393172999
1.09411800876304
0.994450556003783
1.19477603813016
1.03708578968195
1.21071176948768
1.08272744506705
1.16006686567387
1.1364497181948
1.1799509548129
1.05150822633749
1.26461327850214
1.22618798876977
1.16112844267155
1.20358642229663
1.17635246938279
1.1240280891954
1.19413046424539
1.0824860825825
1.18632379115761
1.07932738253952
1.08641957320121
1.09155851758569
1.17812663583991
1.09735067978411
1.18069485665717
1.10099834843701
1.25261407773916
1.18719400510244
1.05249894616652
1.14099354650338
1.19536876465032
1.11545066466501
1.24033205270386
1.07458574005433
1.13937993449024
1.19325539253022
1.21541526671432
1.10335487054895
1.25650538960413
1.15231151737983
1.18737907990324
1.15345673264589
1.22764723774269
1.15870103154467
1.21704896771751
1.07109872311219
1.21967011078802
0.978969199468021
1.14908057174859
1.14420580189948
1.21319560024296
1.08097249896943
1.24219656627061
1.16051634815085
1.13727013983953
1.11546228835559
1.15958042509024
1.0461661824522
1.2211366424031
1.10726778306642
1.11840701857846
1.15249414815669
1.16099538013354
1.08814924269668
1.22535629530485
1.08089731565182
1.17752098549239
1.15685263515082
1.13962257205579
1.09136072662532
1.19204366121111
1.13685394799194
1.23430743378118
1.13282297736677
1.18115982192722
1.10641896566356
1.2504728092786
1.10557154137022
1.12672340743575
1.10465519700458
1.15236902597193
1.11827384423175
1.19951440398116
1.10352894130811
1.18704538268262
1.09637737159335
1.15129974542089
1.22326005823411
1.14517628240006
1.06078347010714
1.15011664373657
1.04352236066127
1.12144549526716
1.06642211155675
1.21436364251769
1.08621338872309
1.17396374346037
1.10940977622602
1.12644550856782
1.09264911933498
1.12001841764967
1.04582040379299
1.19669278547709
1.10626329108274
1.14208271844048
1.09790838295983
1.20677837333383
1.05401036738238
1.16622927284058
1.07967804690919
1.07885323188799
1.08437639422089
1.08765768613934
1.11952966172393
1.20096952528978
1.09010334924334
1.12584536091232
1.08871851230881
1.09291715788298
1.06367937268923
1.1550685673511
1.08718146705233
1.10083291620198
1.03350302936655
1.10687336340725
1.08559451341529
1.08745471569465
1.01421615578069
1.10666589192497
1.0290342624094
1.13693149980833
1.08094530809387
1.09851618218681
1.0237798271344
1.15436115592408
1.07321114172778
1.06465069643707
1.00747743747871
1.10616448382963
1.04628387380545
1.03666812505428
1.03878390715892
1.12086049148714
0.99485476304424
1.04711313090055
0.972426086496698
1.05446429102967
0.963606762473117
1.0622710773566
1.03636050711326
1.04296317329226
1.01045245804633
1.09098982801061
1.00782178102448
1.04772298594636
0.980345225919123
1.02886859194189
0.933377424376688
0.999747770869594
0.913076603512502
1.01569659509671
0.930163702384993
1.00567443590564
0.983587390941967
1.04190458555567
0.946025438155593
1.00058555295278
0.937656232505605
0.957811149818618
0.920883892517701
0.986114287012164
0.956539987034867
1.01052948513891
0.95926728145539
1.03236473437654
0.908187880614306
0.937951154446651
0.904272312764386
0.982846134934351
0.890803747616224
0.986187701106315
0.868073979929105
0.954934462701503
0.920724999071591
0.910399424717912
0.916914764412431
0.95403770948842
0.888889352760055
0.93618828584358
0.871036347940743
0.934334717297166
0.88941814647466
0.910409017778841
0.841876854712647
0.859920581841285
0.867984249184107
0.852384787735365
0.852850486302365
0.865435153130797
0.845805734961671
0.892175199172109
0.831626317738784
0.849048960907023
0.838770015749519
0.878384477166422
0.846478416266394
0.852658357690456
0.83281663612633
0.860058381574429
0.813497084218761
0.833650686890029
0.783516952355491
0.845843811688399
0.81422145609316
0.81806995597507
0.803394506161946
0.810760763063269
0.779007627904426
0.803818913654856
0.755751419485143
0.797917527258114
0.74563114170854
0.786807096342191
0.752229633327113
0.785771251143632
0.739391547811266
0.759764841371405
0.750830906582942
0.740994849896109
0.745048196574894
0.747943102508965
0.714791331802236
0.726708411377587
0.718490592482845
0.747311807037461
0.730631330227355
0.745937732025902
0.701407426643562
0.726289487105325
0.683569368423542
0.724497319114792
0.688794246508577
0.713358286010542
0.689984112756395
0.711096651278527
0.690277360684001
0.690492624878082
0.677024320168158
0.679378995817629
0.662007389586921
0.672990752628037
0.659596905386847
0.671754237604216
0.663908412862272
0.671046988502847
0.658046540040272
0.63973203729523
0.613347275337218
0.652467186230833
0.63045783939825
0.660079875110884
0.649030690530685
0.639774380534957
0.61440971027404
0.630135831985235
0.604828803086161
0.613601046371879
0.612440240387658
0.621219205858718
0.589558344854094
0.621675640215813
0.595140560773389
0.608618183554988
0.594246574955252
0.589572624838495
0.57136494494233
0.589424910904542
0.565572858823756
0.598043646972441
0.563951387400732
0.583894060799342
0.557123652309306
0.562958980123238
0.558701094728859
0.563942211738823
0.56161065636989
0.559089867743557
0.551016236374911
0.555808010036098
0.543544039141564
0.547503530512848
0.541619679997508
0.532490070416667
0.523726018036323
0.546000986871958
0.515977101589177
0.531773446076739
0.525568166042981
0.518881434716307
0.504084909748563
0.517222710075957
0.506751106048133
0.513524067687927
0.507867979114631
0.511137894909206
0.492970891345309
0.512153624666966
0.493180258670855
0.50120801921516
0.485154017979873
0.492058824548147
0.469780075137224
0.489803935228537
0.473644136283716
0.482074637969357
0.47470776953909
0.487992010253016
0.463608807031672
0.463595553506404
0.465438698332287
0.468979054238488
0.442745911981196
0.460385082631185
0.458765771210554
0.455937205922307
0.438148273811438
0.459699936123371
0.444143443793902
0.456940960051601
0.435053076171781
0.45711740126673
0.43172201962055
0.446191187454442
0.425601381851001
0.423311826726458
0.417508297907009
0.428958136680768
0.421631598073921
0.425600755857668
0.412923980155673
0.426520908802997
0.413807698760725
0.407434221072706
0.395984401780885
0.402639636836829
0.393925468895553
0.40376826286493
0.39747174290652
0.397401266610864
0.390279357964803
0.393973573743588
0.377041672343796
0.393778125396407
0.378407603777935
0.384126718323197
0.381199734498216
0.385044060406866
0.369213535095075
0.378073912109239
0.368616525922733
0.376594304903224
0.363267829532417
0.36739842431447
0.371885711813365
0.370538093624107
0.353761174980104
0.367942194401465
0.35300166479169
0.358071406256159
0.344619348655298
0.351339017308651
0.346238350911111
0.354581358377833
0.352426009096838
0.356056116862993
0.339704277741224
0.346549240278523
0.333953362020518
0.330709733256381
0.324874609662494
0.335661385671786
0.326165097026989
0.342059083499061
0.323430119634103
0.338794652571223
0.326535385627792
0.328794973995131
0.320210763067214
0.318490541970506
0.319210886818392
0.323267622951396
0.318670536042542
0.323588107731517
0.310484997039404
0.320231688397024
0.312018841551896
0.318999499056156
0.306878124015724
0.316780663160096
0.308211177410451
0.310487112206145
0.309854559456332
0.311457880607658
0.305178175175065
0.310146321049194
0.309319988136614
0.313885452259633
0.311329816306757
0.313992763151711
0.30722003796614
0.319252806711221
0.30625721510491
0.314139471575488
0.305169614024322
0.321306757527258
0.320714363411253
0.318844208124321
0.313697987008692
0.320266596965331
0.311109326910948
0.322280446493349
0.328257077764707
0.318965830264568
0.314645027045958
0.331815995809199
0.324279345850152
0.338161592064275
0.324920119263466
0.338140227841391
0.332212066823894
0.335782987550229
0.335627184209819
0.342721412027006
0.344044981584792
0.348614282259386
0.342914739620053
0.354514980181084
0.338991561475053
0.352715029016253
0.355305679216458
0.349644241615691
0.352863012355423
0.364766027876004
0.357288605660141
0.363489976433551
0.358196437961461
0.360464120918278
0.357153243122037
0.374346387205983
0.369739296683067
0.377646174641183
0.377536870610498
0.382574041489906
0.376625878328302
0.39036868194593
0.386812166095006
0.400623379201176
0.397586447030879
0.40721015966486
0.411820051180675
0.415946877387779
0.40432679134093
0.40583258429196
0.402658663087563
0.423703130680019
0.42164787271784
0.421412599508673
0.422605276423099
0.418562268450347
0.427065500904331
0.42811406189214
0.424515529092363
0.437675291434825
0.428929305291802
0.443568297313782
0.430230061309038
0.437656828429537
0.439560273399573
0.436551042185671
0.440226137276688
0.452763903460252
0.433069431554352
0.443411950205849
0.440780310744599
0.441904891827373
0.436988115239671
0.436882469796564
0.430791381591302
0.430915232910695
0.427749486876396
0.430670151298574
0.426879537784259
0.432759051132368
0.41719915303185
0.436186488628408
0.423829010062968
0.419787169145497
0.426474084835521
0.440949941025166
0.429453790892012
0.434235473704771
0.433564939301515
0.433905490564003
0.432028168837329
0.433122427628761
0.429173188311874
0.430948452602479
0.431395569432864
0.430693770348919
0.420475360892646
0.433966746463689
0.429749163376169
0.439005020592523
0.426964974214521
0.425956618605532
0.422413557441683
0.433735557325473
0.423172012841905
0.429716881922147
0.429271209223382
0.437057912079374
0.43264567299853
0.42818990618087
0.424976119244638
0.438838888452094
0.428395668331612
0.421526416575345
0.421534767216337
0.426228152267079
0.425323717253318
0.424909894453706
0.420323189028029
0.419651891194921
0.414343169682226
0.422681692914511
0.41166361025461
0.407850386511625
0.396462940280026
0.403414951132341
0.40169352911902
0.400512482335438
0.393507349086447
0.401005622798994
0.398372168328121
0.387766260031087
0.375726127509683
0.38136635268968
0.374992337119997
0.374712454842871
0.370820101769274
0.369498628329439
0.372963178353518
0.367117625509331
0.351570751030593
0.35918586524449
0.36066084912222
0.356682352205381
0.34453403937321
0.344588755338931
0.335052605089832
0.337234718631153
0.32978141649993
0.328389552253381
0.326060167200908
0.324441253370189
0.325386116324872
0.329262393418536
0.322418452715877
0.314423940740336
0.312566198308681
0.321612603716387
0.31005394974353
0.310884716742658
0.301250049333581
0.305532627732716
0.304551130950132
0.303077015905606
0.29307072368731
0.292429775200921
0.291510962490913
0.292811295978182
0.287500784346375
0.290860937706052
0.286636043397706
0.29445582735712
0.287677616691141
0.285574476836663
0.276101568243952
0.276187431890843
0.273883969847053
0.278032260395017
0.274188101692748
0.277030442552122
0.269347464288261
0.26713632037972
0.265077368687256
0.268567275841759
0.264767980545323
0.274943754806101
0.271687141900014
0.263221004961533
0.257932729857982
0.267456448717465
0.262409260964507
0.260836847366739
0.251991142970379
0.255386572856295
0.254979793259088
0.25380913840805
0.246725015055961
0.246006137050231
0.245368288170461
0.2522674082485
0.242906308626441
0.242536244575206
0.244101994963852
0.242079373429149
0.238704542125428
0.243442680227936
0.24484122225116
0.242395377041391
0.233753412715719
0.240589395706826
0.242010504225733
0.241753734322874
0.232636038683388
0.239081286817409
0.234986994461937
0.229614803998771
0.236687184690469
0.231980445717603
0.22368334520046
0.231546745809893
0.222928086825892
0.225424786561149
0.229595569859492
0.22557381890168
0.222244837401244
0.22875278344727
0.219412620989349
0.22354605702767
0.222289407381753
0.224974603874601
0.223140834566077
0.221598241780162
0.220416412402155
0.216459591753073
0.220345822775496
0.220134075528356
0.215965156866051
0.217799702440138
0.21363130336037
0.214017115166723
0.212379188317235
0.21340872488302
0.208961013826707
0.20791974398397
0.209744505286363
0.21175363028678
0.215937566445496
0.212099914507981
0.208893300877006
0.213275825100594
0.210975674123132
0.208376294194276
0.203772078062541
0.20945407390315
0.206870337575951
0.206608316522473
0.20693467342072
0.203683730414079
0.206847483539712
0.203770233010572
0.19664660462744
0.206652114895417
0.203243641682866
0.19900648388574
0.200917474248037
0.202319801748192
0.198503223839232
0.199797257909275
0.200903721740431
0.199889966295421
0.203072878908634
0.200906980833671
0.199788601704114
0.198314417650702
0.198300981920401
0.199691295103035
0.195730819914357
0.198276658113018
0.196580734731923
0.197120650132124
0.190343781703336
0.197431635025315
0.197041238729792
0.194172821257518
0.189108750748352
0.195837238819435
0.192104165629414
0.196932248710199
0.195167652232252
0.195772059014814
0.194814163798569
0.194824327163931
0.188047416610975
0.191312031240332
0.188687907330651
0.190426929790917
0.189230116163519
0.190407170017097
0.188812236881959
0.190872197967955
0.186462505671533
0.186572003109732
0.186268870171841
0.188650280457694
0.188628749559624
0.185218592277618
0.182201827781131
0.185051386661181
0.179580910701593
0.181531163040243
0.178426240435609
0.180136965948765
0.181684647674548
0.176233338223198
0.18052431327268
0.176932754940224
0.177284344873916
0.17687115267311
0.173443116600789
0.181234379255137
0.170694649633923
0.175201241398442
0.176057920721347
0.180242530148679
0.176907906173734
0.174411455070056
0.169407201154536
0.169252076076736
0.167894178262975
0.169242374211264
0.167232294572394
0.166437173400988
0.170459355935808
0.173200878540279
0.167971445204747
0.172331129420281
0.163293566299448
0.164749776548152
0.16537840690353
0.16806640395395
0.16225310382836
0.165910374162423
0.15990737657004
0.164752411917708
0.164796632962944
0.160824540570341
0.160401181860885
0.159173439298588
0.158415694783095
0.164941295147645
0.160647932940844
0.155545362297256
0.158331387681778
0.152250408625603
0.154697812762834
0.153122918227091
0.153284611877628
0.152994950134355
0.151863962505611
0.148853805691398
0.151049819853858
0.150009256573805
0.154226774612641
0.144612457990439
0.150009709150327
0.148481724704778
0.146648403730217
0.147816190300361
0.1437645863982
0.144507642651356
0.141637715253808
0.143505131108241
0.139980063605042
0.142576905932955
0.137786576502517
0.137107354970115
0.136650298816132
0.138869826673706
0.138348151735273
0.140437506811948
0.138020921855823
0.136837810745749
0.130694413820089
0.13364017190664
0.134052300782006
0.135435080530107
0.13271211397764
0.138458862370491
0.134381301897344
0.136172132252551
0.132888413559992
0.125358451706268
0.130012340526134
0.130251740559078
0.127165802002621
0.129147093979933
0.127369230030907
0.127134366562772
0.12790698799866
0.123831082351202
0.126887618820784
0.119414405394365
0.123280113248275
0.128595469490238
0.127103480821026
0.126761455224445
0.124075226795165
0.122582682479778
0.118739423766918
0.123123178153451
0.12535188455703
0.118923732304319
0.118572110421368
0.12056251403508
0.118613719381902
0.11907806876456
0.118913344424035
0.115653143604828
0.120443507543207
0.117511658698963
0.113028552954145
0.117678103166647
0.114710667697772
0.119599530051183
0.118034543576709
0.11251218653482
0.112518812949404
0.117820313083093
0.117210140017677
0.114813002656591
0.113181345060321
0.109858566423764
0.110003052926526
0.113808740947095
0.110468505579593
0.111519566932549
0.10964656330815
0.107494784482763
0.112917872681815
0.109810438265297
0.109669195079666
0.113008725186977
0.110681178285134
0.110388749733724
0.112547436305702
0.110195802176382
0.112119958982477
0.107555728095357
0.105073178479605
0.106967767707179
0.10563318174818
0.106601108041803
0.11106801272424
0.104348568936291
0.106376953728009
0.107431771076556
0.10711188990046
0.10683413517837
0.103248252701219
0.103521534701398
0.106207743268102
0.101649943552406
0.105893937308859
0.105814034080313
0.106645840414452
0.104831437682741
0.101016072853881
0.105430983503894
0.105370854861582
0.10183165756337
0.103061503529476
0.099517696686793
0.0981528617366081
0.101375652046017
0.101976228111341
0.100780787582771
0.0963526611153796
0.10297554704159
0.103946567560197
0.0995638840584854
0.102190452391007
0.0988559601294697
0.0996151798416605
0.102336042739557
0.0999862981448594
0.10070996161962
0.0977560898646844
0.0970492873567132
0.0976575654107505
0.0978620397751766
0.0991203454418214
0.0951619840555634
0.092507041520982
0.0988418400646611
0.0984663391262331
0.0938682329954731
0.0925926976330376
0.0942428302526998
0.0972947618660233
0.0933947805083592
0.0917714734184994
0.0952248506386416
0.0956014890773204
0.0917578594980992
0.0947693809702526
0.0915006446785766
0.0902115071442396
0.0932259019284871
0.0929029811243876
0.0920977638146139
0.0915356923294843
0.0926299772820134
0.0920191525704124
0.0850121721809886
0.0933375218412465
0.09464606110501
0.0916519647051607
0.0950333904304771
0.0923802991564546
0.0915543390914767
0.0907888280838675
0.0909356277418859
0.0900940110881902
0.0895552022719338
0.089876622095363
0.0922576638083011
0.0891311216318279
0.0882628616118692
0.0919055901272769
0.0871324435129029
0.09258898714538
0.0867513504820004
0.086090106238427
0.0841386292808288
0.0908472001016478
0.0865704578148363
0.0892497482873806
0.0889306122264317
0.085455516390102
0.0879412037856577
0.0843467069104561
0.0822526875381912
0.0816038048130574
0.0822004375218398
0.0824655031278443
0.0801821731972498
0.0848628603322007
0.0809128200685526
0.083314207432482
0.0850151395396325
0.0832169635753763
0.0816498553485832
0.082450940127223
0.0825345682645556
0.0792291203503164
0.0767773767283891
0.0803885132356619
0.0755097590163349
0.0805056701193993
0.0775752824202524
0.0803648424578234
0.0763738755265763
0.0797268871428493
0.0770717546990937
0.076460484262217
0.0805814768903467
0.0739324629649341
0.0778653372973648
0.0767938500511491
0.0756506241100632
0.0772819344119672
0.0740577880397833
0.0755464399072602
0.0773366302238777
0.0764577999087849
0.0760993907178263
0.0722383098724651
0.0704511846942154
0.0688320814407178
0.0696377653987864
0.0785059866774859
0.0731045423738249
0.0712013333779216
0.0707926509248071
0.0732183409912462
0.0696068521493594
0.0724784838272077
0.068691297712519
0.0714177021770925
0.0711883615162981
0.0749449345019235
0.0671363981333343
0.0687169334732233
0.067242294242454
0.0702617768097039
0.0671023917262882
0.0662287643702429
0.0682728022842473
0.0681249597679163
0.0695739446391756
0.0718608683639946
0.0670511604217679
0.065373582749882
0.0679759252000431
0.068695748390879
0.0650011064489043
0.0665172065932223
0.0643403410018893
0.0644032067815319
0.0645199789581961
0.0649165773697306
0.0620603349662458
0.0658642194966436
0.0636003308687915
0.0654687350290411
0.0622702166473387
0.0624338566892745
0.061805681949572
0.064021485869388
0.060000655060578
0.0620566067991803
0.0593179030509758
0.0630925216876193
0.0610728069075963
0.0626382231182309
0.0601104155325834
0.063122655275598
0.0577933520793001
0.0643506526578827
0.0574230666364014
0.0586591598703886
0.0591205105242927
0.0603736027086748
0.0570238980035437
0.0604837629632596
0.0580266656261672
0.0609640590103051
0.0547637751638762
0.0634350027411128
0.0610310581715067
0.0593491480252353
0.0589291682122268
0.059471373314642
0.0553835552344606
0.0607958560731614
0.0583873127145041
0.0602274945725491
0.056700483448946
0.0574341874689371
0.0549802267032796
0.060793821501437
0.0576287110693487
0.0584303619135805
0.0510558262784574
0.0575304205276476
0.0591928681314253
0.0558130481561637
0.0562833452503239
0.0544573053820891
0.0510057998496865
0.0562275370700204
0.0565367365824936
0.056642521906511
0.0507204684693178
0.0572578600402502
0.0510898492547957
0.0583818086845798
0.0544850159326503
0.0581319306435176
0.0490394306343773
0.0585072806410903
0.0564472229231418
0.0637660433776328
0.0506422876715689
0.0620689586255569
0.0577750313372199
0.0595873165018495
0.0561063800327771
0.0592172977614187
0.0552901646770332
0.0600462339547417
0.0545703669416311
0.0618407648106547
0.0572341218044507
0.0560898373412066
0.0472920464371565
0.0549438535588884
0.0500335154870797
0.0561654801777488
0.0501562569607578
0.0553016315904762
0.0443379884413843
0.0578207528380778
0.0528587515226278
0.0594065885499315
0.0467030456081696
0.0607927128812506
0.0543151318393103
0.0602997116839845
0.0547949337046594
0.057277430041809
0.0476940689457806
0.0555176111045436
0.0554720778322044
0.0501514818115672
0.0602029109496978
0.05099047274541
0.0617270158265411
0.047712536447348
0.0602186667440485
0.0475700984664834
0.065754736172183
0.0422791155723057
0.0661470894309201
0.0468319245562464
0.0655898563772332
0.0374803929686466
0.0679123592557566
0.0412684025027024
0.0671902475052525
0.0413223357108197
0.0628661123510421
0.0481932844650827
0.0568521218525562
0.0496480106102662
0.0522585821026487
0.0534287857698658
0.0481976955427363
0.0533759545359463
0.0512595884340644
0.0506967764691926
0.0512995295957988
0.0485111509834325
0.0562925874953818
0.0450849446322488
0.0505639120719622
0.0482088959060783
0.0535085378824186
0.0483426147752994
0.0511244419697429
0.0509010660139443
0.0488448484970143
0.0467299245247333
0.0527721406100978
0.0477440791652934
0.0516511254422562
0.0490476894343493
0.0514333490380254
0.0485952811338005
0.0491728398262114
0.0495694194813553
0.050815851657974
0.0482622939669293
0.0518470853835107
0.0475303240441531
0.0509272740515932
0.0482665535600439
0.0524190173278152
0.0491476366334034
0.0508269824190348
0.0495580118633166
0.0498914900852274
0.0521706489791876
0.0509090384580158
0.0503231749572132
0.0491585979081038
0.0513576903594623
0.0479725985888088
0.049547122835251
0.0497929431796177
0.0515879156921128
0.052004694804818
0.0467846790419595
0.0510740254659815
0.0496996049395017
0.0507142651633029
0.0492718927376506
0.0503667730895434
0.0498383043926561
0.0533584538956968
0.0510843296813708
0.0485809029703429
0.0502934846548498
0.050806901080648
0.0509083600683501
0.0527809135890869
0.0478488794648344
0.0488801892531918
0.0497354974808206
0.051146501747099
0.0512705777322221
0.0509274839995747
0.0490723870194902
0.0500363202128236
0.0486103622212901
0.0489454558626883
0.0521514425611697
0.0475925449878897
0.0467160633873812
0.0508848762277453
0.0514406122234192
0.0516239600033084
0.0471991802480457
0.0506039573051959
0.0505744990579121
0.050664703996523
0.0464512370765598
0.049387795377567
0.051788360013077
0.0531088332920962
0.0501785979942382
0.0511261169415448
0.0520531047470162
0.0509741590614077
0.0475562003536688
0.0475667793567899
0.0496704400177595
0.0485554283726423
0.0496489818432151
0.0525192154416256
0.0515239120957329
0.0517335260964481
0.0495127471108333
0.0485038409201351
0.0526317766547217
0.0533571946377206
0.0537799161247592
0.0521109743486693
0.0506214351767233
0.0489686173370624
0.0503254388310135
0.0493308567504963
0.0522229295337387
0.0523059830812439
0.04801551168317
0.0519244673508766
0.0526868536944928
0.0520179856063028
0.050577956621218
0.0499378986084169
0.0512101785885333
0.0513753559434465
0.0550394757476884
0.0505777693409385
0.0515348420818571
0.0509076876552255
0.0516735049225262
0.0542053771390518
0.0515103932111489
0.0530633741251259
0.0530702369811292
0.0564609188535015
0.0543054312730568
0.0521484235658934
0.0526138496283798
0.0513020432590276
0.0529662811395336
0.0496422195472355
0.0535877714637158
0.0547249782570922
0.053893029037567
0.0529660459785354
0.0496798176210422
0.0550321315769516
0.0555731978710141
0.0528487228881462
0.0523716332400651
0.053134403584517
0.0561583747272528
0.054240727514914
0.0547009726412183
0.0512937214608941
0.0524501609317603
0.0552716076179967
0.051343168160817
0.0519474158779853
0.0563243293869631
0.0551454849846805
0.0544650210475035
0.0527605393212332
0.0551858757173807
0.0509150624073235
0.0549934968938
0.0559114530611238
0.0552755447485778
0.0552076445927717
0.0528572138989809
0.0578461442850689
0.0596549656568442
0.0539771413080428
0.0537762512930709
0.0581376370600531
0.0540065259252346
0.0532915410960245
0.0559469052499782
0.0516368725950326
0.055168677697921
0.0536081256072083
0.0543529024873969
0.0554415433338466
0.0558956802505516
0.0578956798974104
0.0577185069436474
0.0558173951200528
0.0547799915714206
0.0507045393740309
0.0532124707989454
0.0531950266964399
0.0558975977743758
0.0541201130517619
0.0556072167930079
0.0550209952155612
0.0555147822856611
0.0545868326335768
0.0580460488320739
0.0539161097592579
0.0531131502317544
0.0511807481378157
0.0565973994498131
0.0524406037548938
0.0524309711350789
0.0520513853284927
0.0538452256587
0.0534674029874654
0.0533738335486218
0.0541006394899531
0.0531171184596143
0.0521124236420471
0.0546959751574173
0.0515873050335509
0.0494684440344683
0.0500956034308308
0.0525765224494257
0.0534228051555162
0.052813973992421
0.0525175399154754
0.0514851770415726
0.0543683504067872
0.0542912917487857
0.0483699849528857
0.0516017292250424
0.0513987838450567
0.0516158624648118
0.0537681451368236
0.0551774874508982
0.050706256636563
0.0524872097985509
0.0498207820800002
0.052300975661176
0.0516018889423527
0.0506536132725925
0.0526560576983515
0.0512997340114234
0.050171624401169
0.0562160473517738
0.0527191134501737
0.0498976585376358
0.0497907426382669
0.050854210645228
0.0499447120143474
0.0511881419899891
0.0504479361733024
0.0511380836369477
0.0498780726083007
0.0493075620217523
0.0520015063078833
0.0544281020272595
0.0493991232790259
0.0513943529647532
0.0497910100014313
0.0505813812173005
0.0528691759294705
0.0512250908092452
0.0519717044964729
0.0502739414059851
0.0498053079119267
0.047447488962747
0.0482586586016771
0.0517251505042841
0.0494076752235545
0.0507323547398212
0.0485827584228533
0.0506364992939639
0.0488263969661227
0.0508446626317449
0.049750055381402
0.0484913875003625
0.046688162972995
0.0514364725751467
0.0519610036192849
0.0518132094380302
0.053023298887849
0.0491252685462057
0.0478244884553451
0.0506333871174834
0.0503935584219087
0.0486871704405614
0.0486361239404838
0.0531855921282868
0.0496576385152664
0.0505715145943473
0.0509786829797649
0.0496617365804331
0.0504863381281519
0.0490259076705024
0.0475534287923553
0.0482469631277906
0.0478886899797947
0.0486720420258615
0.0509958956259142
0.0482100117637279
0.0485033170156217
0.0477023519570937
0.0479970606318868
0.0487274109938933
0.0483518977186026
0.053421840439804
0.0473039342689551
0.0471890362191526
0.0450982702154946
0.0472626738758434
0.0459657873007417
0.0493172301341215
0.0486859317245018
0.0422865975772469
0.044784908298058
0.0488781975156075
0.0468469520037075
0.0459518559500575
0.0460320034196464
0.0477659490515642
0.0460059472764517
0.0441670619330925
0.0438686282842585
0.0467142920104282
0.046681715050643
0.0457380939600502
0.0443917025429581
0.04854216290626
0.0410619347247688
0.0491387833892753
0.0446010452994975
0.0475795873516981
0.0395252463694615
0.0435184207192304
0.0413981157685373
0.0436913149470191
0.0443137253445195
0.0456213803034955
0.0426611731146465
0.0436268162948204
0.0433524258912717
0.0443182641414644
0.0437644095670009
0.044886628007855
0.0422306887014733
0.0428021272483919
0.0416313334718783
0.0437488674431028
0.0423998870415504
0.0445212865968002
0.0402288695181022
0.0431779462716771
0.040277698746638
0.0421920914440789
0.0421039762824746
0.0375796521823944
0.0437316229238946
0.0410602795864122
0.0400838668432218
0.0425958149942645
0.044506082152919
0.0406721103812776
0.0402341804862909
0.0381740047113792
0.0412549457748599
0.0412662953290087
0.0393383074736741
0.0401473053467092
0.0389782663315267
0.0400146318957699
0.0405607948361021
0.0407960260644837
0.0420112542042937
0.0397429741107224
0.0373541642999618
0.0405770951464828
0.0387044170607299
0.0399486313619052
0.0395593027228095
0.0385801666272876
0.0371360916838381
0.0321482717690544
0.0412410349602297
0.0424015611785884
0.0379304000249219
0.0403203205341134
0.0419779045309374
0.0392702304664449
0.0415291386290588
0.0414755155019764
0.0381987462818648
0.0417056351685995
0.038188585172393
0.0376402736864527
0.0379345255540125
0.0364645684402505
0.0388003337606099
0.03800598984665
0.0392034084038961
0.0389101916884957
0.0374282779100075
0.0363526540737759
0.0397211799130213
0.0367583370405119
0.0376015383939506
0.0371090632403698
0.0409168510208842
0.0382191102713198
0.0295452112680381
0.0449132390362615
0.0361485950943648
0.039736946974943
0.0357448871837095
0.0389015340117149
0.0339451111344674
0.0400708926875359
0.0362222234232855
0.0388953142835736
0.0375451050194203
0.0363321748937798
0.0355777850309824
0.0373230755477847
0.0344185387961239
0.0387001738401735
0.0348703609167953
0.0373559508939487
0.0337700939552272
0.0370438827485966
0.0320437652153401
0.0352164131581148
0.0391061632854128
0.0405379543264472
0.0343366075934207
0.041500769784908
0.0208306811272663
0.0449496205640329
0.0436360709690659
0.0382725873397812
0.0368690285039007
0.0375541865984368
0.0375311757400164
0.0358763422069851
0.0347652236966329
0.0349234638154973
0.0417665845501628
0.0342535121945764
0.0373780085345612
0.0341338175036095
0.0345807516819544
0.0353900918951642
0.0328504458743291
0.0354534356496216
0.0367956355006477
0.0363624284298327
0.0351449112156094
0.0369885767361338
0.0343372896305497
0.0378793730164903
0.0311788435162297
0.0328837617954415
0.0405674850205527
0.0361568280833994
0.0354218234081457
0.0364004970299103
0.0342780333931791
0.0287553091701041
0.0491839902351226
0.0359536984065872
0.0398179925822023
0.0339287816317539
0.0364308136795075
0.0350202416681277
0.0332806584618539
0.0334737184790462
0.0357907190561983
0.0346115703280839
0.0358686360936343
0.0361235976576031
0.0352046419399122
0.03710434348616
0.0362500056734576
0.0382826967277985
0.031728689304127
0.0369844710921151
0.0340485040436222
0.0402779234621364
0.0282878561791225
0.0320632982485645
0.042517823055258
0.0377039209503946
0.0414229217617652
0.0353830683887932
0.0380091054082944
0.0350422526831855
0.0392551639848219
0.0319822879465931
0.0360145263887166
0.0338002386470566
0.0381596458696569
0.0342546112081676
0.0366870360021029
0.0349003875111669
0.0387207454841655
0.0332270558201468
0.0387035893366609
0.0323202924542417
0.0362480322498894
0.0316015452622835
0.0397819704111088
0.0274830862042811
0.0406923215341113
0.0381341032792589
0.0411807923645705
0.0167445857649742
0.0324044471712852
0.0564391720132056
0.0301128292495793
0.0451397746407913
0.0338269618032426
0.0410884414079622
0.0321753306865904
0.0340177913865398
0.0380537271372532
0.0361844056947226
0.0325321518226105
0.0369356912538479
0.0361331874434131
0.0399648115291857
0.0296910691581024
0.0264315416166993
0.05320688908831
0.0395225097774102
0.0386593310336676
0.0362882528771403
0.0217333087536686
0.0556269447405882
0.0346269377493232
0.0382888787617939
0.038717474555652
0.0382550446386201
0.037901344740399
0.0411040409998277
0.0349482139467444
0.0379958276411491
0.0397291068531271
0.032523984258167
0.0394081372006437
0.0355276562097891
0.037904576602058
0.0357026035884012
0.0378122906454711
0.0502400909755122
0.0385101456795794
0.0410757814286637
0.0435386897826267
0.0364262711788847
0.0399735231421084
0.0416039165243206
0.0365074041783607
0.0358428643091234
0.0486776453119428
0.0335310028044045
0.0385380304943264
0.0477225140941864
0.0367358196423761
0.0398037888230792
0.038248830144121
0.0465623329379658
0.0388841261917049
0.016241937304825
0.0611345011093884
0.031834671835475
0.0608144446750901
0.0375154688431449
0.047878819213185
0.0391619691770131
0.0500242657477371
0.0324235982182534
0.0514956264458684
0.0446902751445781
0.042999927541868
0.0407115132320905
0.0337535706935834
0.0502487832978373
0.0441597261426466
0.049367318292025
0.0444064952043674
0.0388049802673958
0.0422433309080307
0.053066954666129
0.0202841294167039
0.0532528544839131
0.0521558388223563
0.0522529860360446
0.0562115473227927
0.0250142812929024
0.0601171820687285
0.0513414671268624
0.0474850227530746
0.0499651889924876
0.0483119012262848
0.0495434141357795
0.0296132236574097
0.063698394294171
0.053950959440488
0.0429520284487155
0.0561393259069094
0.0374749512770036
0.051427228159797
0.0582106447506588
0.0505766831121489
0.0514216456259852
0.0562629240580804
0.0324073614101672
0.0475566252320296
0.0726529679875303
0.0335180133053599
0.0701937805005565
0.0454482679273941
0.0644266664595055
0.0538275567703681
0.0594816265912819
0.0457104160472019
0.0694933270952868
0.0595638469927588
0.0543486349098278
0.0424048451933726
0.0831233222833361
0.0558079210432808
0.0711658119221397
0.0597197806196501
0.0445740093001726
0.0449521659037432
0.0927438812312196
0.0784733265111186
0.0750683664662989
0.0547801523811449
0.0740485650309696
0.073782126679528
0.0708475484299286
0.0709215699480638
0.0716758012887916
0.0748963461346567
0.0739294733523792
0.0765000069292648
0.0786213048069123
0.0745682159064097
0.0834295156319027
0.0647221085327122
0.0761510750799609
0.0721975077439221
0.10890125276541
0.0715350831835688
0.0887120231419596
0.0956342946091157
0.091915960852056
0.0920754368231217
0.0841218171492183
0.0922846347048456
0.0946383537201323
0.0950128753945313
0.0837920129974502
0.0914600332484607
0.106801670600733
0.088730278027205
0.123749238883372
0.0932832619270154
0.107073232317425
0.0388317193122129
0.181688867404581
0.135103903631388
0.110823169717115
0.119022328953398
0.0758327922164035
0.169510603878937
0.138019906810879
0.135783032255118
0.142859922606667
0.141414438741593
0.141008868220055
0.153672398321772
0.148055548689072
0.162651762712815
0.170892473150499
0.158242994520862
0.147222106673282
0.202694510100212
0.19877671516023
0.207496320011837
0.188268318622078
0.198128880305419
0.211120756752901
0.210259875462441
0.213812613734781
0.221281200436928
0.184616526980225
0.280904681238771
0.232700916358091
0.244442661703478
0.236290466471427
0.264873277689575
0.248798995434107
0.26248130324519
0.299440884542264
0.272812872551513
0.292342396333329
0.279090716696555
0.301074615308407
0.27492373009985
0.314193370610155
0.325930111325926
0.310991700622795
0.320049970195918
0.322284685832617
0.329779571735783
0.325946039444793
0.335687460173744
0.319513874685101
0.325070689520966
0.336042079178386
0.41893847431557
0.383443655938013
0.331472099704575
0.350318579562929
0.327902621655279
0.362449238748231
0.345269465036628
0.35173674757902
0.377615153301403
0.344344516551683
0.352732229995594
0.351239529079586
0.359181422315889
0.349625558183703
0.356535540666687
0.349486766970613
0.350276466108139
0.355116074913822
0.315312905785975
0.423217515213712
0.351457189229156
0.357755917468821
0.347641747705592
0.348868097579132
0.340025775215537
0.341828398930573
0.332534915190332
0.371625862171017
0.33959538809044
0.340240342812214
0.326043178390884
0.336206311763318
0.364890682887273
0.330869283813843
0.32693794140115
0.32681164655139
0.322362920641168
0.312069326819383
0.274285936636061
0.3613748791461
0.319063498214406
0.312944778750292
0.312729985885187
0.312050305897196
0.304433828809254
0.300350232848328
0.302964408930221
0.308426189018175
0.295938255421041
0.303837222463795
0.300236896389804
0.297861695760419
0.300323287745421
0.299701874146493
0.29982704278109
0.296600098918914
0.296703131129358
0.290158242209293
0.297426013258421
0.292496876936558
0.290850766228934
0.287442804031437
0.289332542103174
0.290715398088856
0.286362884277607
0.284042655578015
0.291541330815938
0.287601618759247
0.288771690246638
0.286097082760419
0.283818229271559
0.286545958672332
0.28627188794858
0.281473320714418
0.285823517594648
0.281952231124343
0.279959354209727
0.280146323062173
0.27690910710156
0.275395141088773
0.274204640681239
0.254167002214999
0.291561898386966
0.299129834282192
0.253526595141091
0.270900979096981
0.263791830048736
0.268952487083927
0.247243188521393
0.265352243025923
0.27619873890533
0.253755194730216
0.253936289349618
0.248297177821337
0.252512626205806
0.261540308396345
0.241748790943888
0.245153274304107
0.231093566173947
0.211150701377102
0.275090656743644
0.214590396974455
0.289507527307775
0.241745905785525
0.229667445953811
0.212105443236377
0.25861710688619
0.232070649157086
0.228564202495337
0.230684981923356
0.226096067841271
0.241608428359023
0.220798173810934
0.229613118942491
0.211649618899914
0.212804481142978
0.239361477703787
0.214239750738827
0.201479680334622
0.231580662064728
0.204898335514665
0.19632013081459
0.245284385402784
0.23033965512279
0.209205810097421
0.199498308505172
0.199672208229715
0.183847159838694
0.215152536952561
0.209172276128392
0.192038344833149
0.198884095915469
0.183438183892821
0.195728018881587
0.191725961058814
0.194535622702563
0.170674468868316
0.204004792709324
0.187847194228797
0.168862760560197
0.194696165491243
0.163371601539668
0.216952611713831
0.187552425385034
0.17441099043275
0.162980527330082
0.204024626727606
0.175016948847172
0.181065100785365
0.176481561322466
0.15881807221778
0.184805780112502
0.171571105678429
0.153635955752532
0.176274853344989
0.150479859923083
0.164847346945378
0.172427930457247
0.188624476802763
0.177207751658467
0.161215319994331
0.162904773160673
0.169033193810332
0.166332742581424
0.161973584158264
0.146908325801793
0.184160536862149
0.14177107653077
0.18289208121201
0.183860149700141
0.170106028094393
0.174594081385406
0.171808208812081
0.165455259684895
0.181462847164502
0.189598735621023
0.193237061200454
0.173182326219245
0.201044284026437
0.18662182646384
0.194107308085206
0.197078096459353
0.199074125980895
0.196669120242871
0.210246914937825
0.212428189555629
0.212169038274193
0.21487801480666
0.223117647141807
0.220817591723728
0.250227784739794
0.224929048332635
0.228566161786092
0.259115428628506
0.249263299639783
0.275839051953584
0.261474057848967
0.269987878548288
0.270268688774631
0.276183781258477
0.272395364899807
0.264996072375303
0.29655294468952
0.288780967591817
0.290193604195177
0.296806114231406
0.296456720989078
0.299957490282043
0.296924272884068
0.31219707646762
0.309892406273286
0.345660592567704
0.318134077831539
0.32060100455925
0.313853150463802
0.312994041879404
0.329180653331327
0.32443072429276
0.323693781531167
0.315723682139161
0.3373766720754
0.334528125022174
0.323585547934947
0.338426515785775
0.335619610595619
0.337554061273922
0.339945669399656
0.338577648627749
0.344856719792182
0.341991166419494
0.34341482905833
0.334847723394416
0.380567014741529
0.37438799329465
0.350039938808263
0.368239292812945
0.363810065421229
0.365690480801588
0.367235230722306
0.373401679846978
0.384050143511944
0.378399790189987
0.391004108094609
0.390328843246717
0.38357713082367
0.387950317579729
0.39979163731983
0.402762696448589
0.384006631453136
0.393170024599668
0.381938848910219
0.428585480454292
0.395130527080061
0.406438231149405
0.414104090531131
0.408918146337625
0.408547030981108
0.409436275789757
0.410909440178323
0.415603778233023
0.412698001224807
0.411247522502859
0.414768032519821
0.408865591292686
0.414546857600417
0.407759867598511
0.420930445595603
0.414848534334501
0.401032502983969
0.412241535640814
0.410761969131074
0.402802833701805
0.413656191575813
0.424547691934863
0.40794175497068
0.404338743724147
0.402872988755643
0.415440351342017
0.424046440587665
0.409027143283064
0.408743758288487
0.413292104311226
0.408188070304802
0.409077602345149
0.408643110176544
0.428018638273242
0.425547034889587
0.420254707618235
0.423314946339792
0.42474193839003
0.424661147129128
0.424417016508833
0.428845379012118
0.428216480216604
0.428583280300934
0.427017442280366
0.430065837483262
0.422474229383849
0.437739713075791
0.432710022063787
0.440451351029826
0.427684710798876
0.429204548558414
0.427201758293795
0.424429191770036
0.427049115816645
0.425585300977216
0.416097294309393
0.414358064668589
0.400932669458583
0.401778470301497
0.403536153672286
0.407489236494703
0.397731192991761
0.397225779621935
0.389541254770741
0.391050231101291
0.383130132586527
0.378015116718198
0.381855224666886
0.380701156430212
0.374930710455426
0.375046063700442
0.3672294741744
0.374503406375584
0.375541073755033
0.367480593551834
0.36682941925528
0.368999143678022
0.364095164451511
0.364950814324387
0.367694823409794
0.363148722664622
0.363715711070163
0.358669059561158
0.362406042058129
0.371983302810127
0.366638009044409
0.368368406949711
0.359729048600244
0.370992780078723
0.358436856200742
0.360999598699766
0.366544214382927
0.361092721013942
0.360283738690436
0.3620365717773
0.36402774418168
0.360754151439592
0.35989965006059
0.35942356823796
0.358896101486118
0.358929235088098
0.35574968595608
0.360184735017273
0.359813849940267
0.362486519410244
0.364795571104546
0.355493487907618
0.360228020050685
0.356120135369812
0.356262174795236
0.360448122609144
0.354292036943219
0.353219502964147
0.362360507978319
0.361544659071036
0.353838140662205
0.355493966478477
0.356956937903948
0.357262170123019
0.357128768063083
0.355859779877398
0.35460640894626
0.354048220034698
0.354224323340585
0.348720347654742
0.346828193958328
0.341710177474231
0.338717578155597
0.334788931750437
0.335881865461296
0.332842280909397
0.332160752687944
0.326277383552035
0.324328106929088
0.320550085787057
0.316270973271706
0.313947909886448
0.313291958214813
0.313957064104158
0.313526712647044
0.312060884755667
0.310592038656979
0.310121637191223
0.309773651632697
0.309471899128274
0.306646324430753
0.311123103087416
0.307603745993555
0.307021884257809
0.306660350849789
0.30883857075593
0.306411878936863
0.310100757932424
0.306180571375048
0.308154541267935
0.312387217267762
0.310556345167836
0.314574879556749
0.314892262758905
0.315889113567586
0.317288333026734
0.320167444349315
0.32429252970304
0.324241002325267
0.325505161724616
0.324634983826493
0.328065923421594
0.324751332883623
0.325374826782676
0.330590091164181
0.32956745389216
0.328081201061025
0.324259988469733
0.330616411165986
0.331122725099887
0.325527660168913
0.330208849527635
0.327022519407128
0.324165639825056
0.326604086217122
0.322506538380736
0.322563658397813
0.324442927051634
0.321118899258603
0.319259637076904
0.316869174648884
0.317967368937993
0.31812439333339
0.319816435415117
0.312474051391806
0.317889429976748
0.316365786450206
0.314278192618038
0.308058741524917
0.307021943918384
0.308540261430275
0.306635176777634
0.308448295842423
0.304810115282418
0.303224552073301
0.301770137769522
0.299947603277915
0.299874876187964
0.300897028009323
0.301699788002512
0.298603568720249
0.299271429311146
0.300441330652429
0.297136620560048
0.300230988431361
0.296045119887541
0.296913427977761
0.292453196974583
0.294956643109317
0.289016251138593
0.286844618568352
0.28417241620183
0.285112545053915
0.28336214729084
0.280160452763733
0.28098037753621
0.278947205339861
0.269599823722507
0.269798171013418
0.27069237918864
0.266667474518855
0.267649219195068
0.267063966664367
0.263856103884552
0.261977564129686
0.266129244470637
0.266770845570905
0.263844373966458
0.260825410583116
0.262747485421148
0.261134968014301
0.259392155388632
0.257011667894343
0.256998565346225
0.252313263147426
0.249442049706154
0.251653457686632
0.248103388441607
0.243212984999236
0.239608846550121
0.238838115234209
0.236105923645277
0.234118952415577
0.233980643837806
0.23578966744806
0.233008836437435
0.239376239572866
0.239682969359602
0.246659386985738
0.24978639137056
0.257820592187138
0.265438737467455
0.27254168573274
0.280712479606854
0.293378491713106
0.302148240274616
0.316751747418953
0.331999882059452
0.338861233153512
0.354560264830933
0.366077519596733
0.379880485547462
0.39198836661481
0.402457751560482
0.412813388549647
0.425263631600105
0.434093375738237
0.449046905227216
0.456983840889575
0.470187252391294
0.474409144147948
0.486397775927249
0.493390402208987
0.500427570291114
0.50575059540922
0.520852955304279
0.522181602897405
0.526001676680899
0.534552851514441
0.538698408130766
0.534705012870522
0.547011588123792
0.553025152537702
0.55479774735212
0.553278362731247
0.553380429841317
0.551288290879324
0.552418541116649
0.550944605666446
0.552865625466122
0.554378783554547
0.55838338355584
0.55709882092224
0.558444944421996
0.562885632094243
0.564888049299513
0.564679334720392
0.573485617516802
0.572571118343406
0.575913739719755
0.581445733051232
0.585242681165673
0.593994526113177
0.603295125257014
0.605061423501446
0.612656610541004
0.624979017455009
0.628202795621173
0.635212645337103
0.641789590489284
0.647186253478535
0.672272385174485
0.671405380460924
0.677848917529013
0.687715719566788
0.690225072738331
0.699921592481067
0.706236715288397
0.713466077218708
0.708220961850575
0.715394884527944
0.716967379577812
0.711501410863849
0.71147459937111
0.709871223001695
0.712778150022182
0.704039634666946
0.709410147234898
0.696062785732014
0.699520258798722
0.705929891961981
0.713407913186142
0.710905460876777
0.720251976357617
0.731828783874895
0.743028595763478
0.757664992352981
0.765879816813943
0.768856642018773
0.792599752821491
0.804613449425591
0.81352468062488
0.820770016026261
0.834661437325697
0.840310564714817
0.864992434260415
0.885505230424442
0.878941515270069
0.904225247887567
0.917852262307957
0.920899275890718
0.940740903893582
0.95431620724615
0.959610968011611
0.986876729393584
1.00684001453895
1.01629695271389
1.0355814445945
1.05676479864982
1.04232389441041
1.0731962457652
1.08092427230917
1.08652587638068
1.11289518436307
1.13011057635903
1.13344942391885
1.16410361279495
1.16757482824864
1.16934665615312
1.20478498539484
1.15587631985389
1.17659992703881
1.18264382467751
1.18068096477441
1.18356307260912
1.15959473332287
1.14199842681447
1.15926419420483
1.14018128109894
1.12462674057832
1.16624904485476
1.15193824858343
1.13110036293947
1.14265731492038
1.16212200535122
1.14213862668386
1.15298824823254
1.16585713258978
1.14815995210738
1.19960670521245
1.19264358994951
1.21907579082126
1.21991396796156
1.24486130797769
1.21731300566427
1.22058875988842
1.28360603564886
1.24351411481683
1.28828728092554
1.28133502964752
1.25972674475748
1.29418354494044
1.2809990675272
1.27268163531483
1.27739155038354
1.30600188890725
1.28206753417662
1.31166558317545
1.32099181038196
1.29622062515889
1.31130018274441
1.3500681868285
1.313682727945
1.31466273067235
1.31017568246155
1.29521361391508
1.26529663404343
1.31127844345404
1.27491111809134
1.27882401985994
1.21894557404338
1.27861293902693
1.24603696731957
1.23903163102085
1.1875539633771
1.20894224532333
1.20477827699705
1.18726564369438
1.17030981249863
1.16491598956556
1.11516672801041
1.06035816410585
1.02123193470131
0.972005515236999
0.947328262907082
0.922765307305241
0.895127700558144
0.847749118128261
0.811040631402064
0.795384787335003
0.779284389762489
0.77163763392845
0.753717740288028
0.746771167044906
0.749921858319676
0.726468587518061
0.724137307004325
0.721595664042186
0.715815749580864
0.710330048111808
0.691971900760206
0.694068016563187
0.689198912364578
0.678022563129059
0.675027849522501
0.661290387929436
0.647929324162934
0.633690703308378
0.624137311378871
0.608177189066999
0.584131511118589
0.577312033918472
0.547125910049854
0.532105325226369
0.513518425783946
0.496452916114308
0.479702854870563
0.461607311099146
0.440088977654521
0.41703944460996
0.397068424432744
0.383191084386143
0.364688558877444
0.347711807571869
0.332182683978538
0.319130599757437
0.309189804862204
0.294052438862419
0.284740102754971
0.276208162692099
0.267619460693939
0.261282317103473
0.250158918376581
0.242600723326718
0.240760168033509
0.240218921995188
0.237476213834545
0.238804944705607
0.229256620602258
0.232550520264005
0.231928119200359
0.227487644447289
0.225451043816348
0.231656656620764
0.228430704853731
0.229869510492434
0.227863023669489
0.234199237208449
0.237799075547355
0.241876075059328
0.233397491166213
0.233652048938982
0.235727000716269
0.23573455694499
0.233050871585978
0.228155745488707
0.229122768749404
0.233058246431329
0.225731588031801
0.225630857133625
0.221237647109587
0.21740694633329
0.223829776608934
0.216519789330182
0.217752729240053
0.217916243743477
0.218584598265336
0.218637792014363
0.2192515281951
0.220252378734863
0.221498486670921
0.224994324349087
0.23151345247182
0.235888155610976
0.225933138079913
0.235015964037521
0.23642257646965
0.239641169103115
0.240365199987574
0.242957307448752
0.242914410336192
0.245903696257398
0.248842905888081
0.244347363760203
0.2434217516076
0.254977375816755
0.253473336490902
0.251293949398561
0.257223382143664
0.2576630679339
0.25613761201673
0.264273625571253
0.260846472427515
0.263561427777177
0.265167166697656
0.264981325455575
0.269683827360522
0.278883600467539
0.278452892100995
0.289383147092813
0.300505528828636
0.315769893196884
0.311322062347051
0.321277510428172
0.336463832718289
0.345431127969422
0.340394307597543
0.345226155079859
0.344243983439753
0.34889510328476
0.360465251733247
0.34739866306077
0.341864737233274
0.332198413246523
0.329527523664819
0.324389017166133
0.325078406400145
0.307644489592644
0.311000723691533
0.311222423447279
0.315240784035282
0.307847170619067
0.304436553545443
0.296976053422675
0.30731329371671
0.308269315011414
0.315549660479318
0.309106805596153
0.311794681834761
0.308646295747214
0.29384675684397
0.297881032653858
0.306171957995363
0.287435709959604
0.285881623692302
0.290035114168575
0.292174448735068
0.283746040695694
0.274922808143802
0.270254821584616
0.274818717097964
0.27131430946003
0.266906178794687
0.261892485397078
0.262238136114845
0.259785985407984
0.260461366445511
0.261438670559406
0.260872504394374
0.255461832600034
0.257565522239408
0.259015947729095
0.249776156267121
0.248164163061759
0.250460576764323
0.24982712903521
0.254272584793769
0.242117347909845
0.254129456120508
0.24410597259089
0.251443555793002
0.248107447645433
0.245826425112234
0.230277483250254
0.239983194068754
0.24203653621066
0.237946575616167
0.22830466806195
0.226181383403444
0.238101989586256
0.231257629318388
0.227137972654567
0.23213249359248
0.225334046214064
0.232942092449754
0.228624381983764
0.234244633775331
0.238389868275078
0.234309532221017
0.231147188991268
0.23417995119617
0.230205728888247
0.235796613453604
0.238817301596927
0.235657543272636
0.242073981279946
0.235623674642646
0.241007865414497
0.238590854744695
0.235603472587043
0.250809328092091
0.255197883373475
0.2430640807515
0.252849651632977
0.263737784185888
0.256820781500258
0.25212760337528
0.262530556910177
0.244006179113726
0.254821490643101
0.258860128648347
0.272387885056675
0.279019496673894
0.272646718724321
0.271155821831035
0.260677486460462
0.275887955824781
0.29169962442575
0.309726875737445
0.308840048804269
0.310103994134147
0.328376741458727
0.330594416099268
0.342704184279288
0.34994098070591
0.342632123383305
0.365356026720457
0.373535814914222
0.394449657221475
0.394103321725213
0.404904490787306
0.409667734268454
0.404299288003539
0.413121544138655
0.426877393440035
0.406470896070311
0.433754936658591
0.429694868911449
0.435705603215722
0.428508495102286
0.426142282829903
0.43065330625648
0.418849045279005
0.396876008434234
0.403887709476125
0.443206689544383
0.422348087533435
0.404779213203136
0.411244844154133
0.420656049460462
0.402425954982694
0.393573584760295
0.401109398036768
0.410256344374132
0.399655410833649
0.39497457241781
0.387525305407015
0.383735276048606
0.387511119004558
0.393891268232998
0.398913753538266
0.386518588703002
0.402844143249241
0.375112199727381
0.355471579973083
0.346575875216873
0.353272395804363
0.333796897782244
0.369039047058771
0.379552046784126
0.383901807687406
0.347659554481996
0.349169345129362
0.364592792335327
0.355018813357658
0.353081864117935
0.365274193064147
0.356838464801747
0.367757510329423
0.359332368404923
0.369183015996281
0.352359395308536
0.38745144566958
0.403104318491719
0.382716164040624
0.369154632422348
0.36700025905676
0.379885350797256
0.368327164396365
0.364510476394269
0.38577102039127
0.396242059288436
0.392400540759577
0.408878190317198
0.386053849769927
0.374349966221356
0.456035561190114
0.37657568940868
0.371720155067589
0.356823026098474
0.406269525353615
0.405461973250476
0.370953548268019
0.406536827138232
0.389923963828251
0.415466092793192
0.472904188517793
0.433827783076045
0.423867973282881
0.429471945355532
0.457905786174628
0.445595195285447
0.493714690305312
0.498558303118308
0.499069599931998
0.491156068674314
0.538599032920073
0.433816043720293
0.468398919891152
0.551271745391833
0.534578965555968
0.526505159408158
0.550528492227908
0.482569232508917
0.542780039586848
0.535116702537884
0.574519024665987
0.505387590061421
0.432191215306169
0.513901388307665
0.508974105871998
0.428490617559175
0.541378195330743
0.532845729989666
0.416226761455583
0.396964870385379
0.465702362187903
0.479089562471321
0.424839574017166
0.397106559290916
0.43680665980301
0.451251294916131
0.491778216711582
0.467923452581909
0.462415371671969
0.433536307771517
0.549394365125372
0.514069574901783
0.550892296802409
0.43760263015825
0.423712081048958
0.529000298683262
0.521332101522425
0.371458881636516
0.438542986820414
0.458151733495541
0.500311990387813
0.616318209945968
0.649469153561652
0.45955768109557
0.772316403534427
0.424929396740562
0.64623763767487
0.440412093846946
0.666075661760201
0.769922559715307
0.438810107096722
0.558387478441214
0.598904567146414
0.634469614092457
0.763269064120859
0.313074603884098
0.542743935554313
0.743007449821909
0.515119055535997
0.476909731364176
0.844170396285087
0.473007898397282
0.497390894829027
0.90226196484897
