3596
4000.36533379555
650.420452594757
1
2
2
0.068029350693939
0.0553145148881871
0.0585087567972212
0.046737533426083
0.0681044754851257
0.0553427463956119
0.0686825410175789
0.0621528086337533
0.0646087056577477
0.059711430875273
0.0694359174277351
0.0615420924167195
0.0739798259848695
0.0496179845271935
0.0643252371272305
0.0528679072091904
0.0654585034860601
0.0439573723034803
0.0701708670808514
0.0613804277042747
0.0700649944877743
0.0634626921036849
0.0796978747909285
0.0511866610376818
0.0612797358882244
0.0696989157433077
0.0600086088312602
0.0475583379580434
0.0793751542946511
0.0602229656736331
0.065415037642345
0.0545166912936495
0.0780375662758026
0.0583226025761448
0.0733233380845445
0.057940461792987
0.061832968715329
0.0443396012272946
0.0647904467406183
0.0501661312363528
0.0714013007365128
0.0496266813987429
0.0627101075695838
0.0571123964514018
0.0653082483430963
0.0629606301809276
0.0602976939597895
0.0536707143368136
0.065730956829311
0.0548172686737917
0.0742535544948807
0.0421114137405775
0.0687618067875452
0.0667886624130118
0.0590351182729425
0.0576124321963649
0.0671917187082444
0.0626294225317603
0.0694554316827162
0.0391057898296745
0.0615191627479411
0.0612800182014359
0.0570287898133439
0.0615518438823945
0.0620646827185278
0.0573424304313138
0.0578395939877609
0.0552515521835994
0.0540002546229197
0.0373976494455985
0.0442826070825624
0.0643784899030922
0.0800471786733553
0.0485925189741038
0.0528681720141904
0.045928341734465
0.0571370418371589
0.0501264528852973
0.0536823290717995
0.0548538560978652
0.0665161354919083
0.0549451327429738
0.0632214157779173
0.0521562329667443
0.0573311347366803
0.0675560321186876
0.0556529460140799
0.0349173119579315
0.0861366818945082
0.0669849843061814
0.0577370957810182
0.0472387561007375
0.0713558794425264
0.0490947288431234
0.0494847265925535
0.0468470041598688
0.0648222548249149
0.0466250669119892
0.0615579776395437
0.030536640871263
0.0690435023849235
0.0172831070964624
0.101370697017197
0.0249916047597869
0.0821973307785741
0.0710353557572863
0.0181643653981886
0.0805495036204813
0.0736586629131322
0.0555121084480804
0.0567068278226551
0.0456815180187744
0.0525227340930975
0.052451355471512
0.0374870542117586
0.0382574980662062
0.0988494076800958
0.0534147636465339
0.0578317698067876
0.0439636417012493
0.0304721325559816
0.0156301587454053
0.0957716636663911
0.036245722897252
0.0697297963999188
0.0472790511471087
0.025945266770011
0.056861753457228
0.0996941147676875
0.0474766523815961
0.0570199936775198
0.0321664720398978
0.0516147921600267
0.0102688912406369
0.0811489049410369
0.0497409804562817
0.0500108570149356
0.0274114473935817
0.0553897515390061
0.0853423693180367
0.0705024419307956
0.0539445526583085
0.0411138662893687
0.0201720324274797
0.0922581223902466
0.0490897188669426
0.0442336832569069
0.0489322267352132
0.0803571362729198
0.0395608235406663
0.0576981891132729
0.0177481233948718
0.0634645392149055
0.0491181563724381
0.0073144444397575
0.0254680279390765
0.132751218238423
0.0251124361859453
0.108450362269904
0.0431834427194145
0.0671704098251616
0.0510090365495323
0.0503321983733763
0.0416931361536002
0.0507232970568785
0.0400162594502664
0.0359027089142544
0.0675076767873059
0.039024799145401
0.0353751259602455
0.0724476559931986
0.0439227409237582
0.026298436943733
0.099275441065035
0.0805395880227738
0.0182496031462202
0.0802148391246826
0.0570496582852784
0.0475333304234838
0.032311879601008
0.0808945805278202
0.0480615592759878
0.0559711268897013
0.0395570735800071
0.0399153918353817
0.0536471774132463
0.065186208121557
0.0436270238279619
0.056081526281613
0.00473659692334078
0.036233231461699
0.0826769426682195
0.0853274373043242
0.0403793207411559
0.0522180995962419
0.00687684892790641
0.0637364861098469
0.0763876613420894
0.0556983618811089
0.0509899387012028
0.0552239708310188
0.0441425047503194
0.0446387538256886
0.0447884537214164
0.0500343278634955
-0.00350638130592318
0.0876025787239453
0.0837626469320437
0.0435341221631807
0.0408455821389315
0.0362375783132215
0.00983081472323743
0.0822901595787134
0.0956256337878971
0.0471036663022727
0.0497646383231066
0.0379159100746302
0.0479730484559856
0.0718742664555451
0.0443481240347944
0.0623454115847511
0.0585300362852264
0.0541829063567938
0.0452651627313179
0.0530405639197006
0.0565750148947148
0.0640489383141742
0.0497313133456985
0.0510327469722827
0.0512811026142703
0.0677454292219357
0.0554003956456068
0.0610543883295472
0.0443572236092831
0.0487861259100183
0.0379622703971021
0.079471985963228
0.0592270740202685
0.0657502321344164
0.0500525490583716
0.0479013081576094
0.0466362982513768
0.0587328921577999
0.050629298672403
0.0505088803798903
0.027064251258899
0.0806395369459358
0.0672838314390747
0.0505971643047581
0.0397597751639732
0.0539266119974401
0.0865863925771217
0.053068366712082
0.0549178664519718
0.0613336089498105
0.0404233690183696
0.0227794941710207
0.0713411228522729
0.0624007937004712
0.0417418341463284
0.0588957979614545
0.0693036409805627
0.0501620254939168
0.0419216871430867
0.0205596397137684
0.0909857793582723
0.0706001180705035
0.0306837565583392
0.0945338320883915
0.0796380807915287
0.0648632545835119
0.0418712374560675
-0.0236088290675526
0.105031870922321
0.118023261507429
0.0559292485795402
0.044502698238628
0.0625307234974253
0.062806493715074
0.0408493069530185
0.0661115242689451
0.0448710746932564
0.0777886014209763
0.075545725429939
0.0925798893240363
0.0432259744835062
0.0579684252793535
0.0826454559886892
0.0484625397168294
0.0612811397710128
0.0550566884025009
0.052356406911472
0.0629077754717903
0.0839490030094137
0.0606774894025017
0.0663134019247063
0.0574623058718773
0.0784277700818864
0.0742921869570908
0.0580557532130126
0.0583856735245873
0.0684675244506342
0.0688985243776946
0.0673926076067043
0.058921475767061
0.0633618041504473
0.0546140143207372
0.0379161680087397
0.112757044797602
0.0704270029510458
0.052832276988614
0.0898633116495322
0.0828024991169913
0.0653892153537388
0.0654403510208534
0.065909518575644
0.0732541083557208
0.0526449859163866
0.0616568394829351
0.0810924750354297
0.0892947885309717
0.0728322040693975
0.0805506486147341
0.0724522494996588
0.0758970943139973
0.0689115589499407
0.0716421523715266
0.077754496480617
0.0790528579870641
0.0611465210765118
0.0829080628874791
0.081471554528875
0.0682162715224494
0.0802552815870223
0.12141421260987
0.0770379494033262
0.088685591535936
0.0860338560727627
0.085693562229637
0.0839807174558359
0.0869316893053446
0.0693226791432709
0.0805582828100462
0.102100367152058
0.100628090428445
0.0719961700603749
0.0633020708529113
0.109717526628159
0.132075507804796
0.116767953253525
0.0919730185252197
0.0780402552791983
0.0849674669024713
0.132880045534913
0.109416215473696
0.123588044433645
0.11268469893585
0.102009251680121
0.116837743613528
0.106516898649174
0.120937047623284
0.11387984131187
0.120871378051858
0.116904212717414
0.121422455618349
0.122116258496703
0.118870458763175
0.118425939430727
0.15879920654515
0.145069584344933
0.13899934029283
0.127232050249021
0.122587165327425
0.124020001087027
0.15835368225508
0.148515126734592
0.159968228559571
0.159497228301031
0.176840232666209
0.162697577950137
0.144695690179983
0.161877434216013
0.162666101984675
0.169617097529909
0.16742029508001
0.174371369648337
0.171067813679517
0.183264840863016
0.185371631431607
0.177098921208526
0.181841149400058
0.196244623282157
0.206340594469467
0.200108867712372
0.187199191827168
0.191507098709685
0.16756278202208
0.254834999704287
0.236606492992162
0.221701192531064
0.211646649637121
0.225290252226955
0.21953769106848
0.224417803742395
0.219096178713502
0.2257870349329
0.225468665681595
0.23847090723879
0.252427137942767
0.256702440862146
0.254216778648619
0.250955821310586
0.236153242736644
0.257937379436194
0.247153044486828
0.307722559273586
0.275090759161102
0.257927137200414
0.298022530422398
0.306449987293014
0.263237618219091
0.309284788472629
0.313486172933433
0.298557772991016
0.292954236260391
0.299285993483176
0.313029558555398
0.320843299095071
0.320453238712847
0.317024781997274
0.316615423543467
0.324905038237002
0.306587105409133
0.3422613623482
0.346424758814127
0.340223050013362
0.33035223338204
0.350673404580525
0.349431210862428
0.371360007498379
0.367636234181528
0.366809748461007
0.373289122632829
0.409888381121508
0.379306974131802
0.395901537690262
0.390261176588142
0.402227115447972
0.40003019445676
0.426589405027498
0.41343610831178
0.413113270335895
0.40659215783848
0.420558116364751
0.430323433296142
0.446609034816058
0.419606337479659
0.441227175862952
0.432874862464109
0.456156084712813
0.433968330893881
0.459675386330423
0.455996533325957
0.492231858020959
0.518030797611784
0.495680326642964
0.476613003617636
0.477170624159537
0.479063163951556
0.488531051878726
0.481677038277224
0.525613945578858
0.518498428921852
0.531737372579502
0.505410315708397
0.53986628093103
0.515955541538227
0.576800624180155
0.58074794828724
0.559768487443768
0.544314461053342
0.549427905526795
0.562118928425265
0.565569191057278
0.564203451236192
0.606232830394014
0.581794722791338
0.594334680636378
0.586846705247695
0.614384841208432
0.603113060428247
0.643875442624955
0.612747363926913
0.603043301845401
0.618488880324575
0.637191873295096
0.578580779133458
0.636332498278056
0.61378972271983
0.677325532474111
0.646520395704796
0.689181723631026
0.649241727545756
0.704466673548924
0.636892787853709
0.720668302198567
0.682657578486857
0.725597010732837
0.673769830842835
0.682944777404303
0.662081539576227
0.701242245897933
0.702478602639461
0.751304237655963
0.683854028773724
0.781300809741261
0.696903729584881
0.71304598980541
0.73409035966169
0.746741186604827
0.755530463335655
0.813089646592331
0.814494398908733
0.779120055528878
0.808691570475665
0.819648613610611
0.768009457841541
0.820065880322086
0.75195357744644
0.812361600344519
0.781014101875918
0.846622642954575
0.794994212431641
0.827742723086211
0.845117797511869
0.937087091316122
0.785567438757495
0.871302618327073
0.857400403409078
0.94641606599145
0.869778187922838
0.879207264275145
0.865766380769299
0.896262907499603
0.833046606459085
0.871924769234349
0.856894436345368
0.953200108220494
0.836163493201861
0.971807771797818
0.857035247789756
0.947739506514114
0.891917252078695
0.923862304684813
0.895241258860741
1.00831250318007
0.912765118117772
0.904442994015413
0.873777507072121
1.01478111084892
0.965250234240391
0.975274100879643
0.94113438207635
1.03815578099708
0.888530198319316
1.07753539032046
0.97865473928177
1.02008390501456
0.972596100578569
1.03858298205899
0.958552221318476
1.17214394299829
0.999313868627788
1.10544769521424
0.976662436220348
1.03402791616768
1.14902939237568
1.16390681001955
0.994520805328354
1.16040070922499
1.06228644894808
1.19989827400094
1.19452501736529
1.16770927065935
1.02969319815131
1.13708638065877
0.967559604314028
1.25601173157281
1.05939522741534
1.25730382823675
1.18952363499974
1.20920281543688
1.19078623668333
1.30065244533985
1.10125100257655
1.26830685794937
1.09080150586141
1.25180862303623
1.20049137516771
1.2752244178682
1.14394890028207
1.25290658876016
1.11664125622512
1.24200618010842
1.05610865879689
1.20155601457172
1.07526731822436
1.22054641328298
1.36885993924133
1.27063374950632
1.1061568493288
1.36331735863262
1.11995945970742
1.49162727294791
1.08193708448539
1.30532822637391
1.41133416030023
1.49112501878862
1.29968425621423
1.32537350143361
1.28816143411573
1.21265595753992
1.14636266337295
1.36010492904865
1.19989088688128
1.27749284144773
1.28946129896875
1.284604770717
1.30547559936437
1.51797534123761
1.34017300919504
1.56081315697954
1.39173429216528
1.37751291686026
1.17445968170944
1.36992598599793
1.30805597806431
1.62264531597204
1.19614809610228
1.4783818834969
1.22197088375326
1.40385903014356
1.27445207312165
1.34416084688046
1.31710350071942
1.64932195917244
1.35659297838102
1.78217906182844
1.3853083574192
1.42111453304877
1.4996694199497
1.4468797949566
1.25288181223198
1.3196693446039
1.68646461887124
1.56783983094643
1.31503534496521
1.67080678763567
1.52110260888485
1.73377285950371
1.27043846313622
1.76250844004121
1.38301681664919
1.5048863297375
1.3452718726416
1.64541917145487
1.36063891055495
1.65553101223971
1.3506104278779
1.35062983745742
1.45646763691421
1.48946274731343
1.24003954852204
1.57007316388036
1.29445674963406
1.81286539318431
1.50532199987677
1.75724452374209
1.55035074250015
1.61159255339802
1.36634636837832
1.46708894955018
1.52759379124957
1.60764910229083
1.51658034538635
1.60595211819373
1.2891180897754
2.04299916627679
1.40745310669143
1.61746172381699
1.52350095203346
5
1.40820788959594
1.68546325011058
1.46376110491709
1.63973514735308
1.56910508853579
2.13118514724853
1.43071329374619
1.43994371555102
1.63717829204547
1.51096829041319
1.64526103853609
1.52920588439946
1.50846261200905
1.9736626312001
1.54125404749592
1.58748275881533
1.44597424357612
1.51801755494296
1.44084989211623
1.87762106132327
1.5489189996298
1.47410499279871
1.58371985698097
2.16159988553808
1.54738229768299
1.4534130314804
1.42033732739339
1.73205143087187
1.57824256255792
1.82503148668139
1.42250317081544
1.73432559628605
1.39001362018338
1.77883126323084
1.43790317454192
1.73838371354946
1.44894953042021
1.74416653311504
1.45299290868035
1.58566866193241
1.50755771622916
1.68702235557708
1.46566749162231
1.84035804609139
1.47201744169289
1.75162867140995
1.46341010752625
1.6764171351333
1.52724470138324
1.56183835482419
1.39853768808612
1.4685825416371
1.48435155595471
1.57206796413058
1.59808716337545
1.78715313264321
1.61227495818391
1.6177972907799
1.61296671618891
1.71254531442731
1.54506071462855
1.61760327614009
1.78002070766772
1.60962557754177
1.55211893516325
1.43410914229613
1.5190453317388
1.57497276222815
1.41275575789931
1.46716313090898
1.82285805879526
1.6433658661317
1.57669963882844
1.7482476332241
1.37372824265459
1.49621870597682
1.49220540572324
1.57220017380361
1.45734419101536
1.42568213166894
1.58815077638849
1.77209553491495
1.80761434945847
1.5203986881985
1.51136046737337
1.73241133904351
1.44568015764026
1.78282769026153
1.49815278890341
1.88090683409846
1.31765012279319
1.71299918545631
1.52396135754731
1.56639719071001
1.56462300972358
1.81123500486391
1.41700414342565
1.45393961560914
1.46057872404655
1.80229170480096
1.54532892159082
1.74948699148163
1.67230976253085
1.65216848036697
1.44909125876147
1.42912098120389
1.65473322285688
1.59263059808402
1.49350745493779
1.59500464636799
1.59589168899187
1.41566725294745
1.35651970698773
1.61604865447073
1.41054440115531
1.45979540609599
1.35663013034521
1.53733451636418
1.45692326084844
1.89943551622248
1.68313725231088
1.62667120072209
1.7128763627453
1.5145928257649
1.57811163173551
1.59174214026806
1.39111101122114
1.43295193569181
1.70564532741857
1.55651833598307
1.53663063007345
1.48343270581418
1.40793573410553
1.44821562834473
1.51074660157647
1.6634899136191
1.31086196790475
1.63499965872808
1.30617612199613
1.54980037056431
1.51850362725803
1.57017178578437
1.4716579453768
1.49995646194064
1.3740191615864
1.58411142713437
1.50731287131262
1.34861207802131
1.40534104479169
1.4109968247984
1.4838702274243
1.51077136884012
1.40064571391354
1.44677467628105
1.41149167756093
1.56403908760245
1.44049799798632
1.59756735507809
1.44543321210789
1.5181075995153
1.29896363789758
1.32137933255158
1.38534607525176
1.46332968529538
1.42461160180133
1.32954050180855
1.26885459271767
1.46659462112572
1.33767377443321
1.53273220683466
1.25838891260912
1.3165369178081
1.34896081961345
1.41493852985842
1.2819684799611
1.53652120535262
1.26598399226497
1.33135028046672
1.31857878073354
1.42775832010899
1.26680031861582
1.36023047457699
1.25057033956628
1.37080608238444
1.3152090595074
1.26308777638696
1.24706043755012
1.43450602047899
1.25361258114528
1.32499860196365
1.23127341277108
1.24808763391391
1.25069843084698
1.24505344127021
1.1845185973671
1.25273809201701
1.19637425510657
1.20959239065057
1.23377672542277
1.22640330144081
1.25454172102506
1.27904768609769
1.17928754709859
1.20321652275222
1.20847620584899
1.2055543296526
1.11522562067307
1.13739991037604
1.12442397324462
1.20692396375212
1.14559988168424
1.18432574891068
1.11623947142783
1.13627125696899
1.08410593497264
1.14660689169812
1.1048366233248
1.11231125175039
1.12822649251497
1.16588380372575
1.11693159019801
1.15204636809845
1.07729369284376
1.14848108503617
1.09977333550896
1.120896499689
1.05463868104359
1.11492842546347
1.04190578775122
1.06214224162281
1.00924266529148
1.06653001579647
1.05407548350838
1.07066215021491
0.990450078542793
1.06909805475296
1.01409257782899
1.01887703758925
1.01612741938497
1.02774361675477
1.0303070790285
1.05387944157991
1.01877676895667
1.00650801377161
0.994304581239042
0.9875406395295
0.978226366819242
0.978753129491327
0.973362574237556
0.922124081378255
0.928809593177671
0.964606665055338
0.912196718524859
0.948940728626224
0.937813155608935
0.948012403497494
0.884746577735229
0.900292709641796
0.88790376843756
0.955764887222985
0.928846011114382
0.894378549098793
0.897161288754523
0.931401749615177
0.889689910663071
0.898235396433233
0.870037377514585
0.867241636658992
0.893380944076398
0.899362762671004
0.845707027047464
0.882706299518502
0.844513713004536
0.861548611321087
0.857729398098688
0.847908390957763
0.845343611991406
0.867921594952687
0.838862012592062
0.822481201424554
0.808244773696275
0.847607024450573
0.807188302505479
0.828658023562215
0.810952189039531
0.787380483006879
0.796232261564423
0.789263709818361
0.79378488145294
0.805527602916562
0.764858486063443
0.764875311529481
0.77857276750074
0.818950592317885
0.779419787960003
0.778580717737929
0.746601491345277
0.739271982509531
0.767216964225386
0.782829990620663
0.752525566024977
0.740881394344299
0.71362370361613
0.742940684952905
0.723311436856939
0.732509247849843
0.735668116487742
0.744195999993664
0.708653560068655
0.727175230065084
0.703049216953052
0.722402167489601
0.697321941592654
0.693607357825989
0.710911639937074
0.68984038931066
0.671087323939645
0.688641680519358
0.667713927215537
0.690349314480097
0.679396731441361
0.669885312116571
0.652077571880849
0.665357514268792
0.636512121967791
0.644919661490557
0.644168300190425
0.650213548717912
0.630614627338331
0.637194546120812
0.64456254175147
0.655761231927265
0.634741357937105
0.630741082652834
0.628501898411208
0.62928489180714
0.593153085769353
0.637183464528576
0.624584467930015
0.631644691785004
0.608339356181239
0.596143990828377
0.594985174369866
0.594389860198087
0.594423629056591
0.591978344864822
0.57588164471718
0.59353158038099
0.570628341389452
0.587502412348228
0.595367175379338
0.588833643758642
0.57030498867486
0.573745403788303
0.56372869832934
0.571768851175572
0.565448376034487
0.558105641153975
0.546158843805761
0.556077938145826
0.540914328289824
0.555250599091585
0.539238141367045
0.549982484662141
0.535786095108964
0.553168327493339
0.53616976148299
0.544481185898162
0.523466097351618
0.523526489361909
0.514626521127556
0.53562368250263
0.530098254150172
0.519203659327468
0.522919549597815
0.524441722816715
0.503138406432377
0.519493776451369
0.515391545491058
0.518418526110307
0.505437122905381
0.528385333413777
0.503944884181084
0.508089681537319
0.499642367187491
0.515085329359849
0.507264445885997
0.512529626721026
0.493322408370742
0.500608575384349
0.513939388565337
0.507876481144437
0.490582294378119
0.517904887600389
0.483738911381328
0.501072276637993
0.503061434509525
0.505111584682764
0.489075243064226
0.523630921011185
0.515743463125605
0.524719540714006
0.510235714234399
0.514205782650993
0.503486693359257
0.513809931598021
0.505471277111002
0.511763766379423
0.519764312171288
0.523413372752214
0.510721467990502
0.523061453718276
0.526595173977346
0.530370536386448
0.513296606603837
0.529766969557898
0.526077291645897
0.550912322537418
0.534043989493575
0.546675590444136
0.546177322514229
0.550440231693532
0.53711666447929
0.538915700531786
0.535645769021556
0.554664810227194
0.549769057865597
0.551083115131334
0.553573194499375
0.563938319339933
0.550635520170578
0.566531043002164
0.566186331372209
0.576734826556682
0.576269320983278
0.604194012700699
0.577142691168351
0.590626136992594
0.582731344628662
0.593316305178344
0.594406816545054
0.605067499280128
0.599105727070172
0.618903589604283
0.607246160109045
0.617674191517976
0.609099291354956
0.628204577749445
0.622961425731936
0.636152789369514
0.615503475256402
0.636684802281769
0.611910397716556
0.628669197932558
0.630436309534511
0.647832490598989
0.622457419917671
0.637778094659743
0.641958901668555
0.651048757706074
0.641406798428138
0.6502524638873
0.639938004343096
0.664260689093187
0.657391164560258
0.65468017092188
0.642912017796305
0.639809485687293
0.64071342609189
0.651292388972075
0.636687390060611
0.641435243724816
0.62554039566624
0.633679930221466
0.649258526162442
0.64789697227036
0.624921893224492
0.636845080111658
0.646733161405385
0.637630561893992
0.626672436807675
0.658373715183669
0.634974498827453
0.63667609549977
0.632685690695416
0.64795871114187
0.623835647341295
0.635758835678008
0.637100749586666
0.639212206522003
0.646096785885154
0.641733042544441
0.638323477245505
0.6427950929463
0.630386548222115
0.649688617040129
0.633832032654409
0.633603976267619
0.62637813342769
0.637676017327971
0.639630220377172
0.653715019011232
0.636136440002411
0.637702800310267
0.628969904520914
0.619147180692199
0.629979217502135
0.630097248132531
0.629031460204289
0.65026013327355
0.646965867412556
0.648198521609251
0.625598113698854
0.625865330634315
0.632055941699521
0.636241214077824
0.618772323340058
0.623649864916382
0.596740447961835
0.600072438932785
0.603111466119062
0.604832186593259
0.593895374428882
0.59663429692562
0.582365573119126
0.590570776200704
0.587046809774739
0.582336015367349
0.583467956807437
0.575411933576892
0.559051172825167
0.564967406692603
0.562683579182098
0.572101317350516
0.578557503524441
0.56263341411649
0.543141201703875
0.557721552763354
0.537125706084905
0.539053166763849
0.521321156003585
0.537610013304725
0.535991677248986
0.526023389075366
0.520412293358914
0.513906503867554
0.513856498678863
0.508284024214477
0.50161425875763
0.50774189653207
0.497088902861623
0.498238999068753
0.488116248098113
0.486983998307551
0.484989712700071
0.483611901548833
0.476888858968857
0.486158837943564
0.475373843711277
0.476739896327451
0.467195483456973
0.468905394506319
0.466196167594952
0.469207924674586
0.461864869112622
0.458186237364753
0.459000130233099
0.459871395246363
0.447034252815446
0.455429211572506
0.453774950413124
0.454162802634095
0.441170484907336
0.448355714430847
0.4386919868354
0.434900146167234
0.435853375628235
0.438941231201906
0.433407380542643
0.430539883398175
0.431251786805461
0.437617030645539
0.427233255825776
0.43105147184613
0.42593066359954
0.427390146022355
0.413181244145277
0.415556822542894
0.417202082060993
0.415667462857127
0.414182617972116
0.416858339680856
0.414961828895545
0.419371516338957
0.402953668712705
0.410110967900445
0.402518792379486
0.408101311611745
0.40245889309862
0.401741717344344
0.407255185170452
0.40351562716921
0.399055962601228
0.396506974623298
0.38362383466539
0.396593382349386
0.39809341380712
0.393172668351099
0.384969346659499
0.393089784832447
0.395665911692481
0.391815643372303
0.391415564483721
0.387773870736213
0.382902524074806
0.386830595894052
0.376334240549841
0.382020871407481
0.379525402268425
0.375365168099593
0.372775946309727
0.382024030669911
0.38006659249944
0.378941708082017
0.380550378923061
0.381551608100294
0.371840402343025
0.374993094613829
0.375188033186396
0.365492515952442
0.356839255986597
0.369527447206238
0.368195703825055
0.360827266843517
0.3698111476318
0.367499024957682
0.361830418729261
0.366033906286621
0.363370168175346
0.360626160382155
0.359100444647159
0.360682132496431
0.363384679450157
0.356664479128647
0.35905564958366
0.360549294215014
0.353549181455612
0.358459576181001
0.356512765014655
0.354348271976677
0.350508093719063
0.354341427714859
0.355849461364668
0.355983176045884
0.352490413299233
0.350723452719805
0.344965428193597
0.352623828593274
0.346289223290062
0.347507470269731
0.349897579960881
0.348963153736591
0.343465580052815
0.339532460657276
0.343170053809554
0.34506259722381
0.344174886745204
0.342620994289541
0.348800846000916
0.341567649746617
0.350114313003299
0.350968752728296
0.344951436566802
0.345648466503895
0.341548145543588
0.343237524341317
0.33619166183837
0.345146707507925
0.334922343992203
0.341311778593895
0.33834726345155
0.342844675005504
0.339605282715855
0.343212709884557
0.333889563812374
0.337657080600909
0.340349025282726
0.332000387823141
0.32937189511161
0.33371831378494
0.328159408136473
0.332215560069659
0.334355695025093
0.330295681148583
0.326626835804298
0.332453736066423
0.328470525100166
0.329174055976594
0.325666979445914
0.327060338007287
0.320927879290681
0.320921982875791
0.319723288416039
0.32038537590828
0.321278712152555
0.325523706884579
0.319239811854459
0.320084706826132
0.324020385806044
0.319745764810608
0.31857082620823
0.309720959101366
0.305291564884515
0.313705228170903
0.317157203199236
0.320933720454884
0.31121704827804
0.313856099001822
0.310874682827865
0.315595870928638
0.31218489201607
0.313394560511363
0.309215723312105
0.310250688309976
0.3118491082143
0.30876699799791
0.303314917208154
0.307048159215193
0.303885810841043
0.304462313556838
0.303045654805603
0.303864254282797
0.295233123129972
0.296600528513111
0.298161018768569
0.29906445531706
0.298335839005476
0.298744752441556
0.296525766670655
0.294530887518443
0.292147154755169
0.298220082510347
0.292745645757049
0.295125691895829
0.293166421627944
0.28851983776047
0.286597109391105
0.286499503121233
0.287407994510181
0.280764674709932
0.28688635797415
0.288456397111358
0.281269293560279
0.283481543926815
0.28654393258481
0.279421956311187
0.274445981840856
0.278268663652795
0.285360402181868
0.275356668197608
0.27851938598852
0.273838215233669
0.267386675874923
0.267970241818971
0.270929139132915
0.275139055507637
0.267884026575185
0.271393431839034
0.273731538369369
0.271270133307807
0.262520200596764
0.264139880548937
0.272057171091291
0.26938351565713
0.2616516726137
0.266870044898918
0.260441642418074
0.258788237476457
0.259326192740498
0.257873739114247
0.257989431787106
0.258067244746614
0.260372876582317
0.264589389869187
0.25457936702999
0.255571527084827
0.254026659312501
0.251380212798529
0.252401120557376
0.252752342664272
0.253169064504643
0.25178938106807
0.252536542779746
0.251960130567812
0.247414206216332
0.246006516477777
0.249861261715392
0.247141929899634
0.241103154986348
0.243866056704353
0.245526320364165
0.24402372285708
0.246679463971403
0.248666109997143
0.244956044347359
0.24596173303448
0.239615184858189
0.239666042104884
0.23922374929239
0.237942015210886
0.235642985670409
0.235890806552254
0.239476440596917
0.236564998716833
0.238572985236922
0.235050688617964
0.232330613090599
0.240547359187314
0.232202860423278
0.233161889175583
0.23291978996075
0.23574570308862
0.234937780041553
0.229822614949626
0.233119825913862
0.232886246907955
0.227711267542105
0.228807779727918
0.225645185188099
0.227181431232405
0.22823771358172
0.228395400721824
0.223858933709167
0.22765463518552
0.226859503774663
0.224547532443776
0.225374617837231
0.223357807434418
0.223799266119739
0.221210608240548
0.223458523120695
0.219921234830827
0.227072462753275
0.225616626337633
0.222417635855891
0.224927671818752
0.221713816578623
0.225808665094156
0.224614251322456
0.220791452026951
0.219932791944786
0.222393470469578
0.220398991671943
0.217646956887055
0.21679571520962
0.214839027425474
0.225383723870009
0.215826161199396
0.216419683473716
0.216145647564486
0.224097351213935
0.220041945762651
0.220278451246845
0.21660473391513
0.214729923454105
0.213811532604601
0.216155449503658
0.209711990060639
0.211442136665304
0.212332798460377
0.212958354650057
0.212858607442316
0.210491487769886
0.20837347083221
0.211888160473773
0.209517598286545
0.209553458051204
0.208221152628158
0.208948079713266
0.208266165627766
0.208634163581562
0.210842731433068
0.210459630894341
0.210724071161625
0.204534712824127
0.205462553584308
0.213307524939692
0.208574408198834
0.205978637135454
0.205976507566422
0.205109743302521
0.204459043612391
0.203735924866697
0.204043144269579
0.203156797610135
0.201757892430942
0.203768995560552
0.20169198968671
0.20175796446553
0.19766851899955
0.199889590847858
0.203301718042043
0.200984310388905
0.198040478235581
0.200783763474322
0.198948694536277
0.202937061165631
0.199574150979028
0.199548520290476
0.199554220731842
0.199374080346044
0.20175718401688
0.199564551351324
0.203908717405972
0.199379164320773
0.194785938443615
0.193091157841427
0.197604311330252
0.19711818843663
0.192830089846226
0.19551070733321
0.193701838559524
0.196601461755285
0.191450368249387
0.193595479977765
0.19191160953011
0.199990491049525
0.196936003781652
0.195922707297813
0.189233090481469
0.197360186833603
0.189232542629902
0.191551780319922
0.188857562659888
0.187270721047769
0.188465883051314
0.186674453889008
0.183186379720589
0.185925625174671
0.181447309674798
0.185602071941541
0.186377591294761
0.185551817479946
0.183503042501465
0.183077302294966
0.181759807130353
0.185937857162139
0.184810201263006
0.181750859128613
0.182395242284057
0.182066722346643
0.177843213107351
0.181766212488881
0.17532964084392
0.179765625257619
0.177171231078779
0.177464482805792
0.174615246265179
0.180528165149824
0.176337450905988
0.173119766098728
0.17567360038657
0.173112640750912
0.177972965381647
0.178599736030393
0.172741941639952
0.172173124285402
0.169011232704239
0.173823261590429
0.170435140146256
0.173250001524334
0.171046883734815
0.170562675320617
0.168424703794709
0.1668089968529
0.16870363047401
0.174507558527708
0.170086237182318
0.168040378792353
0.164732687242479
0.165245508433089
0.161952867621478
0.164179798169897
0.168121497077585
0.164534510083803
0.165884708552632
0.167068322439372
0.164675518310358
0.162359396168851
0.162069230825326
0.159665059508373
0.160715102310688
0.162652732870916
0.163250517767134
0.161583562539639
0.161323100102617
0.161389411189339
0.160305453082364
0.157604839016952
0.159883335348946
0.159869542819535
0.156163280921008
0.160220521710207
0.158733623698296
0.15057038350103
0.154188517157651
0.156757324310891
0.154511526957709
0.158274426350316
0.155297993427479
0.154845616523873
0.152207827716587
0.151940522817665
0.152489080695436
0.15076562350643
0.149847144459898
0.150396735006478
0.147908419614
0.151156591847746
0.144859870022525
0.149971697289581
0.147769169013536
0.151858688321047
0.144990997694065
0.149152633028869
0.14811033286091
0.148778858782891
0.145556800312475
0.148467305500999
0.146642277857185
0.147164080515368
0.147025914434047
0.147910883057483
0.146755212798538
0.151154334567931
0.145830839099283
0.146902084980943
0.1447660899385
0.148149490554478
0.142745440233092
0.14766486386296
0.145115886402087
0.148167617403353
0.143569722290861
0.146580700775019
0.140979778259031
0.146469512104492
0.13848966545581
0.139700690270529
0.13830622085851
0.144352698052088
0.141691393652053
0.142094530586966
0.14176520688991
0.141979291499636
0.13641861021685
0.146944811964557
0.13728415323157
0.144356474297723
0.132553013580869
0.143491883917771
0.134382543738404
0.141989257785113
0.138242564825514
0.146855000382468
0.135890263825402
0.143592612579297
0.138765215542815
0.143422063514044
0.133896504005209
0.144220715235131
0.136624112785654
0.141014975495427
0.132734288314552
0.140885232731828
0.133757454411383
0.145572155915318
0.134120618911989
0.145743012251066
0.136500904902479
0.135569272723142
0.131168286430977
0.140240126415144
0.126204979706351
0.139628222638861
0.133737827691773
0.139294519534447
0.126245394241254
0.143342934848097
0.134255978379685
0.14453071485455
0.122673441847631
0.142341645408068
0.128617309462671
0.138216489020674
0.129764294246536
0.139692622310502
0.124649960849315
0.136807049515737
0.13274510909313
0.137310719637968
0.13594983954604
0.131739653349867
0.137648413301311
0.128394323352631
0.138730262496962
0.131208593215124
0.145507734597832
0.124582236711123
0.143142141935058
0.12878011298158
0.144574846777433
0.117503494361451
0.147931163459877
0.118646280462827
0.149084050047726
0.11933901419484
0.14419545390175
0.123016027140626
0.137797548714162
0.128430983085462
0.132321313599873
0.129177481375924
0.130830912867257
0.132644058296019
0.129160282659073
0.131704385313748
0.129243554113823
0.130866633085648
0.133672571288681
0.123595741722889
0.134174092031103
0.127361300611191
0.129869263552264
0.127588976201013
0.130841539740054
0.127249413667114
0.128662464282298
0.124559084723409
0.131361522206366
0.128679074014988
0.128829751595025
0.131104804029
0.127500475377553
0.124155304507193
0.126377730524907
0.131706574928613
0.132472994172824
0.129411940886002
0.127913610497453
0.125244265380275
0.1320309423366
0.126436483515409
0.131482888156504
0.127842510101319
0.129956085405749
0.127018684789279
0.125789485059077
0.130049262647384
0.128786960366569
0.127704291397793
0.129396296428714
0.128603108292843
0.13106911951377
0.128832163160989
0.129659398088486
0.13128650673084
0.131841896512453
0.126766139584373
0.130673162043085
0.129658063861766
0.131207780397505
0.127131349153439
0.128608486727825
0.128866731783181
0.130744702146287
0.131606462710144
0.129046538984781
0.130206250342388
0.12921118544993
0.129993248259757
0.129420487326721
0.130844859454913
0.128623312602689
0.125970793565072
0.125985231282714
0.129591199281824
0.127439407557323
0.130323983995903
0.130200753750186
0.126623418828512
0.128995286769251
0.129539534512817
0.128789691499693
0.129686899589231
0.129202563209958
0.128203631989719
0.132104005595052
0.125529443934866
0.130955844201705
0.131289308997863
0.128851594734459
0.130330981956643
0.126907709732795
0.131554310695261
0.132405892670351
0.127989487222154
0.128446683434013
0.130662371292045
0.130505438395676
0.129058725401992
0.13119540305895
0.131891426831977
0.127972322365761
0.130699560601229
0.131865235689913
0.129095355720999
0.13361700394424
0.13300174329235
0.130053325944611
0.130847282260675
0.131428680391375
0.133884092422335
0.135512985364831
0.131868575065591
0.128334620422067
0.133961496851458
0.132500876037139
0.132245843037089
0.13397865923056
0.133476310385955
0.133625259028914
0.133537828499173
0.130825887412977
0.133442466494246
0.13440191133177
0.134318683718973
0.130711189670533
0.132462742110607
0.133967108647295
0.135701973796318
0.135088073476679
0.132328156245768
0.138436185567078
0.135999719208031
0.132183491186379
0.137249384326565
0.138101381023776
0.134876661356045
0.132321790110102
0.134503757350719
0.132744019420805
0.137491979636387
0.132497934063874
0.133787267809626
0.136805778830416
0.137091066618841
0.132451824485342
0.133104826842734
0.135720845361355
0.13461369655552
0.137846955448902
0.137342652827218
0.137147606701539
0.138366565302642
0.137331427062415
0.139423744194266
0.135488476376954
0.139817739226257
0.135256273359439
0.136286437497386
0.133584771867664
0.138690662572355
0.137819137032506
0.13960905395978
0.138807088622269
0.137706340916341
0.136578757868745
0.137770526627031
0.139109659104539
0.142834874575867
0.140204190673093
0.141276797369643
0.141920532251358
0.142165624496888
0.138517011350447
0.138395648338169
0.140049627236446
0.140013105881534
0.142107497693551
0.138718535365976
0.1367863651731
0.142965733573367
0.136086393541469
0.141449694457259
0.136191559293882
0.141081772832684
0.143033496972413
0.138937172969406
0.139045762277648
0.138589791404371
0.136417733863697
0.138776571587901
0.137607303150678
0.139454169085993
0.137076610670028
0.138819643122752
0.139945507398399
0.139729906383456
0.137856309014744
0.138553103337858
0.138095675877572
0.137421269617604
0.135354660469986
0.14000357060665
0.13441077631673
0.135283312802323
0.135444753929664
0.140617798744781
0.134009353063799
0.137758132967218
0.136552409270369
0.132581584398582
0.13553960646233
0.133940734298016
0.134142857594503
0.137074676046818
0.13102158363058
0.135586355866392
0.132952763585303
0.132747125927504
0.134916182552711
0.133672072590362
0.134381293654742
0.137987514195849
0.131750694296148
0.131512992330838
0.131883709042781
0.13312757445888
0.132546892500809
0.135469170813124
0.131306007214949
0.133877792662026
0.130975943871562
0.135787513998131
0.130206875605718
0.133382099316885
0.132315308128709
0.133572521959715
0.130439940206249
0.133301302871985
0.133764424167807
0.13291802277477
0.129693966052678
0.129671437840531
0.131236094448659
0.129951528677153
0.127768949013255
0.129495214727093
0.12634401697219
0.131482674926578
0.129901436509431
0.130858022417555
0.13014030500556
0.129326180761319
0.127338398372068
0.127260695710115
0.130168223587123
0.131254487511481
0.129676082502102
0.126864088168655
0.128043480136404
0.128526051163546
0.126908124716072
0.132390765956984
0.128377530378395
0.129643178019694
0.12771037663086
0.128382002911595
0.124803478784246
0.127898677158279
0.124201618620001
0.127487830238071
0.124754134628117
0.128965109808021
0.12503442952252
0.126870651440951
0.127603242153461
0.124048568173236
0.127079791995892
0.123429161028386
0.124386816623746
0.124695665913234
0.122775686630171
0.126345768237859
0.125644018110907
0.129135567979909
0.123646870547766
0.12579902381305
0.125098699192433
0.126640318799655
0.122554222604973
0.124348436210477
0.120480314276781
0.122849358617351
0.123533950871643
0.121149623785346
0.121210246494507
0.120823535408865
0.121772197544656
0.122447423388637
0.120783926951075
0.122758176306647
0.119189132235035
0.120800275212054
0.11906051659871
0.120044791363395
0.119160207969281
0.121962610630434
0.116985344084128
0.115698231536835
0.115855364611452
0.121009061170498
0.117806226618435
0.116668511163843
0.115946028620314
0.115464868246752
0.114433335447597
0.114645772306664
0.112444788919907
0.115020061843196
0.115244410652709
0.11612353732272
0.112367771206858
0.111747220122278
0.107209284348844
0.114677142629694
0.108556403022844
0.112058940956929
0.10938360050303
0.109366074988259
0.108529490339456
0.109980949674688
0.109112848985308
0.108953780708545
0.105969885894914
0.110228332566985
0.109493607594429
0.109383183334173
0.107654553779386
0.109499086405316
0.107725924023077
0.106085428542648
0.105900051800708
0.105927367766292
0.104891443453413
0.106690181628736
0.10379326292744
0.107666315974628
0.103539000652805
0.103568050877001
0.102302417566007
0.101468999493115
0.105210841585745
0.102794313266286
0.101177572270458
0.104110733052609
0.104383677729141
0.101159601104728
0.0974692076582515
0.099339662037031
0.100919985843168
0.099192663551454
0.0975484684603804
0.0985195859755731
0.0996894577702156
0.101093185342648
0.100333649892985
0.0996411427677801
0.0993138389423156
0.0995678901140897
0.0987385022927893
0.100814233677622
0.0973709357676498
0.0963028764118685
0.0965283353340202
0.098314359011628
0.0949747179231688
0.0928773119202235
0.0986286105663361
0.100006206931121
0.0968746453301789
0.095960648634314
0.100134078093405
0.0977780660272303
0.0964854171309485
0.0974187590348718
0.0958649952696374
0.0958302570524158
0.0951367388370852
0.0960418056058142
0.0967680621647691
0.0933375688105865
0.0920878187020223
0.095702167223641
0.0935597471732171
0.0937219174639317
0.0928920818424751
0.0909529235989571
0.0938653473597078
0.0913084510937075
0.0906745455342575
0.0870695699570358
0.0911165718985892
0.0899194045663572
0.0808238070375568
0.0984364000687067
0.0873551266778765
0.0923627397919796
0.0889919189299682
0.0930515855433817
0.0880457900083471
0.090827282976243
0.0871707497296636
0.0917908835901246
0.0893162947084719
0.089663870112693
0.0850895940139325
0.0905469683834987
0.0847921684469182
0.0902581048714726
0.0867166138848101
0.0902249044493168
0.0836381064548422
0.0900714899200507
0.0848410623640862
0.0875252746845807
0.0927560806582694
0.0934221555119854
0.0849415511154613
0.0932597921069212
0.0742678409883346
0.0967196869081617
0.0926556745317796
0.0896326974119124
0.0865149762471093
0.0899405550637557
0.08636459560653
0.0868217943481043
0.0867049515644921
0.0865956456892939
0.0947201698992335
0.082285775051555
0.0886437606944933
0.0866510927179825
0.0861125908994276
0.0841698458193688
0.0855593483407756
0.0853723629926438
0.0847671535162877
0.0883638305200269
0.0839403369740702
0.0879824624995506
0.0864752611940455
0.0871306286518488
0.0817579459001801
0.0838602399673737
0.0904402300501704
0.0859116074411303
0.0849901008848727
0.0865609598525629
0.0829190849773442
0.0775019505731088
0.0971676057215434
0.0843149903937958
0.0918001509504132
0.0854052951144454
0.0838407640885788
0.0888984835579147
0.0881076969885268
0.0820091680859933
0.0850151460733649
0.0839298466357715
0.0833968036511618
0.0828076408381441
0.0828580456644139
0.0854359262426677
0.0846757141557599
0.089529122250951
0.0837161168695043
0.0884766514350015
0.0836537959337477
0.0911229059032095
0.078026346307689
0.0808823206481195
0.0923147209331702
0.0884624294747357
0.0919072549375817
0.0863893865383371
0.0878455821173698
0.0833393183574948
0.0887545086483062
0.0823923977602722
0.0856685702247738
0.0857467939314897
0.0885449834240346
0.081837340075485
0.0879648227584297
0.0839838478216892
0.0888089318172036
0.0825372169610072
0.0881609989744132
0.081852600357352
0.0894258136596971
0.080055826121013
0.0900072971942936
0.0768574835320341
0.0902357611108164
0.0863801357772495
0.0898615081990047
0.0655053674274339
0.0848837623304085
0.109211491336321
0.0824715984104799
0.0968005738011887
0.0849661701529619
0.0909052879776255
0.0859807427854062
0.0863619135505489
0.0885809254386137
0.089432558234722
0.0861297108126584
0.0896364047921067
0.0868588138985452
0.089799291188818
0.0808567250855879
0.0779997805502447
0.102409453688209
0.0914358633208357
0.0919486599459542
0.0912047865948806
0.0734173688735577
0.107541414642975
0.0885988657832567
0.0925600047674661
0.0925133635786363
0.0933231548579908
0.0935880591633403
0.0926870693332879
0.0880231176036425
0.0925247837141109
0.0932583397982237
0.0845170898293266
0.0912614198231104
0.0902062014028164
0.0938940268547559
0.0893452437716792
0.0886139566899703
0.102576578241403
0.0929552993584411
0.0933519586263637
0.0988910287063259
0.0948031343761857
0.0957707312971184
0.0950265962112076
0.0882853360629405
0.0894015814343171
0.101646427402274
0.0911158777781085
0.0963422206842326
0.102364727840108
0.0946661251833878
0.096378665795439
0.0950193518737088
0.102127654746888
0.0962981935058317
0.0769031389526422
0.116489410325879
0.0915280365652691
0.118476799477334
0.0950171256343695
0.105480636098902
0.0923732103587994
0.10509268399394
0.088567406432672
0.108990063195152
0.104784250731139
0.1055981847772
0.100742159887547
0.0948599681217366
0.109781844582918
0.104095471972458
0.109772726512448
0.102680775118322
0.10016823680748
0.104816656329324
0.114593721094015
0.0801399511273693
0.115818826313487
0.114365837381876
0.115095870452794
0.118529350194682
0.0872031450499905
0.125282347831965
0.115465244415588
0.109154924390967
0.109541684792166
0.111725035739833
0.113262876796013
0.0928919510517883
0.127509576897793
0.120941147491994
0.108715298824078
0.120535342072796
0.102037557696189
0.116877327601825
0.128382274533927
0.119377476855864
0.116570346571924
0.121478257809433
0.100775242021642
0.117817018677452
0.139108370573717
0.105881692114177
0.145967467351957
0.119877690959003
0.139104233935105
0.12308485520044
0.132233119519911
0.119053273144812
0.141632098708401
0.130842738483464
0.128773975581951
0.118573676069233
0.160640400608507
0.13291250110752
0.151534615968764
0.139030642121799
0.125062693639677
0.121506288966596
0.169006033375916
0.164427545621673
0.160434939198137
0.134920631899622
0.158121119565335
0.158081899527834
0.155519466797534
0.157965944849926
0.159990228827764
0.16397001506269
0.159934550064138
0.165483460616337
0.169187554043934
0.164548603710499
0.17676074039613
0.158006148772405
0.176438895172635
0.167812968664828
0.207314068540536
0.171121668613777
0.186575223516847
0.197392583514245
0.192776960177262
0.192597282546368
0.187800831625197
0.197568811321973
0.201101202886511
0.200026536188384
0.189422585493911
0.203402545286772
0.217486812192115
0.194882907176791
0.235394440006881
0.204374237639575
0.217853640581071
0.146318399994957
0.304838866330235
0.256235838052071
0.23333230989792
0.244410104134241
0.191378507351787
0.300535883620666
0.274599853938181
0.270000510591875
0.279441591357787
0.282648773539979
0.284632183486645
0.299500460074897
0.29264922197752
0.312366398087912
0.324983276383887
0.310281333862665
0.295995502502733
0.366064957166696
0.371119499156894
0.374787478480371
0.359312618737198
0.374069566810899
0.390014819546176
0.385672720589182
0.396084435205152
0.409713728226348
0.376029447374956
0.473286627809663
0.430891873519552
0.451646807760904
0.438917386487387
0.476664473405504
0.453357357017732
0.474626290180839
0.516322461518564
0.486162867178416
0.517876374371785
0.507212221293607
0.530569974264793
0.512573255478268
0.568145972235641
0.56515312977079
0.557918152689713
0.568163875478288
0.561755969459183
0.586761710417939
0.589692490616012
0.594253872195411
0.575495765418516
0.59233298732687
0.611533623740371
0.708040423449546
0.665937428182305
0.614390043086284
0.627612956751115
0.590794589719927
0.643779638926965
0.631059489398728
0.658271405523334
0.657676812810532
0.619407712634946
0.642007884647702
0.633591312720719
0.653446075874741
0.65009890356377
0.658519935955733
0.63767703787713
0.652189525298504
0.666744397580626
0.5980650947145
0.745284686385932
0.664465942089985
0.657425502515686
0.648146826942951
0.654769646150819
0.656026620470475
0.64586029730273
0.609457295287519
0.656990312458278
0.640927753206046
0.641250682037072
0.626652324539705
0.635541981986154
0.651865030697762
0.618012115105976
0.606116396300687
0.598875436288677
0.61046215657167
0.591887664448436
0.553001115038033
0.649186587943289
0.591747547199202
0.59466123501651
0.598264441942235
0.568194636255295
0.556813556715939
0.567838524418541
0.569243431465171
0.573581168542007
0.55382737012537
0.558067343395882
0.55711000302785
0.54413855911191
0.540278379431038
0.54388666379287
0.549002558984729
0.546246287028811
0.540657749836521
0.540416782447602
0.544082795989483
0.539762681379336
0.542620216601757
0.533620092442853
0.534917254534602
0.540888043189466
0.53724241945854
0.540723357103856
0.53839600227339
0.533418506926657
0.531301855051947
0.522424245261951
0.527733127574557
0.534107896740389
0.532186532399797
0.525019559811721
0.535354903298084
0.52527433212836
0.525033579405514
0.527589460846354
0.524540842150849
0.519900059665127
0.524042351321163
0.490209373678201
0.523793644752489
0.549859308207389
0.503737054826164
0.518732088533484
0.500163258659439
0.501228880437368
0.477721934393235
0.512138005368341
0.521008976398864
0.484742168988038
0.48895851928321
0.472108550411963
0.472832920255117
0.490290571565779
0.46596704612231
0.469468403877048
0.447616727102729
0.434735519729035
0.498275041747355
0.406970739525942
0.532151813258173
0.465949802570494
0.444093573109435
0.425385932356312
0.475926611962432
0.438177254596482
0.434570118729328
0.43575778896872
0.419006566852832
0.44717370827247
0.423542943425983
0.432035704828312
0.408885303580747
0.4004966243539
0.441278016049621
0.413737061346648
0.395766834816715
0.421079151485773
0.398971149027638
0.404232041362663
0.444664663069346
0.416583446500352
0.391996376711116
0.389085936039193
0.382085508117422
0.356004500418265
0.402067954401684
0.394328729709718
0.374343174212051
0.378955921475143
0.35766813221582
0.365459712291444
0.356534964436588
0.376076184173117
0.34295863510808
0.37550775897631
0.360888485389487
0.341073902889317
0.363865709361328
0.334827459379829
0.388790714307001
0.349946278485586
0.336113677686102
0.323932472225618
0.369327624443488
0.342519397965036
0.342258138464345
0.338967652540933
0.322775052626658
0.347186410647498
0.336632412421381
0.317093943002732
0.33318974986962
0.304565322646775
0.324720973022772
0.336988788011479
0.358193686502096
0.343353189351877
0.321014734288866
0.32219364773397
0.324192941994056
0.323289042369347
0.316399381559643
0.307237030192559
0.343180518427812
0.295939233374283
0.350514756584585
0.338545823213922
0.327378150360742
0.331594972233738
0.335853595284864
0.322829007136294
0.334825665015182
0.360919167478714
0.357762652495719
0.331073478340935
0.372902668070521
0.358653347072634
0.362383141241046
0.365510262673972
0.370529629295118
0.368444760129334
0.380894609900255
0.388359679907171
0.3914783297514
0.397871849774623
0.405245451056596
0.395585258602185
0.438543470968714
0.409575079836645
0.421483984276112
0.443180967762285
0.453197755144679
0.484415462403735
0.463895962566802
0.473907772328466
0.470684945496846
0.488551160070943
0.486159740234533
0.474718573963555
0.528071475228353
0.510785551915554
0.509628187646817
0.518717691688106
0.517878250192514
0.520045944419209
0.526865085526511
0.54368809845881
0.535565969521433
0.596699143891149
0.560133889687034
0.563326540294209
0.547913307339172
0.556928608782848
0.575667614418578
0.555869575885218
0.566050305084795
0.55006246618712
0.578819317486367
0.572835893520325
0.571757530159419
0.584129006829079
0.576442604360134
0.57889093846519
0.582766063000626
0.594154840652496
0.590499227534503
0.600788741973781
0.604701754072736
0.567054828625748
0.647014496721757
0.627023682482207
0.604424108760875
0.630729700790983
0.625546233240155
0.628598203129385
0.632763489079871
0.649179678297859
0.661602381377482
0.643504768986633
0.648649303425464
0.656710778426261
0.659189192902626
0.646378809041737
0.672633849964684
0.673252344607834
0.679325932998792
0.671697046800964
0.64661600979929
0.734484112108204
0.695086314624237
0.712750405499021
0.703482337811871
0.694902680825509
0.6981790121692
0.695125327811381
0.709243509545382
0.714818407960722
0.704597811020473
0.714595972600346
0.713508894246191
0.70714848385505
0.711196592174793
0.698901768794384
0.722046125629393
0.708128829330775
0.703280628947285
0.721267140863524
0.708626059376854
0.692927133391368
0.715048457238765
0.72425278468349
0.703076475599962
0.707196490267081
0.6948488598395
0.72296065826296
0.730784883924356
0.706939335374367
0.715986575146758
0.705527600109904
0.709632837418243
0.706137323857506
0.705549553111858
0.745710226854009
0.733256060168076
0.722174596677431
0.729976420724595
0.72684888046244
0.73706598582169
0.73901193048349
0.744653681357143
0.74258264932498
0.752065837595833
0.750577994222121
0.764828127607814
0.749577712099545
0.743763180178455
0.744258958241931
0.756994988227795
0.75209422239717
0.75633580928689
0.751267696111501
0.745230268268221
0.744959512488518
0.75344707089513
0.751738676581231
0.730430542857125
0.721965594285313
0.722190874725584
0.736115020060519
0.717922253170524
0.711133635736924
0.719298629122876
0.695434754301133
0.696337078755661
0.696230379579747
0.695528867354935
0.690350778994451
0.688246897910886
0.67912713822874
0.683209192410843
0.66449682041096
0.663577160852759
0.672845599904947
0.668531828897543
0.65905513550413
0.666946219889013
0.660869286714628
0.658716200593297
0.658825894465627
0.660647363431558
0.667571550366778
0.664817944088603
0.66599126431995
0.666481397439329
0.660839421494155
0.673834019225416
0.667282529081222
0.669847923644698
0.665549922082184
0.658335228458231
0.653568087743483
0.649863799758549
0.65707158342554
0.650872541048206
0.654452936593703
0.653193636509734
0.657786340019624
0.651035355170634
0.648396964341015
0.6589478932252
0.653347084995205
0.661885329236953
0.648433720409016
0.655308584510935
0.657041791523191
0.660097410286726
0.652177546001281
0.64670624763005
0.654539432440924
0.656832861287426
0.648790069891679
0.653453496700728
0.660037210274549
0.660452258482665
0.651563808514054
0.6531533903083
0.646666657135748
0.647495049745036
0.650656122575391
0.653511617940277
0.653557163245833
0.648318530388484
0.63816660799439
0.640588244621919
0.639873529684496
0.634355695138213
0.622398599190603
0.622117464716395
0.620912491844816
0.616501155414293
0.621289103593087
0.608143875355261
0.598262303523545
0.595600317841007
0.599261118587281
0.596616501150122
0.593212383051843
0.587947576757287
0.581676789541361
0.579573769452287
0.577239282112518
0.574865185675297
0.578732287334196
0.580602056084334
0.570266152486122
0.583902965423944
0.568394712480463
0.573603669935868
0.569369576196036
0.571383019686782
0.572913985627299
0.573522454273819
0.570457268968293
0.576034536792013
0.576122424203312
0.576669094406462
0.583834855373548
0.588091306154344
0.580914388442526
0.59218973094425
0.588066690527633
0.593077082938965
0.591061058544146
0.604615344777106
0.595964076660084
0.598764703607428
0.606659547349844
0.59739171692262
0.606976262937598
0.609004270041241
0.607500585890725
0.60595913670556
0.604947716666543
0.60289463354596
0.605922965850539
0.602968588529212
0.601749410338873
0.606771633269477
0.596506845034548
0.595139536923547
0.604892052901093
0.600303322848278
0.59258634467681
0.594546336750185
0.588560768892303
0.588335032476725
0.587200718626184
0.593846052579785
0.582461549625098
0.578329315140857
0.574705923737403
0.577113867735122
0.575515575717434
0.578171859501862
0.570473485488638
0.577468853725309
0.575213408447762
0.562652265053602
0.567133606037313
0.563636768565796
0.561519758203366
0.562618863738328
0.557971516196151
0.562331486924305
0.553273729809485
0.558819047739266
0.557582501585335
0.55384330644263
0.551361007265375
0.54698829711302
0.550177485338065
0.548419376328765
0.543761284860312
0.538625072300603
0.540773036160328
0.536502940927102
0.531685114263961
0.530405872926066
0.524810167726206
0.529726612828318
0.513877538459042
0.514286807512391
0.508769886628778
0.50544737522947
0.501250373907645
0.49586459281155
0.495695308877053
0.49663035620402
0.495347025553316
0.491040528891756
0.494869638080391
0.490567675350771
0.486995654839569
0.489310827067762
0.486992792356347
0.487480623077129
0.481510583279332
0.473330045546572
0.472479974113722
0.471427053663254
0.466330044515874
0.457586272544156
0.452557806518183
0.445142926252423
0.441621401645494
0.432997064064148
0.432787714846766
0.428461101643692
0.427204316389429
0.426760270378097
0.430893572570961
0.429963340144842
0.44230160700028
0.442927820097256
0.452565856960325
0.465664990904406
0.479651238322595
0.491179837736961
0.502756028736884
0.522058022052808
0.540617697385323
0.559107713257066
0.572895909499216
0.59321004310065
0.605365330008255
0.63068772405466
0.651037176565623
0.667724064070734
0.685332890483074
0.698511714508116
0.720476483331099
0.738075077491481
0.755277389481218
0.769247186488102
0.792251715212002
0.809255972665083
0.813119791087106
0.827537536011281
0.83938204785871
0.851485369246279
0.865791066171959
0.879327823906173
0.887508002922412
0.889606740396769
0.896969017159047
0.905779731806801
0.891379558937549
0.910572036249272
0.918012300729702
0.905313911386203
0.916784297505725
0.917415151596515
0.915301583886697
0.920418132589489
0.915383163412332
0.912998075059701
0.910872956164717
0.923820996703305
0.918990866851991
0.92862417220931
0.935941050755199
0.938577913014655
0.933448664864754
0.937953028298338
0.957443642730158
0.945093185629597
0.962689188826689
0.972617017176784
0.977703336332018
0.984423800012478
1.00266606559013
1.01894540736201
1.01494227593671
1.03414612077533
1.06680178307798
1.07729753138545
1.0744712836615
1.09486508229372
1.09794066981145
1.09497339864437
1.13119230581629
1.12558187750986
1.15183419862128
1.15340899620681
1.15240687987301
1.1409560728602
1.16580093827167
1.16219618235496
1.12903895816037
1.13799595129617
1.14334663732444
1.14097438381526
1.1425189858685
1.1053741201861
1.140788010231
1.12559548892876
1.14661434933965
1.13069674618561
1.15064113769795
1.1661347606944
1.19548478116311
1.20112209372641
1.21312196689806
1.22731352102631
1.23902214858581
1.26760552974563
1.28976720010073
1.30017657796005
1.27996934758655
1.34241822630363
1.33409004033751
1.34719041069599
1.38375453217663
1.38836310578418
1.40827001473576
1.37946324783431
1.45039811000808
1.49379513986862
1.49673572344291
1.47853411296606
1.53494582936293
1.55858429007224
1.58325504819398
1.67781828409291
1.63302948492513
1.6728205830165
1.70656644004513
1.70862553120789
1.78314693659918
1.78714356264721
1.76854002665967
1.71135090073303
1.80170586645654
1.75471866010175
1.7702124004522
1.87683329435039
1.87608259521892
1.82338321067839
1.82744051739894
1.84478810509564
1.82892966389274
1.83160912432326
1.80574704193218
1.71569418096568
1.82904058221396
1.83824759545163
1.91630173492954
1.73358625417712
1.80572984660858
1.79240328144549
1.9128934340566
1.84143902850365
1.86791652590027
1.83445739479993
1.8954863069271
1.88498451451227
2.0078196516476
1.94250469560557
1.86912478788647
2.06711084560568
2.16977949807655
1.98154332237857
2.16934333254829
2.04730703114623
2.17087852406546
1.88031567293995
2.17393828372216
1.87507404858807
1.9451491714449
1.89302999576314
2.18181078803436
2.0115243387893
2.40541339301313
2.02530400736719
2.1236410048699
2.03398831370511
2.36285870753101
2.39195376918433
2.36757461242072
2.08229449189025
2.38713100229608
2.09739841060893
2.28595166028093
1.87434434190574
2.28578397604975
2.00123327256549
2.07320224951846
2.33396858880609
2.14226879763409
2.40005550904554
2.17492950998618
1.94965066463413
2.0819336243136
2.00196310571338
2.14588045637488
1.92852518776679
2.10052304547571
1.81938485890819
1.94633029358989
1.9622164466618
1.96336187757388
1.85482270944741
1.78474689325401
1.87188204376495
1.67562536082847
1.75896276607829
1.78223537226227
1.70591580075112
1.71870453466119
1.63587422932201
1.7145726570971
1.66369402776319
1.72519752487213
1.61092696539286
1.65109248495188
1.56160744008184
1.56842151424946
1.51364769164124
1.6263503058148
1.52773319066725
1.53304814000271
1.53060651890556
1.57773113070637
1.53658974152589
1.52234180462562
1.40627386049569
1.41116094983599
1.3796042726321
1.38451644733096
1.36911085352403
1.38545633439726
1.31016374181572
1.24650344915479
1.21160826384592
1.19973041014492
1.1162002457325
1.08611809844056
1.06437292109353
1.01614836484058
0.996688669303978
0.962708268170482
0.904215346393498
0.88684118533659
0.866833431154018
0.839668742592348
0.804312607471309
0.783753098509021
0.761143255110471
0.749005048097735
0.73013421918171
0.726098944926384
0.712339005220048
0.711147280473063
0.693802721233832
0.70916471269985
0.693104042501804
0.703588467700614
0.676689175868164
0.672200132599043
0.690778340144681
0.685767558864938
0.67906626399239
0.678819012763787
0.677295027131372
0.700286990319875
0.700617323924327
0.695359468300195
0.682623594866313
0.675791474377453
0.676919392443663
0.679663880297437
0.67490089811296
0.665951284225172
0.648017449216296
0.642632611257191
0.65030463309831
0.643746683292999
0.639721946999781
0.638742696346866
0.639321765882761
0.637356499902915
0.636259400657147
0.62764506325355
0.63373515741712
0.634301165258817
0.634054775175754
0.64411902025258
0.641827838861601
0.653931753307195
0.655469029635377
0.658733685393208
0.657925294175204
0.661880537631539
0.660243140129483
0.675155802433766
0.673844212856821
0.68510483825251
0.667501322649424
0.685202520335582
0.677290635579459
0.679805755204849
0.682474999029304
0.683614206935094
0.673208093765576
0.684485871647661
0.68721895803407
0.690944065015973
0.696326376637
0.701088978086375
0.691280188997081
0.707259486014648
0.718300112980673
0.728456900588635
0.726765564862902
0.762664438895801
0.766336049640853
0.796226307642646
0.783918610216329
0.834763474854816
0.845601816489642
0.854431615254579
0.822475808079774
0.865640943879638
0.885529262838252
0.866530163605422
0.8519332539355
0.879338271185582
0.833922362536676
0.838651846523343
0.826844365935036
0.831670808441409
0.806882967587988
0.795635201727488
0.802680591401714
0.813797123683656
0.793920865694539
0.809539024678831
0.817864444713175
0.80082102384713
0.805129344291262
0.805701280362934
0.818852429909685
0.823443832653627
0.801774990649079
0.788734076357162
0.778478770829168
0.827369009756249
0.775220086510576
0.788471413044163
0.778655935292598
0.753156957041481
0.771456739528292
0.77434311924302
0.765718249234443
0.737170463867528
0.763310124386482
0.757914111879108
0.746724868816512
0.746871643351932
0.735932191495728
0.732364949811044
0.712718646621802
0.745788931606181
0.713962143960389
0.744810633377096
0.731698457767759
0.747914686376494
0.726498480972321
0.740637946520778
0.703021431127403
0.696657580961181
0.715393616029505
0.707366434590619
0.71421452508601
0.740837211153518
0.730985778587042
0.72247506277557
0.697455235627361
0.697668065343555
0.694146699029321
0.697132189742651
0.683847284787069
0.697450892992297
0.684194513936
0.694597841535827
0.673115100143215
0.678486519249161
0.686368887700009
0.708270555273628
0.6843066770299
0.673506591118868
0.701188769579125
0.69503537786279
0.697755131662852
0.688805886872813
0.682038272988262
0.718208854900372
0.698783682183111
0.702519341707151
0.702756001328946
0.69199213019879
0.676821086873155
0.709626766237449
0.684769803525449
0.710737649789615
0.706565894893513
0.687408715671086
0.717111631042502
0.769345783292503
0.692910465504287
0.713697175677326
0.717223116536226
0.728945941889868
0.720548577770594
0.757937426269491
0.706335779211156
0.729364471847077
0.758717808415225
0.756722988121934
0.714856427310797
0.789298769282747
0.777650616924818
0.800888346767325
0.792915383674322
0.830501241600511
0.787940734953172
0.813296307103544
0.870557286534303
0.919144772598374
0.878130900914167
1.00094494223304
0.942317840282919
0.955127201834593
0.936776761635115
1.06420899631993
0.956531940822401
1.01513567176906
0.997819862366729
1.11493349528758
1.13955611544639
1.16676424415026
1.06143141947674
1.00780823246354
1.06115140450716
1.07229954070585
0.992291347046993
1.08555707311774
1.02294088709717
1.08210186255541
1.00477739708564
1.14132720855887
1.07858914714715
1.02651878149903
1.10625725306411
1.0343046145625
0.988071960606491
1.04605170078342
0.990391474651008
1.11076699809719
1.04482993037019
1.13645575979598
1.14861692014538
1.14838026262834
1.07293823322081
1.1199699169966
0.920956843722721
0.971116988060755
1.01504702644367
0.991231674085927
0.972901612207878
1.05180693574096
1.08556921255091
1.11124920152613
0.95652474932757
1.05403033401592
0.984705171808499
1.09050495608301
0.877210242807295
1.05353364890792
1.05423400892063
0.992468738185723
0.986619262918481
1.07980031484501
0.976629019376452
0.933584214262203
0.994396930250673
0.947298896277631
1.01076503356695
1.15509412489962
1.05546651671295
1.17096048144623
0.967587335353365
0.960732626298509
0.955754186715832
0.941107287786947
1.01881780082356
1.11515697211287
0.888665414067412
1.06499199329361
1.12962702750093
1.26182518411929
0.993534628339853
1.04948526971383
0.919217623379836
0.992322590235488
1.0905024201578
1.08995450437544
1.12670633095332
1.19437000816198
1.00034635052263
1.08485330928815
1.00557169029074
1.04467503259642
0.909545976871137
1.15664888177682
1.42813734934027
1.34473222930207
1.28349456269623
1.240805326118
1.0750462355274
1.38807608273691
1.18670501768049
1.21226241495388
1.09587128190026
1.13128942633323
1.57907483485757
1.41480189279256
1.67601797285383
5
1.61126884085004
1.66824302924028
0.999721682295702
1.04938867872415
1.24113538099063
1.7546309003515
1.33564881777084
5
1.42575366523953
1.15992076673536
1.25891490683078
1.31123198135943
1.31956861358324
1.40729105336831
0.958005777837162
1.19784191329911
1.57113566884771
5
1.75856646078936
0.957981944095063
2.42768134284925
5
1.27901250560162
5
1.36827557810846
1.63494944521907
1.1324252242977
5
2.34925806323216
1.02137409710266
1.11952396059316
1.2584023470406
1.2017679022393
5
1.82660319729983
0.419798799304452
0.771563845183321
1.2156459128449
2.55561638902548
0.995821515736721
0.743300363157417
1.08841036732424
1.44485299221021
5
1.23129685992542
0.637814374778222
1.04226060939109
5
0.962573963189276
1.45498980021972
1.21439638193315
1.18033735379767
0.842977207967391
0.66930833596704
5
