3596
4000.36533379555
650.420452594757
1
2
2
0.0528754231673332
0.043015965694979
0.05542706719637
0.0386180006984492
0.0676573955617317
0.0486813585916146
0.0558710747575503
0.0494223857975605
0.0496352759590789
0.040139108825664
0.054678397127634
0.0458336867734489
0.0554234602196145
0.0362730941724939
0.0489635749127795
0.0310325662528212
0.048560638958075
0.0351766301778852
0.0522901219672689
0.0402968056743209
0.0552562462294281
0.0351994656433259
0.0683610310182093
0.0354073064656898
0.0551973693184564
0.0563967217705411
0.0407726880100595
0.0332648845945526
0.0648174620639378
0.0418577545391709
0.0485582792580007
0.0334581166447337
0.0551155777121722
0.0410279563570652
0.05932006195321
0.0391112170894721
0.0596765491158994
0.035025223840538
0.0553160873860646
0.0354633703833869
0.0626285683665852
0.0383323051517
0.0503580375715748
0.0400116258148479
0.0508444077541331
0.0440205443482003
0.0469589839007559
0.0421796070056834
0.0506611184877756
0.0395498518898871
0.0596133445927429
0.0315933721175277
0.050870877341269
0.0422811861819741
0.046301850329613
0.0506108633110337
0.0479832441231186
0.0394817505543277
0.0453445990265828
0.016534239089681
0.0600246437922724
0.0623389633104354
0.0391696820029259
0.0497237887010129
0.0587760453312988
0.0463508533610005
0.0464936910547623
0.0430098384582448
0.0448270194689089
0.0333946928962768
0.0275613011757133
0.0501558417943271
0.0764794314172296
0.0428911298369745
0.0602477461144812
0.0397851034791655
0.0461728350453027
0.0417733943879292
0.0351580877647108
0.0356435861607988
0.0511106246503731
0.0385628075932494
0.0471651848891118
0.0315615276772459
0.0381029187608999
0.065220088229849
0.0428958884314827
0.0174097401835374
0.076337449257409
0.0469536679741194
0.0478420911351247
0.0300779381721549
0.0456980209652021
0.0336163305490968
0.0408988031241553
0.0318857152976142
0.0521672698693598
0.0348354950246716
0.0472670292248449
0.0163960501049555
0.045845648312662
-0.00852467690823423
0.0915828131379428
0.00562997740201836
0.0823952482434628
0.0553443164991473
0.00362339646057012
0.0701952971586332
0.0663611966628122
0.0468451460510453
0.0400970170890697
0.0384485501097467
0.0408406467100053
0.0355674686912732
0.0195006852127654
0.0132628228079987
0.0917644735680842
0.0452899345707042
0.0504202899293036
0.0330271697344939
0.0138261070411534
0.00120330373004751
0.10400116801313
0.0318957438334605
0.0546247741352322
0.0329692259632351
0.010697561644799
0.0396992520697475
0.0934088929049481
0.0292371361124995
0.0551518787844001
0.024155211359316
0.0412633331446576
-0.0109996180452946
0.0758845844614919
0.0417636158515518
0.0331362410506896
0.00283493987350578
0.0314959239475621
0.0819347957840861
0.0663811779916102
0.0370616410770625
0.0267404943700834
0.00934049998317284
0.0865068461455124
0.0384070247847121
0.0305061583831405
0.0338022087022185
0.070072633904055
0.022850328964747
0.0540970550944261
0.00958542383100224
0.0455320617622927
0.0296274708342402
-0.0183460976331735
-0.0214379311818656
0.120252399257174
0.00327133305192843
0.120353746096219
0.0361542721358337
0.0588725207901486
0.0378393699941097
0.0374395019934672
0.024582818617269
0.0358360611846562
0.0270260084132477
0.0230968163462627
0.0628784249090963
0.0257644253287224
0.00867254671056911
0.0596571378908628
0.0307986572993257
0.00515797148728766
0.0856199381565601
0.0631680685922432
-0.00953870852463825
0.0696857881104481
0.0484442359868813
0.0296971869909578
0.00966594936400042
0.0865002148296978
0.0383822408548294
0.0404593673885308
0.0259624061145409
0.0236783946604085
0.0388781687536696
0.0592149268176994
0.0304786226209652
0.0492900734553876
-0.00992037366995599
0.0159018002208557
0.0725730746621343
0.0977428732456578
0.0344763904678608
0.0435882190100629
-0.0244862213997964
0.0571879759728485
0.0746926507674442
0.0457730355355315
0.037083135848603
0.0392807804845202
0.0293712153055669
0.0379807458683766
0.0336444099702278
0.0364144526651129
-0.025590135032655
0.0706131972673283
0.0676043437010492
0.0373361186499041
0.0234866640157725
0.0275932265760571
-0.00609217323879765
0.0658295635809262
0.0837161149360813
0.0314685516336533
0.0435869594550527
0.0191241436210924
0.0241037878127651
0.070093562195691
0.0395325756475901
0.0415831854100716
0.0333646080972903
0.0466279276599048
0.031633288599767
0.0379971232680167
0.0394102721751517
0.0473855646297999
0.035548787392839
0.0374347525655597
0.0318227378537907
0.054752871807396
0.0465531869680431
0.0504840245910028
0.028996767614556
0.0267338889675875
0.0160424323862058
0.0749217445087057
0.0455800001389708
0.0508370967437689
0.0307497233549036
0.0328590203615757
0.0312046025392291
0.0415556971419836
0.03360035343398
0.0388430075176885
0.00203179994254341
0.0631510950617035
0.0480097757227046
0.0387306154992308
0.0170191496299375
0.0423958367576665
0.0714701180134599
0.0373227710592176
0.0459831677822178
0.0495094035496021
0.026175459399032
0.00553216826804941
0.0581699469343053
0.0485963525742147
0.0238461860930469
0.0402512710691324
0.0620482966816908
0.0383031196262065
0.0183081112267168
-0.0100894889853198
0.0868738337140025
0.0562034025619025
-0.0241776195530353
0.0952738372387865
0.0721291726069936
0.0528697521055513
0.0219625647398833
-0.0665388481208761
0.0967260389187574
0.113366575136645
0.0419684322779918
0.0291068371540341
0.0508322794553473
0.047765312162889
0.0282360513990131
0.047768912877887
0.0229210905602747
0.0670050323102221
0.052320777193834
0.0929277296132044
0.0177082397119923
0.0331449834672761
0.0757731102978439
0.0382347995176876
0.0490814822904539
0.0407616844659825
0.0308486000315303
0.0351934149759306
0.0654807834825615
0.0507831929908425
0.0500728889961474
0.0370096483094814
0.0656424043781197
0.0634585300362457
0.0432860936983247
0.0462282536043714
0.0565335751001394
0.050994577472397
0.0507005590171944
0.0420945993379747
0.0512121434386955
0.0376872377705801
0.00444190367474319
0.0938067084146787
0.0602074316920373
0.0336390133535788
0.0721184365482447
0.0614801479034986
0.0451806202008791
0.0485335306119385
0.0547304472956678
0.0562474424323966
0.0313836351098912
0.0396325708109705
0.0638737355913017
0.0668461320560206
0.0553510535803954
0.064361338651053
0.0506519745439414
0.0522567029009055
0.0580241421135609
0.0552161190318345
0.0497294537334086
0.0551703790625463
0.0327484648347185
0.0651359621834366
0.0746622548182606
0.0420250164254038
0.0531253532985807
0.101319765122257
0.058489392215063
0.0763659624297992
0.0642499201319246
0.0692618142012459
0.0626250066925314
0.0637055710531435
0.0561230897541165
0.0553005816082962
0.0809203273650195
0.0800612931048367
0.0425663919170239
0.0331344275995801
0.0772299528300696
0.117468266361613
0.102101407627039
0.0663882956260032
0.0470505561879305
0.0692325416327878
0.10537856881987
0.0802523577677766
0.104676513956864
0.0900774296041869
0.0805900392261674
0.0945887618189576
0.0769335148651558
0.0902039221867511
0.0866658205801955
0.0877443217333883
0.0820973604986202
0.0850145088517288
0.0874620836162473
0.0839498211680099
0.080023975776953
0.133991425027957
0.112467783628945
0.109606320783282
0.0875219918531044
0.0874594008293475
0.0917483215912619
0.122338418601783
0.0977734621087631
0.119578553978379
0.116089096249229
0.145766826015412
0.116205119876929
0.110800062816025
0.126513861384949
0.120996560066583
0.120233216185182
0.127229831626065
0.124088557717469
0.11716036979086
0.119595874814102
0.132788094015317
0.131901766786563
0.128634089531242
0.146328455723862
0.151486363650566
0.141384117382884
0.128873465074419
0.134432848200574
0.113012577423198
0.193543015660555
0.188859250786775
0.17431708668942
0.157085510383471
0.167959184215094
0.149636970070377
0.152396164591724
0.161556270719149
0.156346379414922
0.160496761984464
0.178417506327651
0.185729904691137
0.196892550236963
0.202794032362192
0.174425696336661
0.17461906037314
0.188094099626815
0.1799356677373
0.231496746914928
0.202822256374278
0.179641821243289
0.206013282300736
0.212973889178858
0.188497494736593
0.212215697016706
0.212375225229854
0.214596090365287
0.213678471179888
0.221144729113194
0.223517867254066
0.235290256684909
0.251524919879466
0.232443627512159
0.233996168784908
0.23336899529601
0.233725635491758
0.250983772051565
0.239041943934336
0.258297796216998
0.260404372015424
0.257384428839238
0.241741693037485
0.250918492078185
0.254945184648785
0.288580213684815
0.264808586750794
0.274229802746812
0.286170987248633
0.280264313816585
0.282110469516656
0.277998841519315
0.283415176495283
0.280335708713439
0.310273854876735
0.301192557322697
0.286362845194195
0.308563627027511
0.295294754601431
0.301725204006366
0.300704032285367
0.334982727754073
0.346068421170241
0.343875074970912
0.315850352487212
0.318766670413292
0.333077174396285
0.373364792060339
0.356114712002314
0.352816376128578
0.349267966406459
0.321762994676382
0.335241114688928
0.367532082462444
0.363054348806839
0.373926122930482
0.366646230388136
0.398063421339656
0.390258671948856
0.390248997616852
0.392884340514439
0.413541313471277
0.392822278741132
0.391154613484012
0.410832962752042
0.424196509276701
0.390858833192008
0.418501295430641
0.423092303031354
0.439223690933833
0.414401557414352
0.429384751738656
0.416109757080401
0.43360203161468
0.418962931799708
0.42552143035138
0.457372416243148
0.482833346639561
0.433623440708154
0.461324367847393
0.466445128009238
0.498449823937094
0.471910119422057
0.486161843173784
0.47254115231996
0.488508473270441
0.462397509298353
0.497701269762069
0.506641671764982
0.505007467205403
0.482881048207172
0.50765957829275
0.526393205474056
0.535849410627353
0.48637427137331
0.541105825422086
0.516061650590689
0.551118355552
0.52090747412957
0.557860270272552
0.534740405259096
0.568230681681093
0.560032044159294
0.579581048710815
0.561868081014775
0.577810869410292
0.590608675242841
0.586818600076871
0.561378622988236
0.576813598254452
0.597461901637387
0.603660083743265
0.57311332747496
0.624560729964024
0.607460000509623
0.642975179398762
0.592278131186985
0.676864091659776
0.59420834688059
0.6274499313811
0.61684776496553
0.682020054088742
0.613779377762178
0.679627212022937
0.647275523147982
0.702265652631135
0.64964653797309
0.662169748953251
0.69659545091462
0.673294639849428
0.660968454917867
0.70086514605288
0.663360708671698
0.682177661957974
0.651723333591395
0.725505669743433
0.685556169513837
0.704410425012043
0.703430401541693
0.767000294042973
0.721130707814589
0.711636214771392
0.721737896094551
0.787099868145152
0.721695667620336
0.786079603842765
0.692935683231841
0.74212606026769
0.721789399826955
0.762370677907598
0.713316552340325
0.800890739674074
0.725539391668737
0.735234451718544
0.765520028867006
0.878631413703286
0.792684743835881
0.838853720917216
0.781798588055604
0.864509394985731
0.794454642665204
0.818071441277881
0.782059387448222
0.84587337246234
0.763907882765043
0.886450242635827
0.797052039873555
0.845419919223569
0.806716927743455
0.856466411129608
0.807587127280442
0.872498849698374
0.811465098240753
0.962843320740114
0.814577575563816
0.860173718804541
0.837498597589532
0.927000828889139
0.898880814511205
0.943970634433964
0.899874532353419
0.922019047669301
0.824267462211058
0.961161035478566
0.858713979443186
0.885388654077986
0.863846217618171
0.909739849574622
0.88613959802225
0.932889180577775
0.931337633538159
1.005569834476
0.924474601183715
1.04280409852725
0.930146671852007
0.961493337207584
0.838860565514851
1.03480352284965
0.88790699521808
0.997820583207551
0.979733628108545
1.06385402427749
0.897866748845198
0.968570342449395
0.986062172159195
1.14653230202209
0.941363050452413
1.06223267441007
0.978942067724648
1.03753472820982
0.944557481707901
1.04152362020801
0.945085092237615
1.02056448234126
0.970657394050066
1.08964486796782
0.96137537705261
1.07969663040771
0.890561660925872
1.06609534242574
0.926296769371631
1.07797085682299
0.99402665687424
1.14176858271994
1.01950242372357
1.05520745977141
0.982253693585215
1.10394126925379
1.07695890583014
1.15768076026752
1.00754345089621
1.1376394007578
1.04402194402991
1.18234096268864
1.04087302945604
1.09096678539928
1.0658049999446
1.11777860807554
1.10934093311417
1.18043832272468
0.994013736218515
1.10727767932101
1.04833466472506
1.17900824075063
1.06091624650843
1.10578823805831
1.06079100469315
1.35432377305315
1.17398245799062
1.14708728302193
1.03087148745812
1.14471472803711
1.18760267054732
1.27732428315542
1.10119090701991
1.47850200798731
1.10990103582916
1.19682780736321
1.13400249298268
1.11951602788862
1.14611547933849
1.18031654752164
1.2201654307289
1.18819455527966
1.12598894363832
1.2385250583447
1.20858012342654
1.20142138474153
1.14911954730523
1.28387605506392
1.14363759458716
1.19487714386945
1.1399483225527
1.28498464245178
1.17785738011009
1.28863888623376
1.12268790529252
1.23552838848613
1.19400199494535
1.27089174235897
1.05074331961587
1.22926463057426
1.19758316468717
1.27067523471578
1.10018260162133
1.34033140124214
1.12082152099147
1.28075826312635
1.16814762357841
1.25362038452488
1.14998946594331
1.13796429151847
1.09694996741434
1.17538351342886
1.14374056901956
1.33064267176508
1.23549171893289
1.25606994630191
1.24571668236914
1.21897887029323
1.29605820081403
1.22736997469621
1.14522662738748
1.37846145727187
1.13406871721863
1.30654858136482
1.24734960101208
1.26357965373985
1.19594714440149
1.29503474902034
1.21595153639661
1.25277112502707
1.14773514101988
1.41315919784644
1.15066786169176
1.38991537437111
1.17837488148716
1.23428983215228
1.27711476106327
1.1999195550987
1.14669875185405
1.26897001082356
1.13647389967332
1.30133202544047
1.16057107945772
1.30738234040216
1.14471479659168
1.20555810364449
1.09642097534912
1.22890852595636
1.27905997882504
1.27586781218523
1.17865282099824
1.40313837976703
1.21683912731957
1.27428875897686
1.22633873633393
1.24104555934909
1.13459665806938
1.25094295171989
1.18854249736563
1.26372653727103
1.06775009339227
1.26844029034867
1.1632437310981
1.25998048969126
1.24836617247926
1.21367243240352
1.13050932284833
1.30908527317367
1.23427737191786
1.29044478130159
1.18593791417009
1.37557097313255
1.1466696370961
1.38858860336369
1.21664612685701
1.37412600285845
1.15128666110379
1.23560811299513
1.20364106163032
1.17096515620931
1.19565833399479
1.22858731504483
1.14280826807352
1.30289439128743
1.12543528798257
1.26322760207152
1.1730980661058
1.24690527134866
1.12268244452092
1.26952091055152
1.16466201727432
1.21921521817345
1.11557239009374
1.24927600150996
1.13368248152597
1.25451947558103
1.14383660024001
1.37091097756902
1.11623964654681
1.14680410565202
1.22817767989965
1.29426398403401
1.15509691764028
1.24502519616925
1.20566908956263
1.22327510689118
1.16584074469749
1.26350019753965
1.08236183706942
1.21967936880914
1.19017283511545
1.13814131485511
1.03787035569474
1.23528756220174
1.12439319511298
1.19579044346324
1.1273590796979
1.16024851471015
1.11409147462658
1.20765785291997
1.19009830927489
1.17765775109125
1.05511567391471
1.14183535249428
1.15066109620758
1.14899936333844
1.14743228240771
1.18873587596348
1.0623832846712
1.15288735167009
1.06120137146578
1.27952765206925
1.09477677562032
1.18654008760428
1.11970018048924
1.16310105724475
1.00341498346777
1.23934292360508
1.10819953934418
1.14946074513959
1.12297518853274
1.09085489023688
1.02984665891892
1.14463809773763
1.10221181807627
1.12044200407771
1.06353888487185
1.07897794131142
1.07315407185127
1.12652922194216
1.06665480153072
1.08669445124454
1.04936802531756
1.07314031549042
1.00329017681412
1.08689104506341
0.994120852549393
1.0533000092804
1.01381524122427
1.14385520201694
1.02839911610429
1.0654847330851
1.00578959449693
1.05441041598694
1.02617079595705
1.06579216858814
0.997136649628927
1.05587530173879
1.05022499452767
1.06102965841884
0.991000201163864
1.0363174778213
0.968831200324305
1.04400907564006
0.990258482367292
0.98458300651577
0.967586105756805
1.03490516970464
0.959855439416193
0.99955015559755
0.990291009147784
0.983450877373662
0.977073027370645
1.02004551848788
0.940217787207936
0.981693970197798
0.916284605919889
1.01673526866367
0.912555207561415
0.941344530493623
0.933403151070258
0.956890419371136
0.911452124759623
0.917560303814188
0.890663769599283
0.920302888289096
0.896602793294836
0.93956129167071
0.89090595669923
0.902579545818445
0.844915017008975
0.883421903128228
0.862221966608328
0.927841149875097
0.863725164626306
0.925330653688317
0.872246287796105
0.887214164943186
0.836663713509516
0.87704280626994
0.826361001103533
0.843824484133817
0.824016180821526
0.864650729591637
0.788669675352588
0.886730116903199
0.842855203906723
0.862517146639961
0.786209902153847
0.835407107627361
0.823031243332217
0.813982374526452
0.784156139037493
0.800429977028007
0.79503077569285
0.825652940236824
0.77305191915818
0.795978329929703
0.757944542660811
0.786995791905976
0.775986193076787
0.76549139105948
0.763526133033523
0.786120418519791
0.752979315561998
0.79894345355111
0.749207317444276
0.766185309662064
0.739120855363028
0.762664570551489
0.723391389293174
0.751918799110576
0.717997149870903
0.730722415344749
0.697695200584117
0.737310794548091
0.699604519432606
0.706688089402508
0.68330205779652
0.707261009277439
0.697725435066075
0.706773839486024
0.68548335244038
0.680468324092706
0.678027445123687
0.69915978532638
0.685588360990921
0.6965939553968
0.662673213383103
0.725128539947874
0.656756192458953
0.660614051947441
0.642587347248723
0.661941876893775
0.654931530235847
0.675657888230661
0.643098509082814
0.664254262570628
0.641668642195453
0.657636889357023
0.629257179771225
0.646853495396162
0.628330709104201
0.638497546646121
0.615472031256114
0.621846521364536
0.622967300250939
0.608866914246022
0.609596277466967
0.610551788114345
0.602947026696624
0.612706662205798
0.599476765619227
0.618970601845317
0.590067552409361
0.612253050031676
0.593633646611249
0.60221990203903
0.569815830511692
0.588403984617213
0.576665542964783
0.5840867343188
0.576288710226946
0.58032048129307
0.560541296205386
0.576051158481525
0.544802016561287
0.555658591133819
0.554757050869571
0.559137780334357
0.549472943865167
0.551545381276
0.53832290127736
0.548944281486643
0.518329266515367
0.542711394337499
0.534099626753468
0.54990235856399
0.526988984288998
0.556953843592283
0.523162177267567
0.538600687629893
0.5143305076295
0.536338545163254
0.503290489975742
0.517170160019524
0.504312629381909
0.515968730263339
0.502778977191581
0.510141255195434
0.477788885420478
0.498739105016881
0.498899642293946
0.502519206879123
0.484901457352922
0.507302400920747
0.483112738463763
0.492859246516765
0.479015197885225
0.492299226007343
0.478297558747943
0.488798566280199
0.465955119113823
0.479106731578313
0.464025519804468
0.46856612212061
0.461195339068546
0.464895725772623
0.464088819543593
0.451318733766792
0.451988099471637
0.456575812201326
0.445825674726061
0.468588778660221
0.448883024765309
0.461613633403378
0.439239369909926
0.446248757502
0.44035385191011
0.447758848972476
0.437810387295268
0.444821618221212
0.422076805892051
0.434294258102737
0.427360595022704
0.427200002270604
0.422162287799121
0.424572835030446
0.405449372068542
0.426924960094851
0.417742284382328
0.424194743829027
0.416173012952286
0.425091856083162
0.405807589988885
0.414587624385918
0.409196153608101
0.405114410447735
0.40721101198447
0.417163425958944
0.406734127079954
0.407907131725043
0.390303520818052
0.406753018468493
0.402920954223976
0.411117306557118
0.396666520461035
0.396858541314395
0.38715595716405
0.40979105519463
0.389897818102799
0.403276035455227
0.396238359819984
0.402408954496941
0.397219024695482
0.406816306550437
0.404330064010904
0.404485747157576
0.386923275477998
0.406460963515745
0.400325080085925
0.405014384692516
0.401837817387157
0.405703930161672
0.410600423120885
0.409222951821982
0.402123161388224
0.40300271202087
0.409570833982786
0.417407641236853
0.410054964362969
0.414945193107977
0.416748467626841
0.419206053314038
0.405786575815934
0.430539074420795
0.411353123472266
0.411485576223645
0.416057198424145
0.43277448665143
0.418354869994395
0.435745369762806
0.426776365844119
0.429641750265377
0.428366358427957
0.438340135441581
0.427054275770933
0.438383178160724
0.428140215030701
0.457279705547005
0.431862295567965
0.451192652043893
0.441707316440635
0.453881502943674
0.450276050727707
0.462091366942912
0.452796201462711
0.453048810343094
0.449037470538718
0.470334606032261
0.461480214416558
0.481671960577468
0.467665128824353
0.485831976920434
0.473222630849995
0.483679123150979
0.487788656332875
0.489581225169751
0.480781552666981
0.494495878186997
0.496726214266563
0.501877479904166
0.503116170171526
0.516204696375911
0.499818499951911
0.523782005470903
0.506802769358684
0.507403984016701
0.523782029132765
0.516525392829213
0.502824544331676
0.529496090789766
0.520744501128086
0.513408566218044
0.490089102040474
0.518593078451772
0.528015894770775
0.531583645301435
0.509514461135624
0.533539230019802
0.519927365528319
0.518175807448623
0.518045560514168
0.528433679207932
0.507538721985409
0.515189634123099
0.500588719635038
0.517544211008711
0.510303678647562
0.521583468378686
0.499912789241372
0.525888533298534
0.513936528722094
0.51282331409343
0.505938724392595
0.506632313855063
0.50171123055291
0.527668379258712
0.519580940062042
0.527130584236903
0.511794186110968
0.508626694081525
0.500491034227672
0.517148477405681
0.505488884209192
0.518948453112799
0.508598233660403
0.508707953467295
0.499573348628078
0.513597845256733
0.52229184874446
0.521739884491235
0.507091831506607
0.506768740737514
0.505837183472943
0.506664214077447
0.510100339677891
0.528503028887424
0.516444470772297
0.511272907689487
0.511235536905484
0.518690200775505
0.513184872982312
0.512753469773701
0.506260882601279
0.515660972686755
0.508380216381165
0.505404638174425
0.49429710086116
0.500385760764845
0.496387334458168
0.511433267791557
0.500261380397194
0.485541435246216
0.484868801129651
0.486129932516308
0.483558761034197
0.492912684383575
0.467284953870954
0.477947063229794
0.473990165541129
0.47719307703935
0.462347007491361
0.468077578877055
0.454714921400441
0.461905828919962
0.453980855927373
0.454403538577891
0.450508929617943
0.451735041544806
0.453541212117974
0.449821777097447
0.43384368286346
0.434870147825981
0.429662799686931
0.430495293498891
0.425189458183285
0.423488024017069
0.410440034501021
0.413647955615795
0.414505348014162
0.410944428685313
0.404099858348052
0.407357560224148
0.403919397149791
0.407738424853555
0.406259266081097
0.405936656065214
0.385757384260393
0.39598347890592
0.38355163685945
0.387027600547402
0.387456887326632
0.390737503628198
0.380915226683083
0.385555716965727
0.373525701914608
0.384191912716311
0.379654390822625
0.373259283583272
0.363437989464746
0.371780064487128
0.360643812782547
0.364026690327678
0.358483359084516
0.363654964272415
0.354791238257182
0.360946512217583
0.358088848681872
0.35870281955622
0.352688713300081
0.34980689927649
0.342733884926121
0.353433439796404
0.344929373420186
0.349794653927784
0.346100555288958
0.346836507683799
0.338535060536909
0.340543801991138
0.339134693921313
0.343641365069496
0.333626891974264
0.339806971199957
0.338592573688421
0.337305691018819
0.325411696871043
0.336673075921676
0.325056716278813
0.333382701189159
0.329701381199673
0.328373354097312
0.324774494103468
0.323449741444543
0.323478216654403
0.321498614561499
0.317892311627169
0.317731108963027
0.310362737001638
0.322536219573517
0.317935803442138
0.321512939633988
0.315353069896282
0.316573001504755
0.310935564061874
0.314073695985362
0.316852817087802
0.313869449631045
0.305298039605205
0.311468577553568
0.306598206717696
0.303419377827059
0.303898869910662
0.308477103991998
0.303371433884403
0.304905098389411
0.300592546869154
0.298108804092547
0.293019190354289
0.306828480999892
0.299244052871586
0.298080348838076
0.297299655081258
0.300429267170015
0.295229214446578
0.294258268621569
0.293502154160102
0.293486102709577
0.292022472329559
0.29178795981615
0.286056664928028
0.288074652657161
0.287013136560792
0.290528624603897
0.287916515996443
0.283639629464788
0.283748134938111
0.292615711271259
0.289864100562215
0.28326498957078
0.280916751971324
0.284542386634003
0.282496653835337
0.28530070182419
0.279602759782304
0.282294208434059
0.28246976223029
0.2797887993098
0.2765220106858
0.280439276567799
0.269194433355543
0.27985886823761
0.280591234507321
0.278845490694769
0.279841181851155
0.281319851316979
0.282108692646595
0.280659594232767
0.274940118409806
0.27446251578829
0.275784975830473
0.271662940036183
0.270899024108507
0.267453914843645
0.264576028875742
0.276325510095614
0.272983371498483
0.274709757303706
0.272933270713562
0.273670465698002
0.268027923013664
0.267320587062146
0.264971389856597
0.271663268189523
0.261716570887147
0.266456221319948
0.266409533970572
0.26844760222303
0.267934993298193
0.272747320923963
0.268730717076911
0.270842404792659
0.266353883972198
0.272239292471765
0.261499824312186
0.261891491262424
0.264025106310418
0.260907316863774
0.261039266684191
0.263441957419992
0.256743402370115
0.264133757476908
0.258246316888146
0.262188203367534
0.263186803998521
0.259765825082432
0.251634115659349
0.258072363858337
0.255161728233862
0.252989524561721
0.253062349429274
0.25808902734575
0.255802721272462
0.250906783780728
0.253879423668389
0.25660542045267
0.249030367447051
0.248429683799438
0.24314708000932
0.248326809933593
0.247101317721394
0.249404160440405
0.241232110508987
0.250548001325462
0.248900358039199
0.245365249288371
0.243435108630192
0.248380636316372
0.241916058687133
0.245705002132231
0.238126624785102
0.243759812107307
0.241808055750986
0.239569985339841
0.236357288457286
0.244488156314849
0.235604093768976
0.234417482948641
0.236957746405293
0.236619446419401
0.233565059721797
0.236512010429168
0.229402063487966
0.23276555372913
0.230953670253369
0.232239847426118
0.231258254936464
0.230954558245476
0.22810619897385
0.230432452148159
0.231845909265684
0.227650639510705
0.223162911413416
0.224255455782437
0.220303253339042
0.224504077379264
0.224350959139763
0.222483234417469
0.227417510610294
0.218198359011539
0.215570560980772
0.219360255269835
0.225434041796675
0.21960398440011
0.220282938254609
0.213433950653163
0.212260554234165
0.212968587105982
0.20875141993932
0.209114590066623
0.212160013875761
0.217202072745748
0.20844658694605
0.209356140128214
0.203917966611341
0.204549081793771
0.204082758513602
0.208648634778354
0.203143815146352
0.205589445902814
0.204870469162373
0.199848889736249
0.201235020241016
0.205527193547726
0.1975341613517
0.200013042758673
0.203160689698398
0.202473956471872
0.198298898527824
0.200053135982728
0.196886109807195
0.19679711081903
0.193420296277812
0.19250171268784
0.191912063233149
0.189685196414848
0.195116838196961
0.193377287306196
0.191579273797177
0.193516629899989
0.19661560547074
0.188131750816683
0.184499460808785
0.190747960296821
0.187989499774327
0.190305674494025
0.190996578207921
0.189049971007867
0.184211411238788
0.184549845210491
0.183485164873541
0.184472873287915
0.181279582590004
0.181302911470059
0.182185523895303
0.180847591829157
0.181250384195857
0.179242644453821
0.179536000184879
0.180987998316119
0.177449829005504
0.180515156678579
0.181391155101679
0.180887202802282
0.176435670846164
0.177956134964949
0.173834481597879
0.170606385966413
0.176721133726646
0.176554792707317
0.174634260729767
0.173984722379156
0.177675457029761
0.170187613787928
0.169532318943898
0.173306989667559
0.165997937165134
0.167216687369619
0.167133288112457
0.166924088401874
0.169813229514612
0.171657441203151
0.168880975113788
0.168508573841255
0.170225700534082
0.167740571690313
0.171625055301971
0.168529949482351
0.164773639163665
0.165917440519327
0.16945345343403
0.170101649413176
0.168261641178496
0.160562549354332
0.162893162270316
0.168715275793428
0.161566512881886
0.163131695612714
0.160668633944106
0.161859340945876
0.165212383477505
0.158785430076509
0.167394757731304
0.162826754025974
0.165483136822539
0.164891649511158
0.160460356231791
0.159169541397388
0.159793810462177
0.160406861745742
0.155038585050022
0.153348424463882
0.157569113476437
0.160082988155279
0.157663010221622
0.155468076011979
0.1566256736961
0.158235938949007
0.157560967204178
0.151584435924285
0.152485320668165
0.158350823445409
0.153356279281589
0.154739147579156
0.156774331745832
0.156262230323875
0.153166742806253
0.157683646114503
0.153632034220208
0.152086944125335
0.155950373544065
0.146485189665165
0.148336231075114
0.151483283460428
0.15211445888102
0.151075725932985
0.149823667733014
0.145970735556627
0.150513753990117
0.14884178697937
0.147699058235399
0.146674547886668
0.15038278943505
0.142952352808193
0.14370310363212
0.142917736062354
0.144978062943656
0.147225590554393
0.147114921505676
0.142947171665236
0.141660808972511
0.141187370257941
0.149009571079596
0.144063955587154
0.144215178855976
0.145556780023985
0.142478305401801
0.146443334979034
0.144897541375282
0.145288797805024
0.143889130337982
0.144580067500929
0.142805710121451
0.139444483986379
0.142693396104073
0.144594510548837
0.139987830531912
0.140939352161007
0.138552962805653
0.140999075332859
0.142064669074238
0.138503140839904
0.142211728789998
0.134615476811473
0.138857941409628
0.134946869990089
0.13909306195915
0.134582122759475
0.134580142435155
0.134140054381924
0.132794532961512
0.129117760213193
0.131337772032835
0.130328035428398
0.130017135048717
0.130005917294574
0.133505377931158
0.135731059742289
0.13139989154017
0.131497272249729
0.128774211851481
0.130564278219794
0.130752759961765
0.128310253389906
0.12729814869276
0.125900661798748
0.127551704539734
0.122732541075157
0.128132636547372
0.122986652739375
0.126623360184125
0.123382959210326
0.127544008110562
0.124295531195784
0.121945303294467
0.122372358053498
0.121367447862789
0.120381532426594
0.12163118351764
0.120957179844324
0.120325587639657
0.120998354789648
0.122781333899276
0.119635803095594
0.120513874873476
0.118682011082981
0.118985649258746
0.113652849546741
0.115289997197547
0.115455183699972
0.119259709562497
0.11490910899444
0.11726930499791
0.112395714940226
0.115858053273979
0.112657697255016
0.114507123887283
0.11184504613628
0.114507353492659
0.113729750289605
0.117958963040295
0.114024848448812
0.108969965949653
0.109279320845678
0.112355619166089
0.107434136642191
0.108228346453601
0.110047394113324
0.112721679805382
0.108203752477328
0.108707505409596
0.107746050086998
0.107098242544052
0.106988604609453
0.109480150292318
0.102236267622829
0.104681039250821
0.104459246226332
0.102671187044713
0.102907903659554
0.105928219569141
0.102055892286583
0.106628823549779
0.101662055448495
0.102766854403167
0.1030774894325
0.099310732917757
0.0968484956007795
0.102150583491614
0.0990207973165198
0.102552863412551
0.098225448714144
0.101028286602927
0.09811224634688
0.0996276977138345
0.0976116435080484
0.100891984266432
0.0963158950822837
0.102872258465454
0.0961843040564426
0.0964477267629761
0.0954639471488368
0.0973427079205015
0.0954513412831765
0.0971863696531536
0.0980805583123409
0.0976827915814194
0.0912913939342085
0.102428228458946
0.0963955039653262
0.0994280230976022
0.093165163419619
0.0984931944561439
0.0932560393195338
0.0979059014890116
0.0962624180151952
0.0955565150493674
0.0926384195734437
0.0942381598091516
0.0892032305554378
0.0976479542643922
0.0897090706870766
0.0938528703366985
0.0924543199403673
0.0912444935513517
0.0904268870741513
0.0935637671949987
0.0920924586874696
0.0893937571067058
0.0848601677567713
0.0924204711357896
0.0925549449057411
0.0938873194847339
0.0833313738540016
0.0951317401970033
0.0825127924349453
0.0911490156885975
0.0899597331858456
0.0935730061424295
0.0901054663908349
0.0923132244173178
0.0922636209677832
0.0991849480781616
0.0890488915073141
0.0970106284104432
0.0881298796134667
0.0965951798177088
0.087992873225054
0.0935732976390504
0.0906277930457786
0.0975155445934247
0.085315358603667
0.0975324080957097
0.0885875720674678
0.0831497253650955
0.0776999578763172
0.0941310959130689
0.0782910284573154
0.0868696625360303
0.082433217844964
0.0910719435217932
0.0737490714814749
0.0917848001756368
0.0856468274232143
0.0937949417769681
0.0774754143225856
0.0922726393244552
0.0774738250789211
0.0939589419472234
0.0838884833496115
0.0876722676240804
0.0793698663510752
0.0851716230089986
0.083327416919537
0.0879405106392874
0.0831532420640388
0.0872778292060629
0.0867006864129268
0.0865226049180719
0.0895813929858874
0.0849126209330398
0.0958840296366228
0.0751585215646084
0.0980170104199208
0.0773157764920375
0.0958442128029792
0.068959386299671
0.10032860667551
0.0728870799250584
0.100182865650605
0.0708592205966619
0.0969723227607252
0.074243562587382
0.0915797828213051
0.080099771363416
0.087306780254186
0.0816907697177611
0.0820882271097508
0.0810715677972381
0.0849643318801721
0.0806779021160344
0.0836558489675958
0.0826446280725201
0.0829199013404606
0.0781849437148751
0.0834183562956106
0.078600979181142
0.0834554563093795
0.0787220509256393
0.0831243001315897
0.081047001561963
0.0823272677371612
0.0772960003118364
0.0824059801847098
0.0812198089932805
0.0810530815492916
0.0823421193917656
0.0831492781216497
0.0776548282174252
0.080298262161941
0.0791524746036239
0.084320274806325
0.0816476035909666
0.077482279796325
0.0779027822675906
0.0827269067212285
0.0798259846326336
0.0851296641714633
0.0810710110596028
0.0795007197932589
0.0781728110366068
0.0822017789117947
0.0836581670950355
0.0811888782137098
0.0795596457345667
0.0833653807714446
0.0838574276049789
0.0838505455816459
0.0810242005030336
0.0817876666953736
0.0826808000879108
0.0847854211506211
0.0796142518548141
0.0792545707822032
0.0791479367267223
0.0819783867450853
0.0798208408327971
0.0802896201269218
0.0804624267485707
0.0844382174023864
0.0839713462654735
0.0764040449142583
0.0806454228617736
0.0802931154577035
0.0832566092413526
0.0785541497375564
0.0797690958620378
0.0790498125042313
0.0810774344951079
0.0809626660287743
0.0826329697960435
0.0784260360939936
0.0809464723831216
0.0804004943745455
0.0791858788633862
0.081690429316667
0.0807492752395055
0.0777107562653972
0.0780233157155982
0.0828596136039945
0.0790210087551528
0.0802910545606642
0.0811382213933787
0.0836648144230245
0.083234663245539
0.0809296198976333
0.0809078047712938
0.0787400556865531
0.0800060119632114
0.0867162917197158
0.0811875750827463
0.0815396464152195
0.0813184615838527
0.0812962632357705
0.0809528540199693
0.0814265720911558
0.0832522457733033
0.0787693935110315
0.0837376825601245
0.0838190321461844
0.0766705955331841
0.0841350249636545
0.0834751180478546
0.0828570373133289
0.0829505961697208
0.0821581224550197
0.0864278845735652
0.0853870179414756
0.0818368506304657
0.0815366828519249
0.0851410152735989
0.0834995228261849
0.084809744671218
0.0854237684473233
0.0830380549805796
0.0841111369763425
0.0854859251716643
0.0870197829179209
0.0828704273235786
0.0841525836877591
0.0827717202742218
0.0832576746607983
0.0811873901414614
0.0851879029099517
0.0858002160033155
0.0834404686587493
0.0818253180484098
0.0871807367095304
0.0820172261342235
0.0822832622835201
0.085347075284915
0.087528921232393
0.0846212980717508
0.0834124965391812
0.083103938308768
0.0843093651026739
0.0856884016884178
0.0839229793759629
0.0843796586282086
0.0886591254548405
0.0884645775665876
0.0856761095332702
0.0810572648466155
0.0866042016484758
0.0866525517057076
0.0871043733254964
0.0846549048767531
0.0873716495146453
0.0887171419700195
0.0861178182409853
0.0896892389725005
0.085365264408095
0.0894228824780273
0.0887151621653456
0.0871354610346128
0.0825920183850156
0.0892199943430584
0.0884017738900045
0.0876114532012309
0.0875452194178579
0.0875533373582323
0.0880482990187046
0.0904508913731275
0.0884406021571814
0.0884575502319559
0.0890574387656523
0.0884334628089187
0.0930304113964673
0.0932047708653848
0.0876121069525029
0.0880242587639233
0.0914558077528274
0.0906127576377967
0.0906239365134943
0.0869016783698684
0.0905770700639009
0.0900441534214045
0.0880338639013373
0.0883002093612483
0.0904944960009007
0.086489701256261
0.0908570297577559
0.0914140884910081
0.0891829582157819
0.0870284614531876
0.0828997764263898
0.0873309454087837
0.083938440145828
0.086974730976186
0.0861103022840799
0.0910149059737676
0.0866558189771216
0.0885910026174927
0.0881996149790512
0.0892200573277647
0.0853926857130082
0.0887265765490949
0.0846241715574993
0.0888039289884134
0.0861731168505053
0.0863573999345575
0.0830763117289619
0.0872397494298286
0.0841404458242009
0.0899286060168397
0.0866597464831199
0.0849289086105498
0.0854681644846502
0.0852382649546204
0.0859271127911858
0.0889339083365695
0.081727128752913
0.0848496624790718
0.0819608209672275
0.0848731338181745
0.0837367830269552
0.0859820878285214
0.0876306965033845
0.0861437628355071
0.0844385945165077
0.0814339192844279
0.0831426914490504
0.0830616230727822
0.0826116256633564
0.0876046506562521
0.083744900789798
0.0842656475994385
0.0826416970604203
0.0859736591196692
0.0813319688786708
0.0848965970505884
0.0839638380581367
0.0832681455763703
0.0821424162888427
0.0878643915780076
0.082726326933078
0.0824662349340148
0.0826835720918893
0.0810291029323966
0.0820432240406958
0.0848631133040701
0.078461894541419
0.0818327807528452
0.0798120755013643
0.0818459647966773
0.0815386281310589
0.0839805828344783
0.0826498220688891
0.0801188675534943
0.079237265865588
0.0799006341509699
0.0832925385511796
0.0811828283663928
0.0811613955393371
0.0808361669294302
0.0816229708095783
0.0819056720678919
0.0794529192536203
0.0824598849980528
0.0796127707394424
0.0796307792401936
0.0798787307839464
0.0802881024008816
0.0815686992464574
0.0810996892733697
0.0813822577513907
0.0804503660435063
0.0814771416874593
0.0818587458826735
0.0804815977481562
0.0840037062209539
0.0807730663400251
0.0803098719957991
0.077998324098545
0.0769805276308952
0.0775677136885512
0.0780729723332452
0.0773421758380584
0.0794849034190634
0.0792507686169158
0.081737475071924
0.0816691517362406
0.0798540411952279
0.0808822076745845
0.0790414113332384
0.0798020656565341
0.0773091382308436
0.0759589242792322
0.0784004666510453
0.0791794530969243
0.0760739881640124
0.076529919948636
0.0774254499956464
0.0777595202707075
0.0806122795284623
0.0767963880404914
0.0771066663384192
0.0780375086027663
0.0755864366833
0.072632073062658
0.0745185767991568
0.074270448694124
0.0793785629890866
0.0762156750079965
0.0719135170188761
0.0735793195736662
0.0781001660581438
0.0723403080840228
0.076573648298944
0.0710646869894657
0.0734041154386433
0.0709150909402362
0.0715361285405655
0.0722864559034131
0.0725975449458991
0.0708928740686909
0.0709860048193325
0.0695293465632263
0.0720830424832877
0.0674216590988699
0.076320275514956
0.0720617422051299
0.0732097272836624
0.0694115765440747
0.0698074363585438
0.0673307938175925
0.0674430380523618
0.0696032795542792
0.072561610855166
0.06574038723953
0.069285618862995
0.0653642597171135
0.0693270810777487
0.069805362043242
0.0683428625803404
0.0645037513994102
0.0676581723034725
0.0658208711714876
0.0679762782647363
0.0671529418370557
0.0666431130261122
0.0648982880042955
0.066958513356066
0.0615815980096589
0.0681124542633868
0.0631308558212626
0.0623890848265465
0.0689018827180527
0.0653471797109467
0.0660013932608493
0.0630646726956091
0.0682582260145061
0.0665728636996344
0.0634394323490018
0.0634740542802329
0.0643412255228655
0.0663928888668841
0.0613629305922006
0.0620454325412535
0.0625899513717159
0.0609031319225404
0.0642469028174757
0.0628558487072144
0.0622044723096819
0.0635154298512617
0.0640075970272204
0.0620954989968234
0.0601711923161322
0.0624992641075203
0.063215639018913
0.0620241967757166
0.0591778607353456
0.0589774118609603
0.0649345538907222
0.0629248328962921
0.0622624287892931
0.0597151572886618
0.0625656928362247
0.0598089439187881
0.0618534003753521
0.061494375014236
0.0609596854281773
0.0625739764738957
0.0614535574800179
0.0621557474503298
0.0582112320059704
0.0593882826029602
0.0600171058521546
0.0615667835668421
0.0606724682138512
0.059569921564191
0.0592570781681683
0.055484306483924
0.0607486677079307
0.0582631869642015
0.0574960181406338
0.0565443404332511
0.0625962312156413
0.0586852673135954
0.0487670572391436
0.068153462701772
0.0584034988912542
0.0614558024584208
0.0547502091711603
0.0607256579568631
0.0529788932546715
0.0587858361868087
0.0559822104417126
0.0587275767767988
0.0557904121863447
0.0575156578919854
0.0525326091112038
0.0570764209154561
0.0548743881981162
0.0592408689660502
0.0550439265219056
0.0591660629964385
0.054318038747592
0.0583210303301378
0.0522272179935514
0.0538161455807478
0.0603514572896279
0.0633233094414307
0.0550083905681674
0.062730329452247
0.0385029493325887
0.0684815425744962
0.0621672098881169
0.0576427473828673
0.0550705574863438
0.0579864820532882
0.0543966076714814
0.0561040965811947
0.0573801197492164
0.0539540158596338
0.0635838507720386
0.0549029701674437
0.0570000137347465
0.0527285532898773
0.0545538128491697
0.0541031225802982
0.0539859296032336
0.0553051944968419
0.0553896987150779
0.0548072520864954
0.0570465566231646
0.058206061844979
0.0556131937308284
0.058223562730157
0.0536513188147442
0.0526733532231344
0.0583085392169966
0.0564953456873435
0.0556714341868933
0.0565418839415464
0.0521667649033223
0.0476918150333323
0.0726913653084984
0.0568723172920874
0.0612020480188983
0.0551323997584033
0.055019037203491
0.0539461789764424
0.0555657162619419
0.0546701115996718
0.0581591744777316
0.0551165406045332
0.0533609302987589
0.0547357800218784
0.0557245632045246
0.0578012153349551
0.058008696927859
0.0576098837903823
0.0525991912131848
0.0576880404467085
0.0545949663359236
0.0596108267204328
0.0451905775731217
0.0499830374418195
0.0641452665053921
0.0562114321314793
0.0615546157116951
0.0559333410859278
0.0587588176375396
0.054451534934127
0.0612109503786233
0.0534551870917664
0.0568734684246931
0.0542713398905183
0.0598018130577628
0.0556535026943743
0.0598294799636975
0.0534263620136371
0.0600809649584868
0.0524129628591623
0.0574285261050928
0.0552726146556258
0.0595770265472235
0.051037442974433
0.0601802236277176
0.0471391733721078
0.0601556690928875
0.0560109729428879
0.0624456341673512
0.0358290714573765
0.0545941197348849
0.0790935128583261
0.0517385579365548
0.0693964688088397
0.0556829930269833
0.0617027803873612
0.0543591861820431
0.056339077659524
0.0607446363739741
0.058425632257504
0.0532176779396493
0.0606328986304737
0.0577171761321531
0.0615993021743845
0.048868163880082
0.0440014508141827
0.0774559129456929
0.0611871432412126
0.059196633045083
0.0579325332001236
0.0407815323748058
0.0807589113989631
0.056785457898043
0.059941983997541
0.0602889477584693
0.0607613855968218
0.0599014492088315
0.0628801911549814
0.0562763716533606
0.0612436408676725
0.0634350518661849
0.0549023040535518
0.0616719538770151
0.0554383640943419
0.0623633990315001
0.058480405996771
0.0566152297104707
0.0723505506942316
0.0618867250187743
0.0615329266885669
0.0651010397999448
0.0602632369598842
0.0633035375424209
0.0646446154182565
0.0571575580987461
0.0559420997647593
0.0719423051173437
0.0538629962790929
0.0619592072481682
0.0740241665197428
0.061711337912826
0.0638389266013557
0.062968005430221
0.0727182416574684
0.0628860270896951
0.0365527106558876
0.088380004409964
0.0563108644432268
0.085922831801244
0.0600704278846767
0.0723497693037421
0.0595476657452509
0.0749969977171254
0.0547207272213441
0.08014615396119
0.0695556696887685
0.0724689237610522
0.067146367003327
0.0572891439491026
0.0745255345507563
0.069523472572575
0.0748138764936081
0.0667848957300506
0.0635918021530123
0.0699462461815222
0.0783377821173907
0.0419693327427759
0.0842641931301201
0.0766407130126014
0.0805698955447901
0.0822452315058374
0.0464456953393685
0.0919800538903818
0.0796881329116282
0.0752462812197817
0.0744676024376391
0.0734744953491812
0.0758519388367233
0.0531897052195385
0.0948484527460327
0.0833185822677116
0.0680089185311112
0.0871032620423167
0.0625519774638208
0.0811474127155513
0.0883303271540895
0.0803373200695214
0.0787433508202567
0.0858255298961222
0.0600677653371989
0.0789581477480554
0.103487420731819
0.0627267613029549
0.106573176363637
0.0771947188871346
0.0965811398767074
0.0820582526228576
0.0908674146200895
0.0779007271011806
0.101873403104513
0.0898487349987243
0.0874443390094732
0.0717647992777398
0.122000798059088
0.0889150761693088
0.105647507542799
0.0945406876553646
0.0787662037576009
0.0758799531066853
0.128755425444363
0.114401732532019
0.114641035495635
0.0878150816884911
0.112525546494072
0.11388145499818
0.110403053451028
0.111466117263958
0.110634966686929
0.111297435883725
0.108062511912067
0.112924658967247
0.114874221202375
0.116973611926271
0.126114478865231
0.0994777151571097
0.117660359729102
0.113849131292466
0.160278861428111
0.113384311510466
0.136627093993393
0.142224953470481
0.132497728388709
0.135193193753735
0.127959156728135
0.137624864959318
0.142625960346887
0.144586415555455
0.130906649070809
0.139994034095061
0.154346640139527
0.126919058885254
0.175087728251197
0.143115769862323
0.155163222165971
0.0673275074375735
0.254222142684638
0.194246237447167
0.165366879733535
0.171772297361021
0.123692758286813
0.238037198218879
0.19732552274866
0.191438446973442
0.198056505179456
0.200013931940754
0.199910237701909
0.212102109117485
0.207564579650571
0.222621205702452
0.232053670289109
0.216056186552081
0.20581128086277
0.266149310535844
0.267198219280026
0.276960703029454
0.253559163780719
0.268169552891921
0.282716613848417
0.276454344874476
0.281116009197342
0.290579441926063
0.249405817687745
0.361948791650452
0.3085769757381
0.326286051136457
0.310607627459588
0.34814335531428
0.322074014453432
0.335530529420726
0.385590292537471
0.35452755113304
0.382194609030739
0.361527668727516
0.390235321938603
0.358949669404308
0.395110787112736
0.416154953356621
0.410584458037953
0.420200292266083
0.418025435044992
0.428897838775328
0.427190754016275
0.439211866632356
0.412180367333817
0.427195972962067
0.426143076873279
0.509443085226432
0.505783502963152
0.446666002535113
0.471253937342342
0.431054827183116
0.470637207697325
0.450346255841951
0.46393462784524
0.502587728272029
0.460871444201308
0.467032167197621
0.468999726287898
0.475259682619811
0.467276924108578
0.4821764903967
0.463535991953008
0.470234384318228
0.477582155328752
0.436187828172497
0.567435438393009
0.48629224817302
0.4903655019586
0.471824859720415
0.481952842524936
0.472297134984331
0.473109710817667
0.439994610857213
0.485645512192656
0.468496747836986
0.479257073695929
0.454705747307568
0.451548462559683
0.477908132153879
0.449603825965416
0.445762594206034
0.448755446613249
0.449211456986625
0.433596092705318
0.391742619842946
0.486948858388165
0.434617939859417
0.431942611370765
0.430501870194553
0.425347295215033
0.416630222834369
0.409784561105326
0.41303268673055
0.427765152720354
0.407510399609027
0.421620008400887
0.415415922708153
0.405331120235236
0.413032656004805
0.422197449210927
0.422330089065217
0.407772485087968
0.407015943089519
0.410038656686421
0.41655549354651
0.406778857948065
0.406093092098067
0.406536864628618
0.41108035170102
0.417187501626531
0.413406332025263
0.411720262882235
0.409926431800183
0.414773918478103
0.406090622455178
0.395792653146945
0.404815564838587
0.403614222990936
0.406647540475342
0.40476704568773
0.404646316192672
0.400743822745228
0.404568477781167
0.398368600469175
0.398452666029081
0.395516953465357
0.399156296098023
0.365732959789954
0.420834865924018
0.428571955287739
0.377642153451141
0.391893454231499
0.372700267453227
0.385394742865379
0.35658354039916
0.374779625933412
0.397249764196633
0.36720928155956
0.368214007600571
0.359961284399157
0.359888076359943
0.37813515106477
0.348047471119288
0.348884335437669
0.33448577694692
0.318172912372415
0.39849767880465
0.30774991390247
0.42043675046482
0.35220824613847
0.336247509994859
0.311973655210352
0.370852946459032
0.335813974388725
0.329753515816629
0.320454362628427
0.31922358860058
0.348018405973296
0.311393364447989
0.320553170616614
0.306092862040712
0.29412493021453
0.327309633646996
0.309172963210353
0.299043860464504
0.337410729324614
0.296911819880009
0.281261169778491
0.334447000166853
0.321379498647568
0.292670841531738
0.288674161310784
0.286657956047008
0.259775374593949
0.306115792711345
0.303081129442346
0.275373217317379
0.287340448623776
0.26892041405878
0.279197225786159
0.270437705533286
0.275213083865277
0.244997293213855
0.283921226528302
0.268087813605439
0.247160399905208
0.272248188904337
0.25094706639259
0.302921894147266
0.263513275330622
0.249760571532585
0.234474001964411
0.283358842064596
0.253761160723534
0.259921124496917
0.252011831813902
0.234252796933344
0.260407586633527
0.247671206974719
0.225200290214843
0.252004778876033
0.223978575124852
0.232372631201328
0.256869003527321
0.271908574628019
0.253660371317694
0.234769198777097
0.236095056103769
0.237927059151303
0.238166918773014
0.234768833360624
0.214414054485347
0.260481600190606
0.209602685049602
0.259875500499916
0.257527826173926
0.238015499321095
0.246727986640039
0.249069155634231
0.236771284270138
0.25138552271974
0.261937913744516
0.266511076786646
0.241486101226577
0.281393747666199
0.26146781439802
0.2708725026352
0.271301240740068
0.274680272736413
0.273430214266974
0.287652295861244
0.289016897510266
0.292211222566796
0.292937974373313
0.300420239928228
0.293799975739612
0.339313791558918
0.304732550500631
0.301676054837409
0.346667805200383
0.339092883088454
0.365822570330442
0.343910692221064
0.359228738870932
0.358813636090121
0.372281760379809
0.367402179659767
0.353729035492547
0.403603429357775
0.384596308055798
0.382325725393605
0.398751281941639
0.393349151315086
0.391500630269694
0.397283052100726
0.417899309988464
0.399331835756997
0.461145585285535
0.419110288230987
0.427499914200484
0.420058137296104
0.420916946339427
0.436219605329998
0.430389976143051
0.428518749895266
0.424065151434555
0.450122387976284
0.437627662046395
0.43216013269724
0.447194538803829
0.441522275479513
0.443503879488852
0.450381836038717
0.451222782436391
0.453145519678828
0.448419027690922
0.452292951923232
0.439187800396175
0.498694575626105
0.49088761385551
0.468208435075383
0.486976556051277
0.480117696469774
0.4906925724278
0.479015550682088
0.488214811282128
0.502612519382314
0.498638694854734
0.509988087722198
0.500605272012895
0.505686042833357
0.507735814901033
0.526269923452143
0.52068550311305
0.517175792574601
0.517181854853577
0.499736249851433
0.571860492790277
0.527006171266282
0.543053600817025
0.542386438610788
0.536606470791933
0.551131099202207
0.543998010433648
0.545663809794211
0.549955537402134
0.552208934767385
0.545971854903069
0.549911659870285
0.553767186707649
0.548659077943399
0.544464839441527
0.564495189151597
0.553360115022768
0.544708207494074
0.555047259829732
0.549380467398129
0.538459478902622
0.545438916413446
0.563917673738614
0.546706998612156
0.545064299887341
0.541495428595653
0.560230506403605
0.55832155761522
0.543130523962043
0.545008374802132
0.545751743042352
0.542774750111829
0.548768694420778
0.548959956770953
0.574163322374246
0.565429717866798
0.562989804364365
0.557087695352535
0.566373512068156
0.563884249497278
0.568388050026105
0.576676588673217
0.578638302018057
0.579589307300135
0.576979777779108
0.581982069844027
0.574662951129635
0.582273997149656
0.578615212942199
0.585950151032313
0.579331244707389
0.578208303588961
0.576377131205355
0.573702612718361
0.575974743710228
0.567799843973716
0.570739241834844
0.566575882086281
0.550404352174213
0.54328525858272
0.551770763770816
0.550581518173268
0.540797157071331
0.551014639137453
0.532719609119346
0.532918596842741
0.525669406855473
0.526009203395024
0.530582628338769
0.513205263041372
0.515627751234951
0.515825315024396
0.5106727569894
0.510925453221588
0.508206058049599
0.508168912837526
0.512779569747522
0.50580592017387
0.504985500285862
0.506227840427262
0.503857670654284
0.500936351694866
0.495971355403955
0.493955436412853
0.503274353959213
0.506568495979925
0.491904002113295
0.501258095786421
0.49398896234973
0.502318085978947
0.501210060299435
0.499661939772707
0.498144249029541
0.497507505193635
0.492616118179169
0.501837235656301
0.500757619186858
0.497925161227573
0.499489186889747
0.495066406186216
0.49988978163977
0.495292881105812
0.498166992175461
0.493420700675938
0.491146030602442
0.496192304279423
0.49516636862346
0.486028911699464
0.495091181138678
0.493782505040975
0.498117177048059
0.493864903809083
0.488439478675579
0.488045781591909
0.498459982726305
0.490726295802492
0.498582846328452
0.492071445414911
0.489266626868376
0.494974272568189
0.489455384730446
0.492416837134514
0.492490850474266
0.488527696615095
0.491520197455934
0.481223026587523
0.478990926044913
0.477665751192031
0.47373509006228
0.46711910684207
0.468902761132579
0.463979441081249
0.461183623592888
0.455875611723675
0.449470889646498
0.446711126484911
0.445103446475774
0.444224774523177
0.44454705753225
0.439186142925438
0.43255664643726
0.439128868484742
0.436142972407106
0.431293892085149
0.432610092956493
0.430390781275607
0.432669450083141
0.426624595911931
0.431334133275217
0.423892673030894
0.430530501323943
0.429593667436129
0.430561463975079
0.428281708373486
0.433125960632066
0.432825005852125
0.430952853540631
0.431932836471622
0.432455429260059
0.441553388665124
0.435672966621057
0.440743572457708
0.439340342442934
0.442795138494961
0.446601122047135
0.449194736215121
0.454697903760455
0.451968339796067
0.452123300326438
0.448338679001457
0.453492087226904
0.45798300363198
0.457497110374563
0.452490965103784
0.455895187222911
0.455595949321554
0.453958560667439
0.452933719730312
0.451370628981729
0.453129737696485
0.451163250513157
0.445491612569935
0.444063888190618
0.448203430260058
0.44502607539172
0.447917338543295
0.440838233928211
0.440310465880058
0.442510887957837
0.439471829867174
0.435902448445795
0.433572778811433
0.432725591532492
0.431449545184451
0.426097896824356
0.430027710113008
0.423093011795623
0.427915832462238
0.423737690958312
0.424759210512683
0.424286466495308
0.419365247768045
0.419546087866513
0.417164904591965
0.41783672761625
0.418370135846796
0.412350612338783
0.415123348661293
0.414883121706955
0.410769351874333
0.413280190503694
0.410498054430731
0.406915594518176
0.406325500483668
0.405044439857226
0.404273037454382
0.397977957358008
0.395868754671828
0.392672904070858
0.393360037901363
0.384438231028715
0.384864037714203
0.384827991669111
0.378603249044149
0.37779806494693
0.375534737038312
0.370194359990662
0.368768587503635
0.368336807996814
0.365658626965866
0.366898929473718
0.363513377603844
0.361647420395545
0.361528040532497
0.359450326228438
0.358975907791542
0.358808347396131
0.357805161221864
0.355000421262138
0.352573972035237
0.349785418949659
0.345947935110929
0.340332634354181
0.33905261298363
0.334328272887499
0.328368582574242
0.324159572530316
0.321871283924011
0.317375351333739
0.315076988311235
0.317040508102665
0.317210615188354
0.319827845931028
0.320461258871043
0.323317371756582
0.331075923934274
0.338744154175247
0.347529786069345
0.35819767621741
0.366625099620341
0.375636592578254
0.394717300646766
0.406681357635993
0.420982891485592
0.432888852200188
0.452953822345099
0.467642240803807
0.482260128542536
0.491341630472605
0.507663658122579
0.521562906983007
0.542449424713298
0.552530599119869
0.567830871656167
0.586198370405213
0.59004005861662
0.606789216432618
0.62074067268242
0.632309974699617
0.635346069615268
0.646271763051909
0.659999347210203
0.667698071788301
0.673398346358124
0.676609395591037
0.687080652256922
0.687430030931835
0.698976632482561
0.699395872103592
0.701906536232578
0.706963219056819
0.709651252920298
0.701930758291614
0.70632486936101
0.70917344101051
0.707187789409233
0.713685591263406
0.709717125259243
0.710350013557191
0.715148298028813
0.714382770672177
0.724419115849869
0.72185929354279
0.727254964762611
0.730893041633008
0.736462323408044
0.750447131307224
0.743987403938575
0.751698504155722
0.761233069440372
0.764919428484795
0.772777906453102
0.779054318417316
0.790530054432544
0.788894063781248
0.813443694191661
0.820116656982308
0.830050686508346
0.843244155192192
0.852343957221533
0.877635680422816
0.880254867069044
0.884870201933064
0.883980558912792
0.885133693431095
0.891322890904029
0.904471132917673
0.911751401208317
0.90532253577722
0.909371197492725
0.91881188693997
0.902850314263315
0.885581682647106
0.889552662861867
0.893971695885096
0.886212961143522
0.883405441693413
0.897330167542263
0.888886410839515
0.915450982311942
0.918682146281445
0.927372748839608
0.93711805427407
0.949513130158839
0.961903373572556
0.98271335954612
0.993945950284756
1.00790487623175
1.0238837362435
1.03142054416678
1.04153452777156
1.04059250360278
1.06391820115956
1.09573993841728
1.08465048173509
1.11644852352796
1.12846268719994
1.15879870339331
1.17251439385059
1.17813926763006
1.208576483834
1.20564914853892
1.25662740953223
1.27702433637478
1.28687543213867
1.34901155055798
1.35272412208468
1.33609544590553
1.35911136764364
1.40584180298802
1.45326411173892
1.36714347554383
1.42068774460387
1.4396272746183
1.4956742272899
1.49739667262969
1.49088160578432
1.48701001405991
1.48195079562908
1.53955067586159
1.50151801723409
1.47885372222325
1.51750914508242
1.4624031528916
1.51057192730773
1.47564758094721
1.54001822345025
1.53814522807683
1.59911977972842
1.53520044640483
1.5849207178597
1.48815213699767
1.44343043985909
1.50240841989646
1.58180688181992
1.55766792798146
1.57801308219903
1.52613944903799
1.67405612197386
1.60644824859224
1.65148262011709
1.69986321640148
1.64332443780009
1.66585198634451
1.67953785674718
1.78809110819086
1.74986096652884
1.63490947601963
1.76157743201608
1.76937479530869
1.67661104487954
1.56665684531612
1.76920617249141
1.97402334525359
1.77462888462474
1.78455155329146
1.84406062565037
1.71203393750249
1.85195409709042
1.8871762962481
1.82410070424467
1.79726056920236
2.14582128645112
1.83631310677699
1.83897329624621
1.82167435155673
1.80128922502755
1.89751492273263
1.86536257986473
1.84671936795376
1.84190034955607
1.73447798424094
1.88999199657871
1.80592677547183
1.94088880432844
1.79307853901221
1.86228572745467
1.72307567090824
1.85078613956427
1.61900474201817
1.75102272424702
1.55961841225984
1.60377749229444
1.48465440605647
1.49324260122041
1.47493468515093
1.43294801104723
1.40041561364033
1.31882876956347
1.35053328886071
1.33551023939666
1.30080979259377
1.30828687970061
1.32786705764375
1.28703606218477
1.24310266695805
1.30031369926237
1.26700404124904
1.23672130700209
1.25072880626285
1.22164201235928
1.22516807324527
1.21349358485476
1.19073421212821
1.20063116023659
1.17742986128628
1.15579766270237
1.14520865479382
1.11852940876191
1.0436398462428
1.00881866116274
0.988755020805913
0.990137278285551
0.94351723178264
0.912593082999259
0.863036556725718
0.819419166151678
0.78559741244714
0.774295576139687
0.743392581349424
0.698715777544725
0.659315840956807
0.644459725456628
0.62657668829662
0.597997055564828
0.584849956397494
0.560942424231001
0.54021922324566
0.530753625647751
0.518795923014822
0.51049249416075
0.488485399326656
0.484121581106146
0.482131921270322
0.471937020759296
0.469787001249616
0.46340993526064
0.459856075863915
0.464823020566054
0.458976642300497
0.45333068464927
0.463098892474724
0.457303582040188
0.457503433247714
0.466649177982941
0.465291279003734
0.460392129643111
0.463167993621544
0.478559710002494
0.459103038661353
0.460290121920105
0.462689397862938
0.458616048041441
0.444870397871395
0.445392438595069
0.434081954134789
0.440268802317188
0.436001751533719
0.435104556511948
0.428256984737926
0.424990455880619
0.426278158812136
0.427172937529827
0.423190838322406
0.428029082199843
0.424850921160714
0.42788036076275
0.425654588145516
0.433019859286256
0.435828373289152
0.436910117726331
0.441032636789249
0.445368561828446
0.449985737868705
0.447039343365592
0.448509164631181
0.456713173151593
0.45293300932423
0.459481757515893
0.463739753362358
0.463305815489849
0.459607157785636
0.455977453383844
0.465378725953021
0.462111459759898
0.453838306517056
0.467084346417319
0.456165367669203
0.475472783787543
0.4755319251613
0.473495933991749
0.474505985019575
0.482100619231243
0.492763358729194
0.501862922054715
0.508823087287533
0.523889452569182
0.535372859467578
0.538152918340359
0.563466018561632
0.586297337789747
0.580262518464619
0.596249994945974
0.602486507833252
0.59990428579264
0.599543558643214
0.620664632250506
0.601815038109928
0.605786855262026
0.590146122546395
0.585966697742877
0.572016744475825
0.557367426434552
0.561209115510694
0.574921236622078
0.54945797697848
0.546497480247582
0.547360862588831
0.55523221871567
0.542239739210858
0.556567247679627
0.549091892588057
0.55736636782331
0.553130607868368
0.577342619516276
0.544326718812279
0.54918629163769
0.54765367411906
0.543410160251352
0.538634651917059
0.532130109281301
0.517732166963755
0.527315882401865
0.5142639460326
0.516079939153912
0.503109189354578
0.504039360382705
0.505499052086475
0.508387576304814
0.488494394295118
0.491875903816344
0.501052133589019
0.501967308335698
0.481110263434177
0.49423163185698
0.494724770215367
0.497514184718569
0.482861799421317
0.472401508146089
0.470661230433963
0.480123565452531
0.482353908889589
0.459857140702301
0.471899444788136
0.475598475588082
0.458147201036171
0.455806462397911
0.46155964718111
0.458224841256535
0.455875140865827
0.46444146302172
0.467792244222011
0.451883037458384
0.442350224324516
0.45736587941225
0.452084921486612
0.450060417419861
0.442948862226103
0.43898490810441
0.452587818656299
0.441993714051404
0.440406853921145
0.445688498595332
0.440721079313269
0.438978468494383
0.449606503735353
0.453319508024502
0.443838290453159
0.455857931444683
0.458317006913005
0.449058807581131
0.442851351571242
0.463442210992926
0.448491058984332
0.442236654684021
0.440073222570423
0.4453153451806
0.437457373675604
0.47959582725038
0.454086935046477
0.474002913658066
0.451622755783662
0.468325212584312
0.454994438332473
0.477526018216746
0.474727732246877
0.50811982712721
0.480996943566496
0.480651166510767
0.497367629883315
0.509631868493928
0.472040966947942
0.512235872820407
0.533402913348593
0.529067310899434
0.523922299748147
0.540867077610416
0.570968938882526
0.578029354949532
0.581344102539184
0.601000773761935
0.586922200310749
0.655385588424148
0.661322249903364
0.625954711749328
0.668532326923854
0.710265912553041
0.684577924988683
0.732179778717597
0.744609979210519
0.741408148461497
0.761497950358514
0.78068094916438
0.745222302827207
0.724650011306482
0.717403019589766
0.73578604315043
0.704180015245673
0.745638439887767
0.712885699101361
0.694948409091559
0.710051789663413
0.763435944137497
0.731790192583616
0.747101623052322
0.724252831188361
0.76255594105444
0.666448830030192
0.683942954553987
0.75128288030771
0.723737208216572
0.688258980699415
0.764888529844985
0.73062176783754
0.738210684037217
0.672779277626723
0.678752947811294
0.719564559016273
0.679315853455326
0.679685774006142
0.688980387862532
0.635639569133115
0.714299791231426
0.691612757290969
0.682569912278537
0.659164970911111
0.682231330189297
0.674676440381985
0.671732243759977
0.643079701176638
0.681919758095467
0.686163955008838
0.707800189405937
0.637312891592064
0.664531554948295
0.631971686481139
0.766967594327368
0.671711923622409
0.691870532579632
0.664020844771248
0.783078163203767
0.663533177597585
0.649156141026754
0.645102874350048
0.702625761088208
0.663736347217748
0.699650816143878
0.71419474282711
0.722687748853216
0.685209666563098
0.679340241351096
0.722796603870186
0.762208453099719
0.656904393476062
0.751204104365835
0.749283305941943
0.723946978091016
0.652098700122906
0.716382409837524
0.784110621095827
0.718794771574533
0.729281296953458
0.793196537006972
0.791635823046951
0.751906656129123
0.710461653958542
0.764224158787301
0.679094582605513
0.86674941053571
0.839017694193776
0.824108447544083
0.927584064046472
0.827519399624116
0.791982805093235
0.797881696564075
0.839271590999308
0.92941240092017
0.746313695327764
0.909395102465317
1.03984993749502
0.851212207066514
0.838517656438265
0.991266621817211
1.00585652895225
1.0598715070914
0.888588302162424
1.0598373070676
0.809502206174858
0.893900663922085
0.873299467340941
0.979396048998867
1.01213247078198
0.772173131412581
0.740408550984658
0.927569674289257
0.728273398989478
0.802349467430882
0.847980441668254
1.13012093672125
0.757974887704266
0.887379829969617
0.874656761168184
0.970949530052291
0.821091415834443
1.04972003963
0.945130741311042
0.809443272280669
1.41137288458381
1.01604193913346
0.67957676147248
0.79083805354613
0.743926471004028
2.01957658838496
1.33325718017089
0.988621745581575
0.662627780423651
1.33399442701418
0.676440405572507
0.661435892435873
0.521973767006339
0.589485148529222
1.13515269639476
1.0619226156671
1.08005300905548
5
1.0876134385125
5
5
1.00421604516303
1.04118754783694
0.943967653000638
0.847929265021702
0.540702761816807
0.455654601174795
1.1533487097058
0.459420875347667
