3596
4000.36533379555
650.420452594757
1
2
2
0.0717256459753184
0.0497966913598844
0.0726024948125499
0.059082325165736
0.0717958062992047
0.0616705177139261
0.0822652804760525
0.0613256800552542
0.0776501839449205
0.064069632126027
0.0724217838501422
0.0606962459988258
0.0756797080537803
0.0574814062184013
0.0729271438964959
0.0553789278765226
0.0761735313849421
0.0554572355975599
0.0787197430770181
0.0603776642921296
0.0775862457029526
0.0685091508965475
0.0819480870460201
0.0546762545404845
0.0761608625025046
0.0709702268009987
0.0723027003704543
0.0507111844405658
0.0872584532064652
0.0627339909603187
0.0798830646800105
0.0652066554476393
0.0710352340457858
0.0568548135367844
0.0796527085779085
0.0579741476009758
0.0780460989237998
0.0603716487087811
0.080009140565735
0.0547772045634924
0.0864016641635579
0.0563664787955439
0.0714910179691042
0.0620509377084924
0.0733847027191107
0.0670428637468578
0.0751142492507825
0.0691172984917177
0.0733892191001859
0.067386891880057
0.0868595611788778
0.048390195109036
0.0784004543613539
0.0664771416030363
0.0682759774574672
0.072673070834955
0.0734596850754598
0.0650860625765583
0.0726772818527768
0.0434131454713493
0.0795023613232169
0.0725892145805311
0.0596468158803549
0.0621500180166662
0.0710584047429683
0.0608218186125934
0.0709123831170879
0.0671293308742446
0.0599742476989955
0.0567334490089058
0.0506212558893401
0.0655830166661706
0.0891477768759072
0.0636790936982417
0.0778968581954587
0.0655513131512677
0.0786339174318892
0.0659774009008636
0.0551425797861787
0.0539381537270752
0.0720899083725036
0.0710503775997324
0.0699866616276161
0.0521803344426056
0.0512230300307822
0.073120281339014
0.0619163774885599
0.0441036585905471
0.0980586224695082
0.0713016219073735
0.0700735753278265
0.0539551679605669
0.0680401122165459
0.0548383801306195
0.06582730826304
0.0564132818103013
0.0749823947889905
0.0517457283858287
0.0676970782559695
0.0365442150790178
0.0743691912443499
0.00873513705494121
0.115776930270616
0.0287478098778599
0.119098619217964
0.0742942130565406
0.0199050047636061
0.0945675186364847
0.0851652262682974
0.0637009648861172
0.0616023182191888
0.0619777731601491
0.0663799760033709
0.0611466762115877
0.0501959402996418
0.0421148607084439
0.100040640635021
0.0619178110677369
0.0654446243435309
0.0545798980872592
0.0386093025218558
0.0386514581143752
0.120301607995908
0.0497006760999885
0.0837934889219701
0.0560201893192003
0.0338303116084518
0.0544662601089648
0.105626104126172
0.050588285839094
0.0711955079528335
0.0449130531969025
0.0680851274937331
0.0107630587258105
0.104278229407854
0.0616290682044179
0.0589786922283112
0.027420589721018
0.0635390355084392
0.100614841001248
0.0863263572527679
0.0554101780081348
0.0482029745079177
0.0271505632450331
0.0990115075529879
0.0632901729031608
0.0535816461296936
0.0548449636042576
0.0885073565147442
0.037551399611115
0.0689830728971698
0.0317906729515225
0.0811650059139823
0.0563309406892687
0.00632530326322847
0.0334103752212125
0.144914307605207
0.00218255752755118
0.139158388642518
0.0529967700002076
0.0745336054633341
0.0508376949993908
0.065522710000251
0.0439434190810395
0.0529374000391849
0.0499942467713104
0.0465076036393477
0.0736027666261372
0.0483239191234736
0.0418602934909341
0.0878686405085516
0.0594991534160077
0.0374433690815697
0.122198126963198
0.0966553113104925
0.0245625159297214
0.0976651550835611
0.0637935482150807
0.0531331936712052
0.0360912505981779
0.100567825516399
0.0589221854629325
0.0659773095028331
0.0389561710917831
0.0480738477589685
0.0659170792580484
0.075704456215249
0.0541760309153796
0.0790906140129096
0.0145015984327662
0.0558601992151372
0.0858695743142794
0.111936000937306
0.0483810153312026
0.0650249403002353
-0.00448160731026582
0.0696468865103142
0.0963275224176761
0.0684204527065441
0.0609092820380628
0.0629546608030168
0.0507369445448007
0.060707390218814
0.0497418449716154
0.0564010101362287
-0.00387489316593993
0.0990396685133415
0.0876459309056014
0.0577959470801442
0.0486187332194273
0.0561351713545058
0.0190377523139697
0.0838580522264917
0.0967477977200465
0.0573854536980839
0.0623859807446782
0.0397440063789718
0.0545489475736382
0.0902273939425409
0.062498467815384
0.0775790642720144
0.064326164301907
0.0708482432659656
0.0567170426861414
0.0608438112978748
0.0598785423324056
0.071995386151444
0.0498876326704006
0.0572735004622109
0.0619246892792227
0.0781524883737628
0.0647529301342091
0.0725791487207384
0.0586419147231103
0.0544844271306322
0.0377917725239941
0.100745901328377
0.0676616810817517
0.0727882355827017
0.0516427591590159
0.0663447300678913
0.0555513060032148
0.0652773227621004
0.05468447587899
0.0633646505947311
0.0256885819375614
0.0882389668360098
0.069929159372646
0.0637822634506555
0.0477084298209066
0.0706657776107825
0.0919188005816493
0.0617642519871234
0.068299762191529
0.067978082152483
0.052234032047482
0.0391302191485459
0.0846723022135302
0.0717992726009866
0.0427485811088384
0.0627514044751286
0.0801272030727224
0.0621955865187029
0.0449867206808838
0.0143545568475551
0.107702517587752
0.0847951332094551
0.00805081515030462
0.114067001349925
0.0872443678437473
0.0706647960631245
0.0580252607911975
-0.0194901916821904
0.123833994597201
0.128968325147982
0.0634730800315282
0.0540483631432823
0.0767483470091505
0.0689161912255973
0.0546726699050836
0.0817793494279229
0.0487009387472346
0.0965416521908308
0.0716819029146052
0.113779000902493
0.0401640295458597
0.0589480434646545
0.0974956346647106
0.0601435641179936
0.0704543889900713
0.0671241365329491
0.0568119962910442
0.0735613632667034
0.0964006182423421
0.073210532837953
0.0820473822006784
0.0640122037573158
0.0955338037478428
0.0849382988698096
0.0607788517114942
0.0716576520377394
0.078470208840443
0.0750860535877395
0.0826642430372793
0.0701450914736322
0.069965664800031
0.0656767584303278
0.0433680969584799
0.124197942730785
0.0809861098929334
0.0550826278541721
0.100156217898965
0.0864076224688515
0.0721488436953958
0.077067375779994
0.0783826947282697
0.0807581325287578
0.060338112858824
0.0690396688202474
0.0955460102820986
0.0931341845753137
0.0806154576498983
0.0890683015155554
0.0709818641274245
0.0797202777986161
0.0840038783152706
0.0829345091437066
0.0843606451530987
0.0866095125078737
0.0559147312446722
0.0834683877343139
0.096441282526616
0.0717924680679029
0.0746608763146212
0.13591870452115
0.0894044727572359
0.100741830106002
0.0891300831968316
0.0936897522065548
0.0873378383836724
0.0955855811225187
0.0806729686441037
0.0856575563426635
0.112005063422236
0.109748963026652
0.0699681306498173
0.0689018188755052
0.13313975891284
0.149477790209676
0.12581555260729
0.102087732271961
0.0722282288418183
0.10100782410935
0.138354735358654
0.110264513443905
0.14266982544488
0.122311922270662
0.114926754261924
0.127831424122641
0.107599615448016
0.132492889945775
0.132783706435616
0.127674741152794
0.119280794393914
0.128534348396651
0.129307582644327
0.132123436016413
0.113420554350074
0.175154258552966
0.156390522061157
0.149922010472233
0.142272410364336
0.134308378287018
0.131310537802506
0.174935345103844
0.149072117250833
0.180870202285489
0.162176375726674
0.201639810238366
0.176099285371493
0.166343067390206
0.17318724037089
0.170467666518123
0.179644979475048
0.18586865518751
0.184048151095643
0.184779154848175
0.19713218964136
0.20048124357575
0.192407150025915
0.185616077474379
0.201535999700311
0.225511576346205
0.217334298137482
0.199035663477599
0.194377134226379
0.179104235991799
0.267336105334926
0.2606354280091
0.249469424120582
0.224103536481248
0.231124833982953
0.23552401528606
0.245148201807686
0.231283827698949
0.236204752524666
0.245442049945565
0.265296065830175
0.272310770851464
0.274322354462711
0.286668925057175
0.271466388623521
0.278989166409112
0.286778345795965
0.266448149022534
0.306122353835045
0.286291366422142
0.279541817201109
0.309868492273589
0.324276226230683
0.287209957139822
0.317013852974447
0.308794902473884
0.317571381341442
0.327344095576178
0.314242686086779
0.322239322493743
0.327848920380207
0.349963982485606
0.342079464827085
0.331120600059864
0.346193308671828
0.339081737038902
0.36245999212616
0.372400917262567
0.348831903394118
0.364234115753607
0.378452806621387
0.363543129644239
0.388278004405041
0.376917044848442
0.392739292375204
0.391505744753507
0.442297094599475
0.408413935422917
0.41492751885652
0.428028561409208
0.410443617510339
0.422428359650001
0.424555835054421
0.441208505685547
0.421791808530225
0.41086611750686
0.455398124427463
0.440151347849852
0.47419657938465
0.466960337404309
0.482220208757217
0.456667511863291
0.464452894093052
0.462963793818778
0.469629428604473
0.490995599505927
0.522102092015414
0.529076587388699
0.527685992747754
0.488270844197757
0.521643905627808
0.496959492502822
0.53845089687932
0.499636477754353
0.545811644607429
0.561810126771701
0.539589901797123
0.511576789505879
0.539702966172668
0.55532314909815
0.581922631980532
0.561752059317097
0.544458964791172
0.567835723452116
0.55990248100714
0.555355657809598
0.608449566436103
0.593876078798535
0.598904200429922
0.579712604784829
0.620300186277158
0.625058221751872
0.644331841155545
0.588790599383399
0.644969281470557
0.66093402545041
0.651701423333968
0.633247418486546
0.643147835088963
0.631736845971974
0.688056836334917
0.632099497640639
0.690668815211767
0.66346922957482
0.663329695065969
0.724571620482254
0.718934489379782
0.646190289525616
0.711867717926464
0.664980157276332
0.722554581240184
0.688459662518214
0.748144888892954
0.736220328072884
0.738508135697081
0.741465492735601
0.776474623273419
0.732017988502374
0.737592584010431
0.708697637544284
0.767615597881818
0.765311319005699
0.803637355927403
0.770460790549429
0.786601053609817
0.77920340466102
0.853490926123726
0.773242524805264
0.794264699571377
0.815700318084473
0.822071202522718
0.761379777960973
0.855025288876881
0.846162247883758
0.809469098885035
0.762208972949854
0.871046936513393
0.810969572973804
0.957348262412726
0.850886087989899
0.848932100792586
0.859422570672676
0.879059135169492
0.815003743925611
0.895935499223807
0.84159681626084
0.8868561769093
0.926593013091665
1.03565027661391
0.872351567150982
0.877604878989605
0.919982876269296
0.993535239598302
0.893196637406359
0.999369911680638
0.880718045024902
0.945338263600062
0.928137009115824
0.983200280838653
0.86563787815023
0.99616698786479
1.01071670802302
1.09155634910033
1.00915807762385
1.07815100707019
0.944556064065835
0.986982241796909
0.992646421954558
1.00646174563206
0.957132719530128
1.03584073505309
0.998887933950554
1.07183368492371
1.06832142936857
1.14916233960071
0.91255732557558
1.04800196235093
0.98685773111555
1.07343130605581
1.10495210341572
1.1520514656907
1.06742300777693
1.11160350334656
1.0817837507927
1.14567127216065
1.02339200769211
1.08977276412116
1.0221200278149
1.30432267021347
1.04220217245744
1.12887636632688
1.19539595684438
1.21107307220357
1.10657613809708
1.21279378147197
1.0608067210026
1.23126817899082
1.04965121354188
1.27744324257303
1.16453964892368
1.13621082329383
1.13313750268868
1.19730323254485
1.14074531117074
1.18451685177802
1.03948151323006
1.14672978508447
1.08376240377286
1.19531011850632
1.14128025434093
1.27443357133208
1.26444472173456
1.27298111082063
1.13668457805242
1.32507093245597
1.25727746658997
1.36468926930317
1.25612509182715
1.30531990875668
1.21921610578825
1.28740433707359
1.30570944734077
1.4305896996583
1.10769142743803
1.37714459825686
1.19865710637799
1.59363339501967
1.29244836568663
1.44728941996733
1.19055591861035
1.23146141037121
1.21421150179797
1.42414982556995
1.27298079878917
1.60071150093708
1.18089876452915
1.37535265571179
1.30055472393105
1.58595395133046
1.35426129022073
1.41575536765408
1.20454130596756
1.43552980964388
1.23889592201805
1.34886658407704
1.25079147148644
1.62605543349989
1.52873298953437
1.46983163818791
1.34911361949857
1.93456433209502
1.36220224708251
1.59881607173281
1.48674796451791
1.4955928884354
1.32023003682213
1.71255679851033
1.64125471555619
1.31420405388226
1.33848830660009
1.51422900217771
1.42478067896757
1.34901698121995
1.46840449435484
1.27688296160115
1.49287930688664
1.40989718354959
1.45136594408236
1.66190153104581
1.30292346896208
1.36827058694765
1.32968705672963
1.59111246565109
1.57781982831046
1.38401057489758
1.51246601195175
1.65430131733819
1.499971423616
1.3979783917186
1.29657176936877
1.47451686572078
1.36030882712777
1.5943287825706
1.43897092635958
1.57906425231676
1.31307033313732
1.64071817142375
1.4507820981223
1.54393283644533
1.484132040449
1.599364641335
1.42784260994651
1.47105633801066
1.35340979770125
1.38180135568804
1.66779451874849
1.69366543317301
1.59727533665741
1.4260500346498
1.37203353017976
1.72642478952921
1.41708361515095
1.64844831319419
1.47907562851759
1.68634464710775
1.37553434777096
1.37949540214688
1.3551402826443
1.62977720134523
1.51717326123323
1.75151898235343
1.38682733485372
1.724922817679
1.29136613297857
1.90179866615143
1.36681406211265
1.59080938470676
1.61289631938901
1.4633929282339
1.66510342116497
1.53009132017275
1.59167317662478
1.92037648234184
1.43963857782035
1.65485760923895
1.65174929331397
1.75871419721364
1.50025143854213
1.44566465543065
1.57275305263287
1.4516970399163
1.51192133577268
1.3621820932389
1.49682886899478
1.61538115428801
1.61424604541362
1.48486317196867
1.49808300143064
1.42148170111532
1.39768991922381
1.70321562657753
1.55028700830774
1.44697802325053
1.36589368937597
1.6514101816231
1.53091288516711
1.4296057470597
1.51634530636933
1.54283442391307
1.59360569663922
1.84416236022533
1.6613519742461
1.45703807104512
1.60240381585617
1.49825741999462
1.67166574955543
1.67096732901979
1.64217198764897
1.51968642219155
1.69477344097326
1.90513634734934
1.78689664358814
1.43973093583758
1.61614316450348
1.81654271113545
1.49291082237401
1.50583969224502
1.75581416638319
1.51126190798093
1.43577232986768
1.46126804813985
1.36874794404644
1.57481254709576
1.51411161982039
1.56801537617977
1.53048746743695
1.66341873444598
1.71321545296207
1.67707554521406
1.55539502285285
1.78009922903216
1.67534698698247
1.86323725845189
1.3994720958012
1.50745884032137
1.47414290518813
1.86538575044285
1.5352566884637
1.76856494319319
1.5256189808437
1.54814939770891
1.65083662577954
1.44505150729229
1.56039764339535
1.91083817617519
1.52812996504146
1.50482516697041
1.69247819993607
1.49562039085184
1.48971112550551
1.66248742136376
1.597685412818
1.38137671450757
1.43009125979793
1.51282973865006
1.51743613575213
1.59517814945791
1.40909801830869
1.6407820387881
1.45950434004424
1.90430349374424
1.54805173979554
1.74199813880488
1.66032265131527
1.43639772074894
1.57025869035679
2.037626227364
1.42755757534722
1.64463983860632
1.42458964781532
1.61072988417277
1.34749469060386
1.45995115652861
1.42026147982286
1.60063165789216
1.4653485714444
1.62572952484917
1.37071973360507
1.47017922270219
1.44586781568231
1.45604979789479
1.53484884904641
1.35542968676914
1.43388407975962
1.52620746776976
1.49164051926522
1.5337376674293
1.48972907720231
1.61775403973047
1.38394697878718
1.48938450702251
1.49177973953794
1.30013888403911
1.42787448095717
1.41389770553863
1.55568087762489
1.43262971782165
1.47893420954751
1.50762224473196
1.47174385241366
1.42020726724605
1.44723625248126
1.40765296830509
1.35985603265862
1.44610960715905
1.38342385002236
1.39410535726412
1.37787516031901
1.41292885044712
1.37625653921644
1.33622057446739
1.44916028119473
1.40918001227447
1.38513650716185
1.37067128412576
1.33446678985219
1.31593768333677
1.25198743804505
1.31992390801411
1.36038281392312
1.45327911298053
1.31691653643812
1.29941896223675
1.275691570284
1.44585674742458
1.23648431816517
1.42796645745827
1.23680012282486
1.2951511708405
1.2887160615326
1.3461567286358
1.34550081934209
1.34916756306656
1.31152013225258
1.32240186855152
1.2905616619437
1.22842677313535
1.23847433864875
1.33286314870648
1.20196117610972
1.24584331489253
1.32948097426252
1.23239277440152
1.17260133415351
1.3024623183199
1.20571147802192
1.20318520275995
1.30698322850209
1.26722948877625
1.20245127547832
1.23737479454052
1.13848646285432
1.15591439201625
1.18687191826451
1.21915086004393
1.16425208025532
1.14118346894157
1.09370797113774
1.17384932535905
1.13627414797444
1.21423213863529
1.10982921774796
1.1403851100592
1.10116881202099
1.14916852048789
1.15673867761846
1.10909368395993
1.12059080872352
1.11008382012918
1.1236595661125
1.11024396701972
1.05588403349546
1.08856277115595
1.06299163408207
1.10057000317205
1.0237936078226
1.08570873865306
1.02715514947282
1.11026411033067
1.03008464857496
1.06283201851256
1.09058936602747
1.04654661784114
0.994273817464005
1.05322303335156
0.971591627420337
0.998098380019794
1.00759848638211
1.02885888924281
0.957167753631105
1.00660556329897
0.967303048405213
1.03386963195893
0.951695919324233
0.997845561077286
0.962262152885346
0.992393961915956
0.913482585661366
0.950468767497091
0.932165155364711
0.961776454894535
0.941879354104932
0.986773989647739
0.897711747535934
0.971822951246065
0.924744303511106
0.946711424541638
0.909872717854117
0.960925688830567
0.885641376118621
0.951429252209027
0.893404165494154
0.892278782239675
0.874521098042903
0.879016631047005
0.893061841536871
0.902151722855432
0.85719494529443
0.899436125065167
0.854431298689468
0.870717017120921
0.863762516389
0.901795576663153
0.827409654910011
0.888748351467767
0.812798213146693
0.832826095411415
0.84607683975709
0.833474172563583
0.822844400094999
0.840716940553926
0.800751235260693
0.827473103737299
0.806047201728499
0.808006154613451
0.792426317756794
0.804377385577869
0.778353231253292
0.805520478542947
0.781483009200688
0.794784063175054
0.77744700212873
0.787656756644353
0.78916239094759
0.782822748860761
0.77485448865967
0.790992758272966
0.717203191010332
0.747363707041131
0.742137935538605
0.761400443783856
0.730124506910909
0.737810288778645
0.727403217529507
0.749071056394614
0.71055570741237
0.72504798493454
0.712309122750336
0.729197541831946
0.718934984774459
0.740561113014279
0.703515014578322
0.727613009726123
0.684664993143095
0.690862882184828
0.705059452695094
0.695920113740941
0.673032615989595
0.696240106577913
0.682310163783856
0.67010663163189
0.648450133101939
0.666015315338571
0.647231158614851
0.6623075224065
0.642651549932977
0.654990781431215
0.658722212589373
0.66981767352823
0.649654160408476
0.651206858024022
0.642384209542812
0.648499638093404
0.643573029759497
0.6359977188773
0.626621028025178
0.624335896620418
0.597709113941161
0.621065260107323
0.611702756894495
0.614769007510817
0.609681733356828
0.634824852431455
0.600751220524052
0.606002259984295
0.589438728741166
0.611022640306129
0.583665493839992
0.598834971104285
0.579660229701815
0.605441625577857
0.599138187548199
0.581319689371773
0.566702271384065
0.583194366022753
0.560637041264033
0.573798699225564
0.561483595518755
0.571686076058735
0.563255136991017
0.561694126332839
0.547213891928236
0.548870675424009
0.556977021438657
0.563669587495988
0.541659360053927
0.550631561244486
0.543598427796368
0.553955917746461
0.524440301190118
0.549111505715671
0.525312154511353
0.548852303297785
0.529192997632669
0.543978650283729
0.525496635440594
0.545832409551108
0.526886893324554
0.526782350685463
0.52686797374559
0.533404629200443
0.525319879904938
0.543477518041666
0.543027583525465
0.530247526033407
0.520072049347653
0.523956967836172
0.52261161792771
0.540315668465617
0.525695426063205
0.529376601962737
0.53268823258617
0.543481966576157
0.519853485511991
0.533872862800136
0.538727840606574
0.546053509075504
0.530594692398292
0.539377887242062
0.534733841614105
0.5611234138058
0.532666554521027
0.565498916695898
0.534551544769128
0.551934099825812
0.539718794621461
0.556517676795441
0.55246216089168
0.563113591378881
0.547862310781886
0.560905479746193
0.558161269581182
0.567213988312612
0.561855607895466
0.574376935144659
0.564148551918335
0.57125650314549
0.552485709423915
0.569517180245673
0.567419469025923
0.588532836028703
0.580220798404083
0.597414642711286
0.587589700996979
0.587886759312066
0.59304178433186
0.595158830241802
0.583330189129275
0.605274345240599
0.598943327697042
0.617842923624504
0.59742564549256
0.62235718065885
0.603944149073631
0.626590729884478
0.612818726719854
0.628201645574648
0.613187633082472
0.632556952401077
0.623519159040668
0.650318765152873
0.626758815986825
0.637509258014062
0.634660469142545
0.634250586423512
0.649635401727177
0.65960280320692
0.635053279260945
0.676866039012284
0.653703177934542
0.656368535607958
0.654411648344012
0.664054160100867
0.651762580517159
0.66908256629052
0.645931018868981
0.668155130847908
0.671732415829505
0.675272158630971
0.662857354627336
0.672247132208916
0.674708575412362
0.672257116595837
0.658904454920824
0.668562773308311
0.642327165996434
0.654388748189234
0.656477694747664
0.671478981065044
0.644727589787107
0.648334552096741
0.624068238593464
0.63895886994502
0.628187195734703
0.650619342005713
0.650957281764742
0.650835128833844
0.651220981070427
0.653786481199064
0.628915801108771
0.652060908060293
0.656629849045139
0.652853878281884
0.638948147789154
0.64342256553001
0.641864862049869
0.650642942483764
0.628251341583645
0.636466231101119
0.627491390261747
0.643318426936118
0.638777150031816
0.626200449491359
0.626245984354056
0.633585093215582
0.638370373477068
0.656672132303351
0.639065321103603
0.652288540316227
0.632963125260284
0.632738860985162
0.637969957579166
0.64353125802031
0.63453452655559
0.646333211235307
0.621446536975744
0.628781725154521
0.624488672340585
0.638294877828873
0.620010643822518
0.623174015013123
0.623795703869199
0.629349155521526
0.626144379596703
0.63307846925504
0.614158389360536
0.613402076766778
0.602759272437197
0.601813652399038
0.588158109154901
0.606342126026346
0.588078333832472
0.579536346084203
0.581833518963195
0.580059507540022
0.561888680303198
0.584929834781985
0.567303835839046
0.571493117411525
0.561359734746404
0.567241846492982
0.552851423848018
0.562304615211929
0.5520029183132
0.548510268541644
0.542404475473675
0.539143397990468
0.52556486096522
0.546291008460752
0.515777779037843
0.52886263765144
0.537805275382343
0.520119551672249
0.497888710746614
0.522135774063768
0.507274493742288
0.507093378898135
0.486107252236823
0.499397045409192
0.489033827696899
0.492513586804471
0.480774191176702
0.488068753517097
0.478896903812531
0.484895979188057
0.471440771224144
0.468154348518999
0.469210368065849
0.474485322097454
0.470745981922047
0.467646172106459
0.458052437156761
0.468651125319263
0.45971125890945
0.460410355212816
0.458720855573813
0.462611255483373
0.442336499472635
0.446936639873038
0.43545594357533
0.437660707795109
0.442067765034406
0.438407729033524
0.42663848412844
0.435395515042006
0.431457420943117
0.437014153135495
0.42765030757754
0.434937828990462
0.431647693741672
0.432898724464602
0.434403463717057
0.438503624815304
0.420629580971225
0.41793614497587
0.419578472048356
0.422350355374228
0.415684817567835
0.421432164587938
0.407284149240841
0.411663394087085
0.40584549689639
0.410922506748467
0.39818394899418
0.405784522164557
0.399945874305902
0.402492676274836
0.397353329223046
0.401231170488898
0.397909148705649
0.398495159269104
0.390789200665002
0.396862232551094
0.395879093138916
0.402611057389695
0.388622328231506
0.388010326982984
0.388676474612574
0.383170161141188
0.380470415568666
0.388521888279126
0.381563382838594
0.384945665013598
0.372021347401049
0.376446439784605
0.377787327055355
0.382637185222994
0.373433492069978
0.379105727725946
0.370400453248614
0.37029333685011
0.367861124767435
0.3739974247347
0.371566440715339
0.367857132081362
0.363125104790734
0.366714436087805
0.35984707745765
0.367876758887474
0.366225297954595
0.368892636372647
0.358393121284291
0.358442279588793
0.354342038604235
0.364761984764184
0.367188603996943
0.357810545868612
0.357458379655269
0.360328518112255
0.354335437128702
0.357242452909118
0.349098079292799
0.353875434532884
0.355462379847886
0.355993967133712
0.352966632386032
0.35469959535022
0.348357271305912
0.353986121551524
0.352446822615844
0.350835424801773
0.344132371269018
0.355247773146278
0.346825487850532
0.346168204263909
0.350330226008126
0.348736874344808
0.345216113153744
0.347161736128435
0.340261018637064
0.338362533088964
0.342191868948001
0.342873797210392
0.343417941563492
0.339620158415933
0.33968461108746
0.345062427203635
0.341276356388037
0.338360827780559
0.335812444466598
0.343384393302965
0.330933377407295
0.33568251899403
0.330141437322022
0.33943985907757
0.334764410986758
0.336773425504503
0.334742475040616
0.342395240673975
0.332364391201669
0.33669779162074
0.331461614567054
0.33080428626438
0.327222115251868
0.328730287916646
0.324322431613697
0.326685641899957
0.330258205884875
0.334416130853883
0.327470383482582
0.328607550502706
0.322209520226672
0.329151254939879
0.322830410232197
0.324453587002347
0.323501331969567
0.32697830730858
0.322363177470058
0.322256706382704
0.318553886163956
0.318993410757588
0.316831544559572
0.318320760565079
0.313465540832638
0.312708798734279
0.318204843263522
0.315959344211811
0.314941786322626
0.316039752797588
0.309330668360928
0.3174120543334
0.307231670990865
0.314691739154613
0.307685224129728
0.316358035562187
0.310283385285035
0.306854049853629
0.309589809694004
0.306201840214273
0.304661235416894
0.307026731084662
0.30205349333127
0.309067210782027
0.303349667472445
0.301975173010125
0.298574065730037
0.303124507430164
0.297773109793169
0.300660155118963
0.29676905737968
0.300949489418918
0.294099629334151
0.298895106292889
0.298321322091513
0.293125766791483
0.287090000609662
0.295380647496909
0.298265688303923
0.294533114923451
0.286936206014836
0.286767994513274
0.285622280492405
0.285594122090772
0.28807799971075
0.286039439715217
0.280046835639889
0.281546361504969
0.279895839104129
0.279280446983548
0.281937504725257
0.277665885520067
0.27646413148628
0.276186593895803
0.279365664263446
0.274074993083656
0.279435963929022
0.276288932918247
0.271261268401125
0.270139200845408
0.262450375560256
0.26883606238462
0.264740550096453
0.270760955803619
0.270594069225077
0.266840448195003
0.265447373066126
0.264859954895354
0.262539958743262
0.265505083390364
0.261351083408007
0.261925986414158
0.263958841783002
0.263929687559703
0.258847520991941
0.26090658032206
0.25454013202538
0.261601807983214
0.252597400862022
0.257106352842854
0.259580100102247
0.260053599271824
0.256631084832191
0.250127815507957
0.248744799300529
0.250975697323068
0.250717494810625
0.251408666855622
0.252430189190686
0.254666391055001
0.249360285606782
0.248402493456519
0.25319729694276
0.248348485038793
0.240824248762703
0.242377677323593
0.243861917024131
0.249743852515569
0.244368593534606
0.242332568361593
0.24141462405413
0.236856559980851
0.234574968309755
0.235445600038195
0.234955302397954
0.236558706657389
0.240720678014254
0.240443061581975
0.237712071723243
0.235090822456796
0.238397538874058
0.240201604224135
0.233356848258429
0.236353713335685
0.23330384792563
0.234415492874553
0.236464135921123
0.235267213895925
0.233062775882785
0.233705944479873
0.231706158725355
0.231537233280885
0.227614945195281
0.228526392821656
0.227682143375084
0.225691034739412
0.22348260770679
0.226196345800642
0.225557668651976
0.226906161567864
0.228280040336303
0.226924658372824
0.227656454136735
0.230220051282565
0.226327266249396
0.225506831064184
0.228568375906308
0.224056601364683
0.225592557400719
0.221605504670383
0.220381577144718
0.220965386963525
0.219006982202683
0.221621974565313
0.228369997162679
0.226491284347701
0.220813239242051
0.223565754249449
0.219502105063204
0.218238124001235
0.218083880608567
0.220315832427437
0.218375682831045
0.214056714101953
0.220824415947941
0.220564966165284
0.217459070129503
0.2166890715998
0.218302603716594
0.21490319907624
0.219088550100823
0.220936691307302
0.214970899203332
0.211840980491904
0.213516969087223
0.217331556087204
0.214466311693174
0.214588011325145
0.214000926299435
0.209654100270459
0.21286078252807
0.212643725884202
0.21127630853595
0.209540513835189
0.210651755293182
0.21152912377509
0.211094603288216
0.210259877120073
0.207170350200287
0.207806210245515
0.20661145527143
0.21110180914694
0.212104971933988
0.208925419586595
0.20940838961502
0.206200411272361
0.202542352152053
0.208013208106034
0.201811090318369
0.205158386349386
0.213112114627821
0.201286011531875
0.205554640865577
0.206470185248692
0.204620399413852
0.200556673069974
0.203512525245688
0.200376287410901
0.199370402386854
0.199334796646082
0.202748567847475
0.197782982004584
0.201448159066813
0.20137443389219
0.203319168744916
0.197510657033944
0.202432851662499
0.203861964412367
0.199041216953891
0.203836293751267
0.199669618317911
0.197741834403308
0.197051496579057
0.201202594459311
0.196370557533164
0.194871719774192
0.19890841764388
0.196404645507581
0.194544831586524
0.197080666797945
0.198304767709258
0.196579252382226
0.201016366166618
0.198390875815644
0.193744348481885
0.190444095059298
0.195723195840624
0.190898862598538
0.191793791757847
0.194293457102411
0.191408120206479
0.187597930617295
0.185255200262716
0.18617730155909
0.190539602522172
0.189963656361992
0.188643735157859
0.187064727689616
0.19128091808453
0.18686254285567
0.183916837171475
0.184848114783999
0.185306355189664
0.187238729434604
0.187224377321439
0.187114235101602
0.185705417194188
0.1841862088536
0.183192562749553
0.179395057496245
0.184841972327901
0.178444875021651
0.180579363848673
0.179172338944467
0.183437779241318
0.178667411198575
0.177874745239321
0.181443305546278
0.17826812649277
0.176274346122683
0.177170977955011
0.177898309564377
0.175302297789572
0.173715424799352
0.180672686824649
0.176155709792206
0.17782182440179
0.174052964717347
0.172503130920119
0.170395397709582
0.173124505624515
0.172562557976328
0.176329627014261
0.173764233351983
0.171471396657486
0.168770830197856
0.17287516867501
0.169103145794286
0.172132234043247
0.168438512389127
0.167909539310986
0.168309277567223
0.171765269942851
0.164443407143834
0.164053936929617
0.163153632945665
0.166322099618309
0.167875901535773
0.167533871019898
0.166925674292892
0.165627412166743
0.164939064079564
0.165945951434463
0.162555103394024
0.16563647836621
0.166116087326739
0.16478596598507
0.162096890396721
0.164752808915905
0.160194214396506
0.160164248831709
0.158126166309902
0.158515417824512
0.160719861795593
0.163149693946676
0.156913846507855
0.164288523220397
0.157385953439159
0.15811912419121
0.156852407509229
0.158236339951112
0.155326643509866
0.154879502146121
0.152286232513376
0.158089660021904
0.155181754802992
0.156320343949017
0.150267390896091
0.15536321516046
0.150468889378248
0.158598047971727
0.152193652228407
0.151298563838896
0.151546134434238
0.156583534710016
0.149732358183596
0.150276029440583
0.15397689471538
0.151211242070289
0.147475340388139
0.157424091219975
0.151487554799777
0.154402622336079
0.152699197843172
0.152453856990415
0.148567280030677
0.153275421868476
0.150688741924246
0.155604265753446
0.148495323532347
0.15089701617854
0.146859340759616
0.152688286772767
0.147933878877088
0.151377415274476
0.141076993830625
0.152227849372483
0.146333798588112
0.1489842416621
0.144292987286705
0.147117720402497
0.145352722406667
0.153050463222498
0.144431802756298
0.148959422085703
0.14329501660589
0.151402887387835
0.138615032951666
0.146006300549351
0.145706019513829
0.152384972013092
0.138489938129279
0.143430353166445
0.146378659123133
0.157676325024034
0.147884624655602
0.151812560206523
0.141612147438135
0.148876926589218
0.139455961733204
0.148471518128112
0.146435437585424
0.15478647910144
0.137347338854274
0.150241478794979
0.146810694694268
0.141022662536542
0.13432762134667
0.142833511130825
0.134180148272407
0.146177164886421
0.137429560106972
0.148846271943536
0.130310575977573
0.149351449823036
0.14165156264216
0.154195284709554
0.13385121501141
0.14965612934419
0.135656919079499
0.149376814371814
0.139937501432383
0.148922042251897
0.13284446996642
0.150288096934803
0.139250617182314
0.145400176188664
0.139290843906929
0.145430187236608
0.139533790751841
0.138736390799014
0.141015364897507
0.142710110781973
0.14860965015616
0.131959579251551
0.147101557696967
0.135596511808652
0.155905446282399
0.127854178150723
0.157946173917549
0.130170615749412
0.15650199996738
0.124875446934503
0.160933108981902
0.131414048829695
0.152211315144092
0.135025797752138
0.1445796971073
0.131731526006466
0.13889702180467
0.133184604076001
0.140935694784622
0.139219114639143
0.140806999040517
0.136168298489509
0.140205344541586
0.134356866468991
0.139561899992977
0.13426717295281
0.138696706341984
0.138705964657546
0.139893943909781
0.138293971275519
0.138187739715047
0.134409189312999
0.141534100302965
0.137079497698678
0.137856127036502
0.135908298633631
0.139925415410131
0.133406838929905
0.136152111191107
0.137838818178001
0.141611173687887
0.136647330258859
0.140138545189767
0.134506422362514
0.138471233763807
0.139422829447871
0.139931615847401
0.134288786114415
0.139633568370958
0.136979526285603
0.137850699663433
0.140373643442548
0.139889735409498
0.139541247596342
0.138337410258389
0.138994427810952
0.137424222046494
0.137310604456559
0.139498532419488
0.138500546790549
0.138616655651235
0.132026133855026
0.137549361452419
0.138401227687733
0.138836268674677
0.138582306385063
0.139147383024727
0.137181672451349
0.140629297214512
0.141299366717972
0.137307227250667
0.138220080476611
0.140137988763
0.139874186523587
0.139485457754505
0.14229388867324
0.137366653942779
0.134670833696206
0.138467983314829
0.140190171348445
0.139789818243467
0.13717418724876
0.139261510007765
0.135898680039042
0.136693770988224
0.137393303785924
0.138722670207613
0.137799318186767
0.137363434094599
0.140443107959105
0.137574245890688
0.139019564505938
0.13987953059309
0.140648687765577
0.137263457659401
0.136920844698543
0.138766417177334
0.140309933991499
0.141689734799221
0.136840414858169
0.142356095033536
0.141930552989211
0.139312597032614
0.136156321634157
0.142315086101792
0.142458475358433
0.139325620096759
0.141927692152248
0.142696959065691
0.139491098493375
0.144977434204467
0.142067280999442
0.141321465982991
0.144506341989586
0.144812332979026
0.143947583609774
0.143831638732869
0.140012186111571
0.14035889710081
0.141003482904374
0.137482351999992
0.141157865274983
0.142810394495555
0.143776812120976
0.142820028812591
0.143610728884359
0.144025949539011
0.142761715337838
0.140971094925627
0.139768604084251
0.142510287295472
0.143770488381575
0.144785822681714
0.144959429055682
0.143888506855033
0.143374701734661
0.146893863104212
0.1462215287894
0.144738296071009
0.146137965812662
0.145876135104227
0.143945451932304
0.140823717721279
0.14604760338475
0.145449829092901
0.145990009271172
0.143739610283532
0.143711513376359
0.1482869220446
0.147974152234505
0.143796311841025
0.140639642841286
0.143844393605477
0.14676745057613
0.14498026833213
0.143607119053628
0.145868939228712
0.14930662440979
0.148198942102424
0.150398384266982
0.144953030974265
0.148422251568146
0.147233934002383
0.147658169508321
0.146783751428756
0.148686339885237
0.149067683033963
0.148852364869665
0.150356888539427
0.147471451477265
0.147359666298239
0.149830661887832
0.148640423308679
0.150102564865517
0.1481151152
0.147455798498212
0.150852376937041
0.153610784872118
0.150300146642625
0.150250434417486
0.151783656200386
0.152924283514324
0.148460168426085
0.152787383738479
0.151339861093146
0.152346823178223
0.148010578204614
0.148301694206197
0.152986154381006
0.150948617882754
0.150224653498101
0.150980379890035
0.148122101780127
0.149047297182008
0.145946091402811
0.148626166078421
0.150708837179467
0.148226988715006
0.149471901148905
0.151199987429194
0.149832519868903
0.151072680225322
0.150861902012863
0.149148433331037
0.148194769863599
0.151038076666285
0.143460766711491
0.14889397093085
0.144231142639578
0.146431105397009
0.146710583012898
0.150705005174413
0.1464582420226
0.147513212952948
0.148299402645927
0.145510750171669
0.14466621018048
0.148356553036726
0.14626726282139
0.147498841527131
0.146974508416528
0.147900027058175
0.143877126538947
0.145434065076286
0.147354159689764
0.147871074183077
0.147188003852509
0.150755646749056
0.141189061537442
0.143356788435809
0.147560508993769
0.144187506194924
0.14491826688151
0.146242033924132
0.144018059316736
0.143013303860319
0.1432324202256
0.145348087174208
0.142309167741587
0.145839116367342
0.144160591643564
0.142346151354044
0.143509382610483
0.149028943925408
0.144871284962973
0.144050767144883
0.141690472205512
0.142017483808892
0.143953948047267
0.14407155431348
0.14000698193209
0.142950346283371
0.141182322531085
0.142932394939544
0.141783626859176
0.146632768851766
0.142671218239613
0.143628863342891
0.142189344393205
0.144426404501644
0.141312548440815
0.143240779046069
0.142995708295635
0.141114585363813
0.142678511609579
0.14543644446281
0.141176514213205
0.141065237574965
0.139139795736905
0.141028147771226
0.137961495315428
0.140597251624601
0.140158469308634
0.141938114991995
0.137351403891149
0.136979266978453
0.136597943323442
0.142987486144986
0.140665669761522
0.14271965054064
0.142157293643525
0.13747709677158
0.138504002479007
0.137749388606571
0.136271687080049
0.133043166656857
0.13669524879641
0.137032557561784
0.136445543751306
0.140896200231199
0.138668853032653
0.139546748206178
0.138457692320434
0.139919974127989
0.137326870525348
0.137110474317197
0.135847371497033
0.138887082985491
0.134888491622924
0.134552621587916
0.133749154013768
0.132418606566377
0.133793476369755
0.135500952244917
0.132836069293584
0.135023087137105
0.135316460505132
0.13473813080204
0.131550723950505
0.134269676375469
0.133457834375285
0.134040821948434
0.133227171575267
0.128713839809963
0.130267161306608
0.131835141065932
0.129314290598152
0.131530204018658
0.130053432874329
0.129660157018226
0.126752938023532
0.129420940198397
0.132653311766969
0.128696697067711
0.126845066249809
0.126720577610849
0.125241276165704
0.127067548633926
0.121455227271626
0.130569309713262
0.126105113656727
0.129280624982862
0.125256960554502
0.126831447844829
0.122113240262522
0.126997165824088
0.120858323325942
0.123445453610156
0.121524953200266
0.123811849346306
0.121058596597723
0.123690104803023
0.124256190053306
0.124112252945819
0.120428608398298
0.12276809753971
0.117090043065538
0.119390447030476
0.118738911376264
0.119671842446479
0.116172049903229
0.122151216268754
0.115047053332147
0.120966239239612
0.118879282196116
0.114283396152343
0.119039331421296
0.121358482735288
0.114226309153932
0.116110438721879
0.11722337453761
0.117119287354535
0.117434883257471
0.115517114571875
0.115886778749633
0.116691550083603
0.115742364417914
0.112676421700732
0.113616916068899
0.116564574696683
0.117211141002666
0.114970387227607
0.114555632336473
0.116709200068338
0.111814281283167
0.113062200094238
0.113131419460145
0.114823036565175
0.11195045748386
0.113506839247753
0.113319376065101
0.108670302498607
0.114276233998646
0.113217603392258
0.112409247265131
0.113166185930588
0.113872789267095
0.111903049886266
0.113148012025865
0.112473012634725
0.109805119980216
0.111470515588468
0.111839905939392
0.111049259078321
0.108106453954877
0.110248117179374
0.108598577131256
0.109298919272042
0.108793964526061
0.107364668445359
0.108074425071576
0.106477614705524
0.106348317959117
0.109011350799656
0.106768934978079
0.104314493361424
0.10992969945739
0.10457575314322
0.0987427766645149
0.118815964380586
0.104166701999443
0.109406267057407
0.103900226715937
0.107521510146234
0.10213124898638
0.105790659346186
0.103459763526544
0.109023902235288
0.104133436972755
0.107859240074002
0.10119312375941
0.104819530882893
0.104560079916929
0.104472152463077
0.101280694965383
0.109241328552853
0.101839790908117
0.106898502768582
0.100200136862888
0.101966243569154
0.105310416874034
0.107764853366451
0.101528236084809
0.112343907695006
0.0877449623811623
0.115472068838821
0.107405043386222
0.104676105669799
0.102371019361286
0.104317501204329
0.101693343150808
0.10259332159171
0.102640625072393
0.10159032097971
0.108697796089264
0.0997395207334927
0.104639467930209
0.101057711614607
0.100101189758978
0.101767295452576
0.101042092678911
0.101949974116189
0.0999880149928808
0.101952331129956
0.0991871319065674
0.103420496228928
0.0981616456958824
0.101968490121991
0.0967888863995936
0.0982788453771048
0.105295852173434
0.101260304045069
0.100311724850341
0.101092385194221
0.096119746681651
0.0914017144145061
0.116565681459497
0.0972456314389644
0.106288255143336
0.0998920384099655
0.104683124735035
0.1003958478192
0.101052560567422
0.0998794630290125
0.101865524811547
0.0989642494268478
0.0993446251164188
0.100286128651635
0.0995371023049869
0.100724771631429
0.100411772728839
0.103029210380681
0.0965038022741394
0.102709546751262
0.0974737790325357
0.103821022692586
0.0942158397415501
0.0963416329171056
0.103996147965855
0.100302268051434
0.103749295207541
0.0993272285104292
0.100488635609612
0.0961753237194646
0.101301366996596
0.095603103655275
0.100761023243005
0.0996633204508346
0.102490012435652
0.0954394127322072
0.103456998627918
0.0958204934842878
0.10243193481093
0.0952962371665123
0.100729484672291
0.095064821047242
0.101029912330181
0.0931627685783888
0.102879800807783
0.0889848041304038
0.103701945056384
0.0970335581282572
0.10334428488529
0.0795075472671792
0.0972828822811234
0.120696510585789
0.0934326396844329
0.110429896582112
0.0960028043648029
0.103773185783447
0.0945695469505743
0.0984759025198194
0.10284302590285
0.0994166637041544
0.0944187926931722
0.0987079442266458
0.0986143094333503
0.103082844919201
0.0901793371181989
0.0880226285342683
0.118141684392314
0.103179258146787
0.100711109873089
0.100152492266276
0.0813267060503028
0.121682718949199
0.0967447410307167
0.101121274992304
0.101777464552542
0.103198174632919
0.101114007186421
0.101297580172688
0.0949917805893394
0.102531601709296
0.104032482666975
0.0951780713784895
0.101609986234898
0.0966121847867236
0.103341112140424
0.0981390080621415
0.09888960584384
0.114044288612782
0.10323301995984
0.106047458138534
0.106032971013759
0.103638637633289
0.105554556570373
0.105766521176781
0.102286531134556
0.0963261918604896
0.114128495337448
0.0963000690595231
0.104371114063453
0.115107101078271
0.102425905535078
0.106765836700962
0.103917253838234
0.112385536370394
0.100735385864814
0.0793653052605686
0.132956192500159
0.0956398868583799
0.129024569059831
0.10026738735583
0.11439875686473
0.101061686947111
0.115367897819072
0.0932599519157022
0.121637806405454
0.109554927797432
0.112368718772593
0.104893486863422
0.0994136309299797
0.118342831010273
0.112942747943875
0.116243235009299
0.10816779801322
0.107671449307831
0.113670425717655
0.122854143665064
0.0863347361106614
0.127222006455827
0.121847284054682
0.124161674053851
0.125556451373461
0.0939315523762194
0.134436383184911
0.123003379138246
0.119382540549236
0.11631330552189
0.11773120501791
0.122136669811545
0.0960161330050024
0.139134433836248
0.129621926880684
0.114636061184939
0.135302560084275
0.107180256651645
0.125867789444772
0.139272003976318
0.129057773976997
0.125965330780946
0.135035294746116
0.10978696369492
0.132195070580451
0.155048581580692
0.116044510785514
0.160351306771598
0.129836041485991
0.150852806400273
0.134992128509794
0.144946237314566
0.12895015866134
0.156865267229741
0.145985673115039
0.140217525296678
0.129078816486194
0.179527837131977
0.139529223863575
0.159364143223776
0.147276571803225
0.127093594589075
0.128262646704359
0.194407156591989
0.172751489771935
0.171677765983061
0.147259797149868
0.175508323883417
0.168855579718084
0.166898075718687
0.165431661623475
0.167854259490475
0.172243885497405
0.169463231746831
0.175327698110043
0.176503641587182
0.174608974333208
0.188091238519531
0.163633170694046
0.179646718152496
0.183494437657728
0.224336886366299
0.175199390676346
0.207238487319778
0.211114255321277
0.202789570891993
0.207556657320381
0.196810374049019
0.210458200060898
0.214521420225192
0.213564421264702
0.203336506060366
0.213501119726711
0.233723203539485
0.206302905210932
0.262579627476716
0.223665484983444
0.236856727593801
0.150737716936428
0.364212649667714
0.282131521466559
0.255783626124871
0.265827410092872
0.208576452854383
0.3435828526723
0.305118170778651
0.300510063953405
0.313737557346989
0.315023128373491
0.325783261446151
0.34207188409959
0.339113108696477
0.363228131667725
0.36932961186396
0.348932482982083
0.342976705964798
0.413223278031228
0.419310384354498
0.432518730610205
0.406783439800209
0.424918933697301
0.448484460837409
0.446851146508962
0.457931884955437
0.471553215342118
0.423242777922726
0.54525554647258
0.49985044196329
0.523105202037027
0.509032183224019
0.553099321702937
0.520271106822491
0.548635277955291
0.613981192339753
0.568804708314132
0.596388489350527
0.588534965268183
0.62204285428937
0.589656909195254
0.639857640213792
0.656567239809813
0.6534701277829
0.671434803294076
0.672436623581532
0.681007334702551
0.682301437749879
0.70252851787578
0.691973718834441
0.675255821099957
0.647388388259332
0.865313514091558
0.785374560838741
0.715871201397014
0.751269103745765
0.693758413302935
0.772621113501006
0.766525240293905
0.750248496654227
0.813732047009333
0.751028663066443
0.746966583994121
0.754829357883932
0.771832935597082
0.766770966593038
0.773380054595719
0.744330027186109
0.770372563118713
0.76973077845079
0.690658156778433
0.922779500342952
0.760932219622032
0.75906261146553
0.769618264630675
0.784237467931635
0.764552281040131
0.755501437987247
0.739957829972448
0.774857036902465
0.732028595536124
0.747293781824947
0.723739977083419
0.713158684569061
0.755150350775339
0.713649009622671
0.694976185470017
0.70084585893928
0.69356742794833
0.661436103498384
0.62253618501662
0.760979760298787
0.670475091988031
0.657401260595052
0.651104855711217
0.639888218367795
0.64018701639337
0.626922087314285
0.631382985100491
0.643404243191541
0.610328866461213
0.618415445064745
0.620465617901347
0.618723267019394
0.616127060544827
0.616443878579028
0.612196435976297
0.600575848537071
0.599340158177134
0.59859812829652
0.603725867896968
0.59959388470942
0.593812345090987
0.58261018698123
0.593562169153982
0.605912962305532
0.591926879291273
0.589205867380401
0.592039000981407
0.593093185954585
0.59472402128791
0.591620710121617
0.588905571394523
0.580284973663939
0.589838711997184
0.585950508879694
0.589029799722281
0.591367189648706
0.588482837395303
0.577961610740086
0.585556085131983
0.585704764596246
0.586444452535739
0.550393879496795
0.604218347452689
0.624857316314858
0.559700667423853
0.588415947948979
0.566459095926658
0.570650249715388
0.553133234845433
0.582074047062559
0.594323192426652
0.572333600768074
0.573277774091319
0.554435223150836
0.555620443008021
0.579875527978529
0.550237647388119
0.545382472846772
0.520644873479568
0.516282588441852
0.606461252737672
0.541914962637127
0.650257521563761
0.545902115158287
0.524563872118376
0.515590051545865
0.581051613816674
0.534898826536827
0.53872991304911
0.53482228443343
0.532181490581097
0.561381102827524
0.529166966115775
0.537046338061706
0.517193369204679
0.502618250463068
0.539739668047824
0.508402464784661
0.487350230296875
0.53580049189476
0.496842359983894
0.488048859894362
0.566308924123077
0.532074046274318
0.493404790655691
0.487978277854048
0.48482604058381
0.456046163643872
0.514227277621364
0.499314496939059
0.474527424492254
0.483502106812946
0.45613316298542
0.467095735270863
0.454596936271206
0.457543700092346
0.425811455161735
0.475700443889447
0.449763275101131
0.428449432103471
0.449929591988213
0.416554882938825
0.480516152000931
0.439908200214558
0.419870765844884
0.40463761925966
0.460523974850074
0.421635306587144
0.427118363265417
0.417055470457993
0.391539312082819
0.424071149108992
0.407115953028988
0.379472508302544
0.403268228143951
0.368628457430291
0.404346146765373
0.406133804359826
0.424948502660389
0.395078431140753
0.376769260238945
0.375222476312969
0.372557040089373
0.374357560098543
0.367159422912382
0.354689301475562
0.394835343703129
0.333514512731409
0.390298808563918
0.388696046186049
0.367629618170622
0.372919586959568
0.37397718467203
0.364185241272644
0.387483270497192
0.399025982959763
0.390177603213932
0.362397622893205
0.408119023506858
0.387201329052975
0.397900759906445
0.396283515154382
0.399614203343358
0.3962607154629
0.41212657743669
0.42247988624124
0.423606640666351
0.429934370622249
0.433389296488484
0.417168156148881
0.47499425925345
0.441244471101961
0.441090567900077
0.477581554990053
0.485222657810734
0.513666770670143
0.496861967809067
0.507968571745698
0.503905705012566
0.516415696946791
0.515860106730205
0.503032237308012
0.561395524324431
0.544794976013003
0.547394789948117
0.559751740459996
0.554965863271585
0.554860358304852
0.56098394333568
0.56424618046368
0.561265541037654
0.638252113530408
0.592177579300748
0.596198535158976
0.580351277087282
0.584828027717252
0.604791897597707
0.59900987049871
0.599738261800467
0.585843246909866
0.608595839845041
0.6088195709924
0.602682558141183
0.621228889490408
0.610869003843878
0.608679710151555
0.622158030130655
0.625655115569761
0.624663100891246
0.62765040549471
0.624887334653411
0.598992461587987
0.692160235307579
0.684029966074105
0.639094799032925
0.664743826188109
0.646486888234723
0.658567891671916
0.655717180112689
0.665053509298589
0.67244711120297
0.675178676530352
0.690284455081525
0.684512657029143
0.680630259264703
0.679604080778114
0.711732207885877
0.710664372266791
0.699470249405947
0.704414796891434
0.666594848967446
0.758455408399993
0.714999340379539
0.732947593248841
0.72782617357982
0.732522196736033
0.735231702000654
0.728013624616248
0.730696749326398
0.725536066751474
0.732316251746354
0.74528365207907
0.737374903665748
0.730494289091686
0.740991142317547
0.736432117423445
0.757574047055219
0.756742555526566
0.728742133310028
0.748311077377608
0.743929233329538
0.731712144577218
0.737075657586744
0.753099908682863
0.733997029399226
0.742670547473882
0.733222008935174
0.748316478934486
0.758846304958513
0.730590990114812
0.737071022096541
0.744332824724776
0.749102709890972
0.743072207916133
0.725678236349323
0.763130693147076
0.758840243956502
0.746087106177518
0.75107812254385
0.766907093234573
0.761266298299157
0.753974746121096
0.756223680295921
0.771340333830936
0.769154205526708
0.774898759092698
0.774694975683601
0.774306017141724
0.769644768225312
0.77444521610735
0.789578419210855
0.772118959808874
0.767743846059294
0.762200915922047
0.75590308078379
0.773254814132042
0.76551741817798
0.754606413796466
0.756142333738951
0.747232586409478
0.749575957472233
0.750392768915548
0.74517614388665
0.725373473728987
0.732694809115434
0.721950583031095
0.713182001313618
0.711777623357554
0.711767256450154
0.697821658372881
0.708716590681425
0.709268047166254
0.69818360712928
0.697265687982654
0.691988185501192
0.694263030340384
0.694583941712585
0.692541539039664
0.68136492790156
0.68569376361501
0.684024534591429
0.681575614141075
0.679940798436553
0.674812063136574
0.686074725505211
0.685466940916986
0.681924442066154
0.682796338680986
0.679925988071225
0.684722435869626
0.688544698762208
0.679541649950164
0.683397916632743
0.673418670511663
0.670376918894363
0.669459592594677
0.674012610283118
0.670439263902237
0.68213512955648
0.680055557128154
0.676026168243844
0.669809958754689
0.677146806166618
0.670044786596202
0.674414756597031
0.671554683837231
0.675584080766009
0.677102050970982
0.668039661234691
0.670588710861067
0.670699225480795
0.671949354732569
0.670317991696321
0.672411597249479
0.670157982441
0.672404276336084
0.67896211715211
0.674594633043924
0.67547380993739
0.670607379717678
0.670547459490055
0.685453849769886
0.671988322005928
0.670834027830374
0.660342257298133
0.659006431944028
0.66089935827322
0.653297394652392
0.659728469361735
0.65117039556912
0.642838546080641
0.639032881268791
0.632844668253928
0.631209955845945
0.633348229612242
0.618961582414639
0.615414969430638
0.614300080873202
0.61255964298424
0.613125158551217
0.606367598284057
0.607443561394476
0.605930405178949
0.594889393746226
0.597589946550796
0.600017318729652
0.601630677656036
0.60325982227767
0.596371898616006
0.596079427795135
0.594935180988219
0.589767483040444
0.596497067303792
0.595481828948686
0.59178216022239
0.595346541831525
0.604727314502583
0.595061623143999
0.597518506220152
0.604966989876916
0.604776372596141
0.604469103697989
0.610459491562446
0.614746556135434
0.609172161966772
0.610285279260124
0.61186609288989
0.626705253905668
0.621539267657158
0.621072402326502
0.614841272704966
0.630698554025575
0.625196817486296
0.624845689644173
0.632255039664727
0.630840267348162
0.627372244278152
0.621231824482337
0.623476359092312
0.631122512042654
0.629688187130469
0.61856006421937
0.623404812020336
0.613825441653154
0.618341541856388
0.613964782201658
0.60771040478969
0.61512059886583
0.612320057426537
0.609735718076933
0.611155286124831
0.599854504103074
0.604881805515039
0.606744085935658
0.598328414748278
0.6036684588735
0.597170707888116
0.592397450183833
0.59626576946574
0.590685078272081
0.588610983340676
0.584899059433918
0.588352348029415
0.582436183911381
0.575707999873946
0.579518361190973
0.579280066059571
0.57902995991685
0.579980256746896
0.575532651819203
0.572405727103822
0.569991342568346
0.572200343055252
0.570863250697639
0.562692860423448
0.563953455321637
0.558548921167359
0.5537823590275
0.552786318231427
0.550369439248867
0.546545941484517
0.536641213569429
0.537609326310437
0.530778106731055
0.52714706574455
0.520888152288443
0.519598938944876
0.517123767454291
0.521833859698448
0.510084492241969
0.509671490563151
0.509273277676016
0.50177837985831
0.510749472357461
0.509411659964296
0.500501144380972
0.499904126804259
0.495565837487794
0.498846108559786
0.496411278999186
0.489911451456258
0.482508230935755
0.479848507045126
0.476741794942348
0.470524722578842
0.46291410687441
0.461663657749368
0.455146778810032
0.449084642539877
0.443016461029869
0.441872928619201
0.442580169087323
0.441050703554585
0.443455452954973
0.444935223012205
0.455656069700218
0.465574191956953
0.466397229709354
0.47619564075641
0.485936922503046
0.496544094988109
0.510388308865414
0.533325043755298
0.547414458126795
0.56355916202702
0.580000053121098
0.601333218453491
0.62496395203176
0.642406917901186
0.652852715437414
0.670735041524908
0.688001760237813
0.708368350938779
0.725773217557134
0.744022211514945
0.759370051884111
0.778502877596004
0.793911207911258
0.806673128617365
0.825507374841293
0.831852927154044
0.841928916762339
0.859151964313121
0.868528953551649
0.881011938238031
0.890715274398248
0.89770870542886
0.903913175821805
0.901932582533414
0.905129655296557
0.901546244671075
0.923626038719284
0.915541459691928
0.91342718802154
0.926827502231577
0.906041781989267
0.917078369190281
0.93121384976621
0.918830747666157
0.907249511203966
0.925553527101561
0.927986336423494
0.92521307151254
0.934812917349236
0.932246546817951
0.945038620931007
0.948057511688611
0.953948215043172
0.95088804573022
0.957278467196099
0.971982406177567
0.987480782120958
0.986890492416393
0.993921114712623
1.02322478644818
1.01677445393864
1.03970635586436
1.04305090001778
1.06013258832926
1.09178364608997
1.10334909730442
1.10708604054649
1.13717720190185
1.14487580467496
1.12818684469367
1.12580602647076
1.14924979100579
1.14157670966293
1.15510625847461
1.15992493499185
1.14289376161437
1.15498350548909
1.14946638815014
1.15049211167892
1.1289692929143
1.1323249408262
1.11728716222187
1.11269346873104
1.13329523669529
1.14650977370731
1.14622479472889
1.16009786966438
1.18112865113771
1.19473261257972
1.17300712635166
1.21958558340502
1.22660415875287
1.26025975232392
1.25633017772202
1.27828261173605
1.30541996139856
1.31045883076836
1.32853135974176
1.34583107758043
1.36248927414186
1.36818283180826
1.38144869512919
1.42402427541922
1.38276440999616
1.48104227507309
1.43322714846304
1.48112336335463
1.54910535597482
1.57297159860546
1.5810153008618
1.57257049028795
1.5581772156196
1.67022638956421
1.64195152344486
1.6218211447637
1.67116703111853
1.63153229120892
1.7288164164335
1.72827856367263
1.91378949050593
1.78476889776226
1.79853888653749
1.74224572039997
1.773093250788
1.84065186626686
1.86072347413901
1.74535363139879
1.75419193393814
1.76665358776594
1.7192711877236
1.83230960176753
1.83012225615373
1.93727988101061
1.80297849435988
1.81203256011255
1.70548089768053
1.77242000595581
1.81294565530105
1.80361534381977
1.78718736608159
1.81906012364612
2.06244653011309
1.92011571220546
1.7478578374255
1.98699156483445
1.87816495938943
2.05497950866808
1.90457277922887
2.03758755273613
2.05508849875568
2.24570575074606
1.93199977395954
2.16107507461513
1.87162572679911
2.0995630706076
1.8529152628937
1.96045366864388
1.82246007048693
1.93793155755964
2.08716708196957
2.05072672670047
1.92064976481391
2.10738056948658
1.95972712018285
2.61730756495575
2.30574272933513
2.14275073964362
1.99538216963312
2.28021923256236
2.21945595775481
2.08928880834974
2.04607328261348
2.04516678721393
2.34585820278142
2.6034283535239
2.04091308847737
2.07656560282998
2.26739113578412
1.99160006752053
1.7403681873322
2.23508309691032
1.95288263988785
1.97895179472227
1.85825931648398
2.19619357717974
2.013344777204
1.8403346827391
1.91913037551519
1.79942023947617
1.75377595945445
1.76818473650781
1.63671507114593
1.64503716808571
1.6217958304416
1.69636104437767
1.56693570291885
1.67138246699972
1.57808396627093
1.64431533334092
1.5387574727869
1.57915708698987
1.52420064799844
1.53246236986203
1.56235346500663
1.55076144634166
1.51708739091609
1.52115700689617
1.46519018835753
1.49147173196159
1.44796302995578
1.45725868677542
1.39716124914003
1.39885320542408
1.36815951137505
1.42754274588192
1.34855655272059
1.33221127817581
1.2530735145565
1.27392110486635
1.20430812052839
1.21149563842549
1.16668576680347
1.14440708819468
1.08795190487576
1.04228187305947
1.03739056547932
0.980415602198572
0.961006464426463
0.949979592079437
0.888783100473979
0.895876015388646
0.846913733930822
0.829551682206025
0.803756971429102
0.791530580380224
0.766076012035378
0.759563756784406
0.73628687131155
0.737425062710884
0.724686209302893
0.724141551641123
0.708158086675986
0.698497018463116
0.693173355018619
0.689103526382523
0.678564887551801
0.686444988900812
0.670278338605758
0.691955684179329
0.689210992374591
0.695546107196193
0.685329215170499
0.700482891063133
0.684060519531619
0.695851364870641
0.686905659389639
0.686264798760659
0.680560649581606
0.672086506446073
0.675802171813609
0.649611049636259
0.643440305202966
0.651626137401834
0.662266151682443
0.660411532050507
0.64681342723634
0.647293608125564
0.636614369178341
0.643100341244183
0.637806875251588
0.650151610344172
0.648329143122335
0.65459253609058
0.640241890168085
0.656745850603666
0.660676365066373
0.654718913015893
0.65857809477117
0.664246221216552
0.658177783865804
0.667725167502142
0.676112185775641
0.664914315604467
0.684871024930023
0.669699264784072
0.678531777208606
0.683622290661557
0.687060160491119
0.68207959447761
0.686723817520949
0.692475335917688
0.689640598106078
0.703639277781033
0.672364312546756
0.699453042972414
0.689778886904641
0.706401279706672
0.704860730588197
0.705394311642259
0.726066109163689
0.710688655164523
0.74155506588624
0.782057907041055
0.75737847099301
0.788344275740672
0.777711704226546
0.816611022454715
0.813547646471805
0.849415905427589
0.861690365059556
0.845411512978227
0.869206221924486
0.854469252291641
0.8522560016457
0.840677512673472
0.856735031384927
0.873215156443584
0.82387344689591
0.847259219645519
0.824040360665157
0.796412739854377
0.8173601031229
0.831023414455913
0.812629082496327
0.826040482925391
0.825333317543681
0.815652066485131
0.792153793811653
0.814403009626144
0.8090535200174
0.823799703371533
0.796877157768391
0.792356373302916
0.812555947363538
0.78602851566866
0.796006104630024
0.797022344412356
0.780723581717836
0.766852407739139
0.783497406591876
0.781233976357712
0.771906960493645
0.777889442254896
0.760578213266361
0.779268352307788
0.740864720873278
0.753723655243219
0.748817306621965
0.777623351622605
0.764993482331064
0.751427079822899
0.765715449583189
0.784957092483283
0.764497286241964
0.750653835100729
0.732633672699674
0.747336466531785
0.728240623106732
0.742754351982221
0.728451953867301
0.750991787474795
0.722859531685492
0.741045268726332
0.740278218598607
0.737630995243383
0.71401101469642
0.761663194164859
0.744447409989798
0.734955146263417
0.704660659454994
0.754727777964971
0.746803981898607
0.740508076488235
0.735479517034006
0.727311945976184
0.73261132704197
0.737486913351298
0.713754323241363
0.757784860563903
0.717965381613987
0.717033052404243
0.728448965435544
0.736857604946053
0.72268866279429
0.753115759952839
0.732024064037055
0.766558997860692
0.752008508852886
0.763718056487333
0.717908723812303
0.761809787557397
0.750228451730884
0.752189366851843
0.737912914147902
0.776923772361178
0.777270031837098
0.827915682331928
0.753574404960259
0.755513207329551
0.760664964805778
0.743771235942482
0.801147556431199
0.8163697512914
0.756396641234706
0.811614354444286
0.817026394053373
0.859581978116979
0.815884741894042
0.846697334688434
0.804650113207993
0.826222167420358
0.830576606420366
0.860963276687659
0.85541976597362
0.872121284341979
0.878211634878723
0.933204659201776
0.912961058957278
0.934186346371727
0.973635458172847
0.98860996457508
0.995663572512037
1.13049761756965
1.08015119901205
1.04138982822581
1.08797732300839
1.07640005641153
0.989619858400323
1.092903240598
1.14207691378821
1.09310051306978
1.09229019839428
1.12759545671607
1.06723017411194
1.08118967793803
1.0235538838116
1.19589277236194
1.07787150941856
1.10449671618098
1.15495875043037
1.1577953882772
1.08640343841325
1.08945262185327
1.00816759073802
1.17063897170494
0.977881675869177
1.0739531469963
1.16544386872504
1.14871639034446
1.11122013930993
1.18295540760186
0.996462644181655
1.08302531134643
1.03860676386041
1.13076624678364
0.982089347284486
1.07516916430639
1.06508164045444
1.14263837449005
0.939675573887247
1.0153548233415
1.03764906266029
1.11697775378577
1.10275013291247
0.994830847049425
1.04095160316881
1.20531509163132
1.05784449021258
1.08219010065058
1.14806182453452
1.07414100649841
1.03421911442176
1.05262015706487
1.06788482794018
1.23753837066771
1.110172089766
1.16264554370873
1.05327468708882
1.05820658755357
1.01697614878826
1.07855840231996
1.08361239857996
1.31332899188179
1.02525899346903
1.09457768814851
1.02614375040267
1.17124490882997
0.993254717855181
1.26575100584947
1.04918687751284
1.1648590395565
1.15465766708264
1.23459709635155
1.13945599688151
1.25578950201976
1.06452886126285
1.13761442803083
1.31013573690201
1.24716251236117
0.911071580023175
1.16384424385104
1.28370052847793
1.44254110400163
1.21185233494475
1.65470104611767
1.03469454871205
1.37437714597343
1.19357957272699
1.6403600005228
1.20121455449696
1.26049894198113
1.68296447126487
1.85761587820036
1.37796066625099
1.93272775379691
1.32376386126607
1.20748310886885
1.12509927456357
1.22232115792668
1.14421321007944
1.27356181758219
1.24500004740911
1.36365046646318
1.36669107418535
1.19585468746857
1.30427418057341
5
1.26254688696188
1.22858097057485
1.13334061917425
1.32751147719339
1.18626990507712
5
5
1.38263791398282
1.21978315808659
1.64818570307068
1.37623159482735
1.48144768841073
0.966116599483592
0.990619827912196
0.989970263808276
5
1.25162064450172
1.24305664246113
5
1.5732997317944
1.30682088839797
5
1.07052399595686
1.4495833280554
1.1478084746449
5
1.80335111001154
1.85645293685147
1.09367816076128
5
1.74290722453107
1.28135420256585
0.809075201903617
1.07524656179693
5
5
0.895725714683263
5
1.63767161270054
2.37634604135671
0.802542992023435
1.54235113135271
5
5
5
