3596
4000.36533379555
650.420452594757
1
2
2
0.0429763304847334
0.0475932525287881
0.0542446632658287
0.0484394910206568
0.0567824368946125
0.0519734626552828
0.0558645947366947
0.0438273240458453
0.0472439137843486
0.0464411551760458
0.0540371423033945
0.0594563468274468
0.059744040802533
0.0360999507060176
0.0432403618493806
0.0468964774064055
0.0497572684805538
0.0428740550974463
0.047161556125791
0.0445979549149488
0.0575317017198287
0.0539836788113734
0.0647331384720059
0.0429579165635855
0.0391324697858832
0.0520731387609657
0.041425975772619
0.0345995745781057
0.0583647250902308
0.0459582893662051
0.045502834172057
0.0362082269857947
0.051518170548857
0.0477440208371957
0.0559999892835408
0.05529835557254
0.054955545907934
0.0487772459082141
0.0496094632203735
0.036223288664441
0.0545729585877527
0.0483830362572198
0.0455876384085071
0.0520550572567417
0.0384851268733789
0.0477751362735574
0.0440842292766098
0.0554750904411022
0.0526499105330652
0.0501344277344573
0.0536227503940583
0.0431531502607114
0.0538015011560748
0.0504662016270657
0.0578736863018818
0.0533591677398722
0.0466835416743411
0.0465877493062727
0.0473709793153857
0.0328176418479428
0.0412559892273701
0.0463829730232914
0.0402054343104163
0.0460709741639
0.0538599631684056
0.0449419144046314
0.0430917868969977
0.0462426693259971
0.0479348111060671
0.0395588473352046
0.0393473136826596
0.0642605202403423
0.061429909397188
0.0467276238107965
0.0476466425302848
0.0347520724958284
0.042892046932112
0.0432846271418447
0.040475859020793
0.0507009438716657
0.0577087517746409
0.0495010795595925
0.042690653322214
0.0422943844423508
0.0393111569770673
0.0499309061604425
0.0347271740080771
0.0311900649630758
0.0615655430953201
0.0423839339822641
0.0435743858281023
0.0433007151841102
0.0470530772091946
0.0446652518575885
0.0453213422732036
0.0451442732697226
0.0508927542783551
0.0443558812917216
0.0457529232273084
0.0254154849087782
0.0471171938298976
0.035782868496322
0.0509117477755182
0.0333766164861409
0.0587390115221554
0.0525754059710024
0.0277566297940501
0.060384035001082
0.0525142648225913
0.0363400880280345
0.0394303890694732
0.0438485065392133
0.0473325516312313
0.0369899461026119
0.0425788526264011
0.0254458953418622
0.0657256627161424
0.049536044020239
0.0438607449891936
0.0317684994579492
0.023366994716808
0.0192541948492068
0.0535753898358554
0.0403044762892282
0.0500237706672661
0.0412885120254311
0.0233992951836676
0.0467814282241329
0.0568876203754759
0.0461172855310429
0.0376230600299031
0.037065371930511
0.042274497128636
0.02686719768112
0.0570705934998806
0.0524466156705448
0.0417286496928704
0.0274232662107889
0.0361422634720261
0.0544251972261284
0.0495331620944884
0.0364602691018965
0.0296938749708925
0.0291583092662409
0.0639565877074875
0.0388683832242942
0.0377521828112057
0.0368220390790082
0.0548026785291952
0.0307947876888291
0.0442269237864518
0.0282342234451766
0.0436571788737587
0.0422818257015805
0.0142889416729343
0.029907074015867
0.0644455014501979
0.0408971123411064
0.0621730966932937
0.0398483653849256
0.0356249798697483
0.0441528453181996
0.031423130354293
0.0296871227880395
0.0346032537758755
0.0385945519113355
0.0440853829210343
0.0460871855089587
0.031343949074805
0.035588112276211
0.0573224857282477
0.0299465323409201
0.0285743198533966
0.0856083046369674
0.0548596630850615
0.0224447513704993
0.0441197471363593
0.0419648768810305
0.0304030258385582
0.0408432731382535
0.0561596891946559
0.0454486398535839
0.0399877616699282
0.0400829831161374
0.0294460942477157
0.04790924825667
0.0458392383830017
0.0505284363779751
0.0397163438952961
0.0174012100519627
0.0304448542064081
0.0683356346394985
0.0523496813520803
0.041391328563216
0.0329047834552397
0.0174999805807032
0.047620531499033
0.054795848230433
0.0421341006758718
0.0373377785526368
0.0376647316583178
0.0353860958882718
0.0390789707933035
0.0388003088314528
0.034092485539035
0.0281257470025047
0.0517202178406872
0.0559613384268855
0.0303809935381396
0.034652420375788
0.0298119764912173
0.0241782206713552
0.061872119659327
0.0646893351302874
0.0324940017705405
0.0310484328409461
0.0298332109491632
0.033480878824878
0.0521907037953603
0.0457589586858886
0.0394245207150143
0.0392580232164354
0.0365418233239908
0.040973054204064
0.0422234792628337
0.0411953756356565
0.0479904273497213
0.0343081667850942
0.0387717857494536
0.0526261234401733
0.0575918899122461
0.0361245090514235
0.0449753552111624
0.0404329870856428
0.0445231245372577
0.0389611331472221
0.0606509300293976
0.0446181727050212
0.0397313067869134
0.0421765923612461
0.0334131431271361
0.0447576756815887
0.0370806571941501
0.0455858041250199
0.0271383577693558
0.0360015520181038
0.0498606027113214
0.0448586048115973
0.0405893012518467
0.0362682905388006
0.0463411043219376
0.0584491899670837
0.0450095436480132
0.043888683175662
0.0504579127460478
0.0381391969934882
0.0323771414830406
0.0472258941210048
0.0424207009024069
0.0379930383433643
0.046980698574216
0.0520484373068942
0.0406049334807777
0.0296529901501458
0.0261209066950395
0.0690222297658574
0.0427673681385504
0.0397169878327781
0.0563710541690344
0.0517663977583514
0.0463875052292403
0.0317295989642678
0.00385221968462394
0.0911652786613781
0.0650675905962171
0.035910172649112
0.0386572264717102
0.0447881280342631
0.0373123279021224
0.0417512212050583
0.0489952770266077
0.0433590172285181
0.0438446072019879
0.0641601640514554
0.0500519408074274
0.0292689076492631
0.037564793947437
0.0575244108945617
0.040149217258663
0.0445385237555251
0.0379711847908701
0.0380131914914211
0.0387633521090827
0.0542666517444736
0.04860860279505
0.0446159800612166
0.0538051014292034
0.0590233935795717
0.0540431848375924
0.0434433565393874
0.0531078466340997
0.0502759408630802
0.0449546225179423
0.0500693856458996
0.0412820109038352
0.0511545492152213
0.032233521463911
0.0266825472295024
0.0736523316911748
0.0426564804004623
0.0447132854859235
0.0604044466485935
0.0513148176819692
0.0529374012846476
0.0504373431819186
0.0480909949060799
0.0466033453488124
0.0382871393230815
0.0530726753997169
0.0644488172197837
0.0522338544362432
0.0522013955285775
0.0531446889497026
0.0526920272116644
0.0545474122725925
0.0596525206795606
0.0510339547829108
0.0509493104379199
0.0476662757058089
0.0412477122746173
0.0642427957524595
0.0611399536907382
0.0524592097274973
0.0662079503389703
0.0706395610070941
0.0673826569776485
0.0576211787425317
0.05997801777178
0.0566048205863603
0.057998622291379
0.0569019818240604
0.0543582581410467
0.0559953435906795
0.0794076411719059
0.0598324831131066
0.0508714994525163
0.035026850834639
0.0985006737566959
0.0692856991160549
0.0699776905564268
0.0601172383853433
0.054964725253736
0.0754638983033954
0.0676614127458866
0.0861287124014728
0.0791607608294645
0.0708194173936002
0.0667283877159639
0.0843704265672765
0.0707589575511275
0.0841486792564807
0.0852726032222596
0.0739583516895181
0.0761215237629839
0.0797354597032634
0.0889395340835129
0.0781475078566343
0.0919414640537712
0.0980114237957947
0.0897765084099657
0.0927815740912535
0.0837784491133672
0.103450668236562
0.105760946538555
0.0890925409938789
0.113585544926774
0.0837588065754606
0.123429997191366
0.0918092661493584
0.108717675314281
0.0902572404724019
0.103292235082056
0.113742011648474
0.115242928018026
0.116829287350587
0.121327387386357
0.114345349392168
0.122596602429127
0.121477857842631
0.127654580134576
0.112810503904988
0.136304011991613
0.127029835869971
0.129305916462368
0.135999503098179
0.125322438957049
0.129270763682571
0.171425132282411
0.140958207751001
0.140164467310795
0.146852962078697
0.140645167014734
0.160154509431484
0.157881328794658
0.153142028277179
0.148726405610046
0.156943153625522
0.174224915882508
0.170760412059343
0.177837135577232
0.163201941655532
0.170730984072597
0.164857302311456
0.173954057589042
0.172040219701003
0.215361859590052
0.17391924186269
0.178446899862456
0.201777643766414
0.1877872153141
0.182138709233079
0.203246175097196
0.202475897480633
0.204668373724236
0.204141386672665
0.212793724697725
0.20833977101016
0.220249959415091
0.21719936662662
0.230229000467648
0.219641844707766
0.22737484095043
0.229394711511701
0.246190909507325
0.233686988600246
0.247670533510164
0.231182372264557
0.25750222991145
0.236786373643878
0.254239675009934
0.258961386863548
0.252893105261772
0.262536673501029
0.252662121275647
0.263344911572372
0.27454128944262
0.25779772407987
0.279773797276132
0.27671939222118
0.294249088552085
0.302434503971751
0.292094026503949
0.291029702197915
0.308904843698666
0.294264893117528
0.302940029708775
0.290412999541805
0.334622618298166
0.322732496389445
0.33160333224286
0.300652415975697
0.329170777413176
0.332885507785371
0.351507272917193
0.322935273029159
0.359846062477707
0.343232685963106
0.330505701587579
0.336508888789651
0.360956422852966
0.365734084458947
0.381440579788726
0.357276468142114
0.371788603669788
0.372834054481519
0.405607071752614
0.373245842010795
0.382970645488811
0.393833018609392
0.421671421778434
0.407034950941618
0.41754405724899
0.422332061854325
0.44267443452328
0.419662816234551
0.430168907997525
0.39931645468669
0.455122138365457
0.417628571435467
0.473765746020157
0.45493972818076
0.456500647220367
0.435667787847135
0.486855375691997
0.475203306737975
0.50153567753263
0.477761983340058
0.46540762471298
0.45467783300006
0.505139720038089
0.470748762506671
0.499096196321802
0.501240628430748
0.538207525770897
0.51559299087122
0.524180427174452
0.513779617553856
0.517096869460826
0.518211424068371
0.548892619665658
0.537441277337141
0.54453343873027
0.561720173601612
0.575252554560046
0.535005613481068
0.570529287891336
0.551767738961233
0.594414679034047
0.544682814288469
0.584524328231229
0.569016968546484
0.622810487902241
0.634036327465343
0.601436791913246
0.603765471621599
0.625065010208426
0.588786454329929
0.662181041807752
0.622162114891338
0.666968165244926
0.613558507286933
0.645944424848822
0.637757258505299
0.668239783447678
0.619815832416912
0.701132653354899
0.660316040437869
0.706488500441169
0.648471085692955
0.727197015387002
0.672774314051439
0.714507978753998
0.685460341870144
0.72204647956559
0.733229540265767
0.736171114706825
0.702891757222255
0.739423020224054
0.691424957132704
0.787751325572183
0.713973631031775
0.75816215282959
0.744207300699847
0.786178844829429
0.741551751380475
0.820720630194616
0.750809949294338
0.815215964329122
0.802721770554908
0.863322668124298
0.745625641937964
0.822052113202895
0.797885780894024
0.784811962403173
0.771843643029141
0.849885771559688
0.787941542669939
0.832457219600831
0.76870154163308
0.815058271682897
0.792592241356096
0.811140440279911
0.815930636595029
0.990203168991615
0.867106738820446
0.871264883892505
0.826612222054828
0.867331146960093
0.805132373532639
0.976888843518857
0.856766568604576
0.90602770402375
0.866517162420355
1.07421635296618
0.893717141235919
0.967676732924062
0.934057693179749
0.960407500012252
0.924167515041279
0.921125459101043
0.902902214983207
1.056920051954
1.00021935038252
1.00299325280332
0.908899913463654
1.08602333144457
0.920901046417104
0.969130212538793
0.961168235538448
1.02869021184397
0.973028500305159
0.980984343968842
0.893082300933491
0.975693036128453
0.930692853657224
1.03004764684272
0.981731187781001
0.961699379805772
0.960576734302863
0.994967142667864
0.955219453894454
1.01449052748745
1.01470348666181
1.17060161928315
1.00635138221585
1.11632121599907
1.0465354637106
1.19597875400149
1.09688946886354
1.1522678239493
0.965423912856621
1.14266342448995
1.09719593987958
1.20699933561485
1.18482960084441
1.12083506120991
0.969837166044449
1.0676910379391
0.972948412152903
1.05906174888325
1.18293381553167
1.29233395530027
0.985834028472081
1.20804962105986
1.23197428710285
1.17152109792993
1.07044908440083
1.06341348527368
1.06778657761317
1.03799749972115
1.20224777697505
1.22142818810652
1.08852915833027
1.24034066651511
1.08039289226448
1.17363566584392
1.24546291985405
1.32310381842026
1.06966824816268
1.21574332424034
1.07515998436107
1.09993756580379
1.12514160571624
1.26975961863728
1.14792903142231
1.37214417474404
1.24820351836979
1.3021003703131
1.17412551186645
1.39136156138013
1.27301711266294
1.24702396259378
1.28891529141625
1.36231576757043
1.1413994494941
1.40124146368857
1.1770484734068
1.20126479274678
1.18057702007794
1.24095241338305
1.23773849251914
1.26697704708302
1.20494871347087
1.38270661363679
1.17178759855052
1.30690920011331
1.20262570648172
1.40606375183657
1.20038142180039
1.23889901257212
1.16935938718381
1.19950562576495
1.15508893789872
1.29979620781536
1.19950424497713
1.35228540491344
1.33640889540363
1.4133484818062
1.33368327602316
1.34257018713042
1.33520735796581
1.29490402321193
1.30533019130176
1.44012693017957
1.24044460471787
1.50761865996101
1.30032811319546
1.36520777254617
1.26486789931736
1.34405531040023
1.21529367821715
1.33245190643928
1.27286863149327
1.35401108500207
1.21763485791898
1.36330524936635
1.24070954809522
1.37198199060915
1.27297275155078
1.30879910093898
1.37090555770293
1.35300495497241
1.2663256025809
1.33830393985677
1.27986901220068
1.38881989408282
1.25522673369983
1.39187412596152
1.2636764545132
1.36802955984672
1.33820263886234
1.43059611591568
1.28999243915393
1.39693421305374
1.35589899248182
1.3943624012557
1.23582708176151
1.425297162496
1.37673307805206
1.48836949193094
1.32185276981723
1.35740302295572
1.30492419954994
1.4117034604036
1.29092996650223
1.31958095667617
1.21352188684522
1.43416097784874
1.35718445025581
1.44910999345919
1.35442843002569
1.34943569700572
1.32794864299771
1.43188865132876
1.18873607758917
1.46092350009554
1.37105261998572
1.26680758839354
1.25731364903344
1.31155693104665
1.28426930571216
1.32844935361993
1.32139704003551
1.43536415043848
1.28372137977174
1.30124416312487
1.18907468289116
1.4332250152646
1.30694702896927
1.32235152102317
1.3583226672442
1.41639984895078
1.28338215986726
1.3572107132879
1.28715029091255
1.46198730735857
1.23548209490243
1.35530441474402
1.28736578364429
1.4688756155196
1.25220810771023
1.3780038553752
1.29723220881599
1.36013861751721
1.26136389689326
1.34846620272449
1.38509591087137
1.29812583248344
1.24520550765252
1.33551046787478
1.16175649858501
1.2523755454887
1.23553282680905
1.25084252783363
1.36884663993076
1.34926472805925
1.27463108216
1.37353708160361
1.19439669145943
1.21273414127795
1.33569427761907
1.33550378802761
1.29870361934334
1.27492197749459
1.27075873911127
1.27085491612468
1.2924861843056
1.35780913576536
1.19104285358392
1.34342635320959
1.24530783285527
1.35141564829889
1.33441341310946
1.26688102245508
1.22108085093198
1.3524839546615
1.24760938926088
1.28397495614246
1.2488436486996
1.21831896219878
1.27025267341338
1.22976869975919
1.15714755381709
1.33526271173406
1.26258073239218
1.31230835669195
1.27982738835593
1.23788171894458
1.15812235889522
1.22827666313135
1.15595874300443
1.25672226551167
1.1619273311841
1.22295017518799
1.17323813087214
1.20229694376144
1.26071487994337
1.25414148905803
1.1381681896819
1.29481039571071
1.1664434020542
1.17535065878207
1.15494192952494
1.1941204154064
1.12449971050199
1.15816076674017
1.15027028709392
1.19503586993681
1.12462505753707
1.19228913078084
1.23085265391598
1.1930926100427
1.14606007571558
1.23688551826057
1.10894437311334
1.13743509896413
1.11868303189479
1.16878186812072
1.0648589337752
1.10020923305844
1.13821454849283
1.07663457234528
1.12919959785905
1.14624920401037
1.08106218602887
1.11111334866089
1.05821424100316
1.05686571130669
1.06174245944413
1.03785092717754
1.05247172443756
1.05477380343615
1.08116872072212
1.04182803468033
1.04857581992295
1.07731137379543
1.09905840134498
1.0869313878163
0.994211688986094
1.04829710469181
1.06711526797897
1.05918774984493
1.01277896434657
1.06983323183073
1.00980300166384
1.03341297090119
0.994715086432689
1.0377812595812
0.956395149371276
0.976468912050938
1.05118829633674
1.00384294630432
0.952627470909427
0.991746121231209
0.975994618488403
0.94765440705426
0.959897995565677
0.975886394035546
0.917002101836252
0.95797935378511
0.956446170938956
0.945066707791254
0.949711511061645
0.967652794414506
0.943824219071658
0.96015370636418
0.916990941214979
0.920527353287563
0.935676547898725
0.943962479969943
0.887146127060993
0.909399218315123
0.87864531649792
0.882595504492569
0.86668317887684
0.89195809736093
0.896824902963449
0.907649206496657
0.862664533265146
0.899201862156581
0.859941061199408
0.872977537793523
0.855921004203899
0.879159333779271
0.851203770402797
0.849430391295035
0.86296305329299
0.880239715988864
0.848736006464726
0.828722744067772
0.836775401593614
0.819859839646726
0.82409507081089
0.824273892066447
0.795711159617283
0.824088174587072
0.798808491089184
0.780013656847098
0.800724250113703
0.784732365957123
0.770753270989294
0.802079097028095
0.780338481000333
0.779068057718994
0.769278767639987
0.76961530037179
0.781740257835544
0.769198894548757
0.760322727562296
0.773260500252711
0.713292522366525
0.740164217886877
0.734388211451178
0.722740331103452
0.719120444965195
0.734728598086354
0.724537425202971
0.715586261118057
0.73020391471594
0.747090308015154
0.705382673298362
0.700214236568112
0.697584405082398
0.699127632153308
0.680209540043227
0.682530668078525
0.667944874185241
0.683143412291771
0.702109004392033
0.689922030747766
0.680733739411219
0.668921994195005
0.665464636656181
0.672717936075465
0.649736448253216
0.652126966407976
0.669122779385089
0.653852501390281
0.63653121527528
0.641121723511392
0.631371767084114
0.63642737483983
0.631168642441781
0.639633023613598
0.607200485242477
0.626495213407773
0.613253528763085
0.614813645565242
0.613650426773069
0.619363628732097
0.617835730976839
0.617861167505054
0.592588417792324
0.602802724761848
0.602965087871359
0.596647177712761
0.576104543900315
0.579604265485038
0.574429100075454
0.573329233162775
0.579425876616374
0.586870287663203
0.570012231301078
0.567323006044055
0.561754061918756
0.556226675438243
0.559715835902807
0.560769336418549
0.556881444258869
0.559456891943063
0.53974870376473
0.544533618797224
0.545044194785825
0.5415749102737
0.527640335883796
0.530428250973056
0.535940973477301
0.536801545000438
0.52806427190555
0.535779738835084
0.523908791467691
0.519679775488623
0.519418986712992
0.510044481854264
0.50937007726176
0.511437383105976
0.505169724045873
0.51341964630597
0.505065142571117
0.50051698352314
0.498802043330355
0.498732799229931
0.487585323063316
0.496093812977988
0.485285320641114
0.494046482942519
0.485568712118487
0.480926658342267
0.478932454510031
0.472717022047905
0.471257192764169
0.47447672764347
0.473823102721464
0.474764787979246
0.463685405626789
0.464592810195774
0.469209403163317
0.46963786477158
0.462688095476243
0.449427524721999
0.446608576252053
0.457502254259532
0.455212780279261
0.450444019819657
0.44329927716578
0.435840618282349
0.437274654615183
0.431656567376741
0.435052838526452
0.441174115525206
0.420413234330687
0.433358632071529
0.43688023996658
0.424003024859054
0.417658193084005
0.420722143838469
0.41217013320202
0.421199113322053
0.41936558997148
0.424308198293713
0.417657921357169
0.420787063752248
0.413121299274754
0.409343441163154
0.413580764172025
0.417345561873355
0.406173680564264
0.403962202751497
0.401033212092828
0.399458844759921
0.396349084112599
0.40860949159256
0.403924710718626
0.401616862174721
0.40049988077175
0.40454823960081
0.398753448015144
0.395660338455017
0.402286062314608
0.406616370262748
0.404805440716114
0.400944896570473
0.402039164597282
0.398464021486229
0.399685387947073
0.401839519309505
0.391085823307602
0.400066805655088
0.401648754396475
0.401643933669092
0.400746841195089
0.400669623165729
0.398332849309558
0.410881053841942
0.40736598721935
0.404339744976309
0.417941110823974
0.415951728957979
0.41380711821243
0.418059940236183
0.414786128855931
0.41896850129876
0.419138229393824
0.428515835285407
0.422284121314799
0.416616375891767
0.421297409634444
0.431182111306526
0.433562069398879
0.44133556575585
0.435934116574303
0.431529124410224
0.438369295650148
0.442677124268213
0.439848335096044
0.448426097359608
0.441539833253976
0.45447304327964
0.450797096581945
0.455823244613564
0.469116504963982
0.465076281046252
0.461076998787224
0.468359738089491
0.475239229387901
0.480815677230319
0.477097239283128
0.483870159416109
0.495516618176234
0.489981472450454
0.477251857996645
0.480000979281311
0.49106889763347
0.512174465327292
0.512168104502917
0.517462471058101
0.511494009675599
0.505123237544463
0.510322378477896
0.512206189871728
0.524535162856004
0.537601915994508
0.530779830330116
0.536673495177388
0.529056228574415
0.521897337865601
0.530904979511733
0.536878253708464
0.544719028676636
0.548213692520125
0.549914353215773
0.548033763067062
0.53842683690346
0.551338171443159
0.552947498522815
0.551855784011068
0.543767013992153
0.538576198001838
0.538563167468379
0.544428395264962
0.543227074188303
0.53270034013456
0.551610143643313
0.54626006993499
0.536546657916094
0.543395800323299
0.543927173680893
0.557729257751966
0.548840741636587
0.539501237868686
0.533992521026379
0.54076941207016
0.539913356121767
0.534477580260184
0.530853669714785
0.531664810377243
0.537261353919208
0.55038147370042
0.545073963302776
0.540557945531316
0.543012259821488
0.541483504271859
0.537414769282556
0.542737155922965
0.533576367083288
0.535991049679514
0.544793854309798
0.539789364648587
0.549756960507723
0.547834082709934
0.539266165300016
0.545750142691397
0.556360969964231
0.548878051695572
0.540757487914352
0.534750116929771
0.540942440864387
0.546118482930207
0.540430180992566
0.534114067660647
0.541419411667437
0.531772875815278
0.531705189032
0.531707246782904
0.538026801428184
0.535282534292961
0.525379114944432
0.526983599548679
0.524889254746267
0.523678241080522
0.522115849468743
0.524334835067131
0.523478886211049
0.507077667661825
0.509513049797127
0.497960178490923
0.500082069867426
0.503832794157349
0.496060969327832
0.499887309374492
0.494263778243775
0.486250452331355
0.475945706144492
0.476635269881725
0.477870888672722
0.465293683709326
0.478614874027501
0.477215137165441
0.472971584597072
0.466385291498135
0.459824321398574
0.456291976727088
0.456251497886248
0.450617885852696
0.450640320952081
0.438913020482263
0.44265160492339
0.439736239736044
0.425246425109189
0.42693165484709
0.428836327007941
0.430400779190498
0.430639198860369
0.419167639678796
0.418994255360154
0.414727148825788
0.403668458965179
0.403276758709559
0.404901623261209
0.400744475706775
0.404009689675427
0.398275451368921
0.384256480878173
0.389902439168108
0.39248840709029
0.400124904922082
0.406133033047885
0.38935694323353
0.383803737055412
0.386816529387249
0.386379515745578
0.385037634092676
0.386181317388813
0.375091809075079
0.372062999698445
0.376686263754332
0.373437114054168
0.372887083137937
0.370169946522901
0.367568445624304
0.365668201951743
0.365810633877185
0.356075602390716
0.357547631511541
0.359440342807246
0.345662495757158
0.357693280988132
0.364121174460841
0.35554152469455
0.354271819227632
0.34681339238005
0.342025476643607
0.354488236503288
0.344190698205614
0.34066208797014
0.345835363458392
0.3435549669883
0.344469187587803
0.339746323396385
0.338226361325295
0.339675290032251
0.334821013763878
0.337565961618614
0.3345075079961
0.331672162723265
0.329472895943602
0.331649413971294
0.326200992386555
0.326648699680751
0.328914406035899
0.332482170447489
0.335804486543039
0.330401229213792
0.31983219874097
0.327119687264965
0.324927132780238
0.31652888917988
0.323475883100194
0.322643785596428
0.320272326605815
0.322664258642033
0.316240731779932
0.317136128432656
0.316127325527127
0.317204767191581
0.311316731386035
0.309559377272446
0.315554037170116
0.312396845862467
0.304583841734038
0.309612087607398
0.306999979426945
0.301748036412758
0.303524428043548
0.307861500219365
0.303855143193473
0.305674084880376
0.303321884093735
0.299246954404239
0.299348902865258
0.306077628486892
0.301029709057099
0.309469227507368
0.300840986867169
0.298185004613335
0.293601176647
0.296362246187712
0.305364760975857
0.300913181094869
0.29324483125354
0.291160446065139
0.293373134475393
0.295766410239403
0.29543378958729
0.294594571690637
0.289752207740255
0.292840800835743
0.292074892893615
0.289876989157002
0.290457445222264
0.292822273060711
0.290626935705884
0.29689967308495
0.293432590778391
0.292580048257596
0.288451794664019
0.292888402694645
0.287569738302649
0.287913596957989
0.289431134023343
0.296092380849669
0.283782425364054
0.284728092473199
0.287152075296462
0.286385240903718
0.280401589244411
0.282835355701493
0.287346616229587
0.28087379010668
0.286782223546194
0.284669119727157
0.280481860122485
0.278869357774062
0.284712844008076
0.277880836133532
0.278736741408074
0.279360163996122
0.282100806189857
0.28127818688096
0.279139047849196
0.276803980837841
0.274948055446629
0.27920476887066
0.275099308950454
0.280490041122508
0.274901932037602
0.274811235705293
0.278608002577673
0.272998822589197
0.269736452742341
0.275332070968236
0.273004644925044
0.268804831578062
0.267281382301963
0.27103675993441
0.268225780366508
0.26787708117435
0.273039982966365
0.269463227539162
0.269152216107331
0.2689454983075
0.262967250328398
0.26551781249862
0.262492773757769
0.263665132680596
0.259858647110632
0.263817282563423
0.263359124185286
0.258795893688702
0.260613901284233
0.256918644632556
0.262703764721141
0.263742939124456
0.252355553537827
0.259275440561571
0.257764017568137
0.255251725077608
0.253979666741319
0.250029869611683
0.256337704230736
0.252861637782213
0.25285368761523
0.249193321544276
0.250223271531193
0.248799998036807
0.247468199528559
0.252335756658136
0.249377565270152
0.238040894675323
0.24864908979192
0.247947633594697
0.243090295111351
0.243180761922703
0.241254124196128
0.242446464406911
0.246611736817994
0.240139909712407
0.237324957738406
0.239092610274268
0.238843850071927
0.23691011950517
0.23336169372053
0.234873478380932
0.232543622835233
0.239795147899423
0.232377708572023
0.234699269061442
0.230995605377253
0.232088993897035
0.225142314045906
0.234365250128192
0.225529930765082
0.229486409330804
0.223916744430591
0.220947242946504
0.223828916895012
0.226024324755946
0.218852562232848
0.224042963966073
0.221645301702032
0.21976050790132
0.215472672518681
0.218849745404276
0.216947912108671
0.210878443012274
0.21720392341344
0.211869334091551
0.218405336106214
0.21545650563658
0.210567057487258
0.215412067326514
0.209842794424878
0.211334640161384
0.211779662195255
0.208934525137761
0.211277384978477
0.209917861778685
0.213690365245249
0.208247276337857
0.20534253681409
0.206682520158325
0.207141079969728
0.206149234275736
0.204832370318498
0.200455182190373
0.198686076769136
0.200110649215139
0.199100899507464
0.204590118160298
0.201320512276294
0.196731971573473
0.198132501800953
0.196562785822578
0.19386695873737
0.196944396958144
0.194381158159401
0.192934650865999
0.192227137053179
0.189852937539343
0.189865957010847
0.189611434837834
0.192147459044214
0.190237413928727
0.188211806045594
0.192340122016927
0.183990066569448
0.190661012429945
0.190658264305834
0.186980734575593
0.184577741676001
0.186730583500118
0.181015527340226
0.184017957996247
0.183139613656574
0.178936832540956
0.181303060956933
0.186933242654907
0.184400954727519
0.181350946976491
0.177946740130357
0.181367167631968
0.181617250617531
0.17419382780149
0.181784497903812
0.176901833245722
0.176685504930911
0.178024478763973
0.174053002743535
0.177117279076329
0.17813919897673
0.179375927974274
0.169492646197647
0.175841890774822
0.173430092011373
0.178654755246322
0.172431301624816
0.175089220132729
0.171031557600102
0.170757649543462
0.175186313384948
0.177986742623679
0.170510205476992
0.171170851758726
0.173659567918135
0.171902918108502
0.166599249464404
0.167713194027031
0.170339298699108
0.17203993000135
0.166962506818865
0.169172445289895
0.169509815101391
0.169084368940514
0.163980209158246
0.166399047879638
0.162321382053837
0.16468753877424
0.169020977338683
0.164134626488255
0.163741728554742
0.164632613047294
0.163211683855996
0.164105088505051
0.156120694705978
0.162787149862379
0.159458145451602
0.163857619881904
0.159659686039011
0.164738615084082
0.161587150155046
0.16515973770311
0.158501239528544
0.163037787320616
0.159055680603026
0.155886374307792
0.157003437292586
0.155293144629202
0.156998087189544
0.160577633507915
0.158445878647148
0.159114753868219
0.158582673437626
0.156226202787362
0.155640263334609
0.153470612233556
0.151598061184924
0.158189592502995
0.151293683525414
0.152638176825989
0.152790296996658
0.152314483565158
0.150069233324951
0.149551501707635
0.150032392254672
0.153256184556601
0.149441386758652
0.152619221848368
0.148922492923252
0.151767374216068
0.15297296960133
0.147605084299432
0.144675912001104
0.15029291383176
0.153018922613207
0.149761556236331
0.150240416810581
0.147485420934332
0.146637790513675
0.14774009672196
0.147130503198277
0.147569522109447
0.143621709451995
0.144410468260324
0.145951810996441
0.141336502614972
0.145885727118888
0.143038189696559
0.14550730000152
0.145226680258594
0.143575022026591
0.144001287732802
0.138455315242813
0.146778839390195
0.138796931722585
0.141953659457521
0.141094598793557
0.139181347638325
0.136128117436958
0.136267336239647
0.135918851241641
0.137328642172634
0.137450361628946
0.138117176551973
0.135251818285504
0.136415402841895
0.136336147292097
0.136194750165014
0.134377324087368
0.133940640037236
0.130378450810359
0.135979627031071
0.13332842282414
0.132424568579933
0.126366221956219
0.129171479041924
0.125553378782402
0.13156058091336
0.127437972154864
0.130351069770457
0.128866826646945
0.131905326865921
0.126376129310208
0.126694249359967
0.122401015407238
0.124624289072345
0.124921420498016
0.125035039534064
0.124759376770872
0.122955263096086
0.122818107148967
0.128307950397105
0.123300846289686
0.120528891321459
0.12122154831223
0.121927227701103
0.116564955322411
0.120528206894741
0.115274470416456
0.123731169322095
0.12133788484032
0.116859362983171
0.113528294492194
0.11688160272387
0.113975342855133
0.116123176107809
0.113880833383962
0.114579208266555
0.111221778436643
0.118114719422611
0.115035055078324
0.108733396684198
0.10884376480554
0.112401883812829
0.111846874748314
0.108959809204609
0.107615087026246
0.111722477876921
0.10972511515795
0.112117222382039
0.109053621173096
0.106719852747832
0.111589921447386
0.109363255153714
0.104034347100628
0.107372798012592
0.105506819388073
0.105068558138244
0.104838112289591
0.104229666758077
0.105809692986701
0.107000107651455
0.100756202777589
0.103848428244316
0.100157013774172
0.100322048124815
0.100390951624011
0.100988024153531
0.103014963540602
0.0997581499436358
0.101907494144441
0.102692551872322
0.0975030723372663
0.0994205254345628
0.0995449427849553
0.100894923704971
0.0963119075992203
0.0972304185709912
0.0967191853034842
0.0957168879283277
0.0952918030835711
0.0971428264023579
0.0950118365830735
0.0976676139651895
0.0996775950252438
0.0990043172735915
0.0945683301626725
0.0993616464794322
0.0952539501300995
0.0958019070204828
0.0929072123507853
0.0923152987380998
0.0918202340026145
0.0910049235975696
0.0917479966000052
0.0934378957118947
0.0921579098656279
0.0893508631394289
0.0918389536296903
0.0939472553261065
0.0941910164648809
0.0917433955867587
0.0869772564342104
0.0872774733374865
0.0877229710958307
0.0869870056273938
0.0899529352477454
0.086768734325531
0.080271373468919
0.0883313209909569
0.0876072514246658
0.0915344944041964
0.0820646480345856
0.0880641322266038
0.0867042026834089
0.0821329732054351
0.0852083894723076
0.0900712606786412
0.0799951664645661
0.0878963206963657
0.0930405213350147
0.0924942162590728
0.0816707800099812
0.0869406038513741
0.0885358918493612
0.0860317735648955
0.0822611253069094
0.0855929459706514
0.0856558057123898
0.085530391215066
0.0860580053779324
0.0891881457962306
0.0872677038251271
0.0826132179787772
0.081146341787279
0.0825207441307834
0.0820498042052684
0.0849524632816949
0.0824317831299417
0.082725453419263
0.0766395821076667
0.0856642738129602
0.0872168155108855
0.088189258333068
0.0804283934330666
0.0812885020066513
0.083735672351053
0.0861477583808786
0.0827153187097145
0.0821652327051366
0.0806422308516563
0.0806008273252662
0.0819109073663248
0.077768753467636
0.0906771304223303
0.0765635437081943
0.0892690323988962
0.0741920379511502
0.0867888104246062
0.0744709774001771
0.0897670712011767
0.0707792869537308
0.085420545358011
0.0750737410925229
0.0856904249262142
0.0709610263155784
0.0858063644981937
0.0733545356227246
0.0840888305860275
0.0728753193150868
0.0824146151744588
0.0820379410118017
0.0790500936003835
0.0783544714295462
0.0789460450855248
0.078508996165632
0.073076796010469
0.0819366502085358
0.0767575466097378
0.0769695766160248
0.077106864035731
0.0791109260851193
0.0782216085921776
0.071959030158244
0.0738850471916355
0.0757230735744276
0.0761045196396123
0.0786742741316179
0.0780194464207464
0.0762495094342664
0.0781904939892208
0.0761837223848542
0.0785790475740985
0.0750143897482804
0.0751665393071519
0.0789701987843851
0.0755991299302272
0.0765979916418605
0.0734501616685383
0.0762896886829763
0.0797664111515238
0.0763656226115002
0.0770341748387125
0.0725293392997446
0.0737216650716583
0.074895392717862
0.080792104628851
0.0736955656666097
0.0756483743857328
0.074769037286532
0.0748280315022115
0.0771656618254082
0.0781451216631523
0.0738401323228775
0.0756993577025184
0.077426255349679
0.0778989706849427
0.0727981569400352
0.075739205371961
0.0770330717957968
0.0758635899190894
0.0733674308534539
0.0751219362340133
0.0738293296643055
0.0803993408880789
0.0738911053802104
0.0751682474302629
0.0761317767047026
0.075569776383389
0.0760012078741721
0.0716755830928856
0.0756096003026887
0.071523183274139
0.077968034189662
0.0753165703972588
0.0762243954104307
0.0751474575713901
0.0766797463924095
0.074495125439626
0.0776543669179753
0.0749921593872092
0.0745552253058639
0.0733540352811794
0.074161997238923
0.0756192344673262
0.0755144342282165
0.0737624778139317
0.0723609052243368
0.0749765680536777
0.0739351906150707
0.0740161464133269
0.0758223693781836
0.0759507420943941
0.0770250581111795
0.0731143971016119
0.0735292974534152
0.0739015458490851
0.074709324574458
0.0805540349521257
0.0733624100031303
0.0750959337579343
0.0770201101505081
0.0742962445407233
0.0740822195532052
0.072745924943158
0.0739524690271353
0.0743911705949952
0.0760176812320904
0.0758825494964429
0.0737932699432558
0.0756346437209777
0.0777681115888467
0.0765342930048893
0.0768409806495454
0.0785512470570552
0.0764215123257227
0.076908957161735
0.0758798963719681
0.0742484023947633
0.0764756670315072
0.0741478554328627
0.0759441277593893
0.0761163936648259
0.0794288105401894
0.0770410002556164
0.0758082811012825
0.0761289916042431
0.0775168245040733
0.0776711401890548
0.0759998634723587
0.0745176916033195
0.0772635342419824
0.0762366345394618
0.077636898001752
0.0771559415565547
0.0752798932361166
0.076967433185319
0.0765985983147297
0.0729078329241663
0.0795095804285827
0.0775355264287697
0.0796685799489379
0.0768925496583791
0.0782682614622502
0.0773321860950272
0.0767268847835717
0.0769988260266858
0.0763638307115048
0.0793321537714775
0.0777467881450386
0.0796874645930769
0.0734954769774413
0.0761808888949045
0.0805645353397339
0.0801367345748204
0.0777606113331454
0.0784459339609049
0.0819283562243194
0.0788655333346295
0.0828509407313121
0.0798345458300864
0.0797484834897498
0.0805764144911406
0.0786841378173852
0.0779331743524881
0.0810687619429063
0.080668574931899
0.0811410781433969
0.0777713596296004
0.079220012412739
0.0790312540770732
0.0796226268394493
0.0809249228748808
0.0821025121705515
0.0800175693418772
0.0797763419176368
0.0817312508798434
0.0836569007959114
0.0788569880761872
0.0842337697121354
0.0829272918771974
0.082943171998984
0.0807049236723976
0.0793651458358806
0.0795601402151001
0.0820373878814757
0.0793780957923427
0.0796614353596618
0.0796368067712609
0.0834199219469669
0.0841017469806462
0.0798957229174016
0.0798790578849424
0.0799421018629688
0.0773833052485449
0.0794391929136897
0.0811565180006403
0.0813050249506145
0.0796695326821024
0.0823248392672999
0.0794050542948507
0.0770027947872077
0.0787144001629838
0.0809293471115097
0.0780983738388935
0.0797467364262833
0.0776977551132006
0.0807867938292397
0.0758374344917851
0.0757783368544117
0.0782273799868882
0.079741616132637
0.0772249614660692
0.0773659401276536
0.0807525505087025
0.0769579751082529
0.0785971855883969
0.0799628893206005
0.0780776095939682
0.0761610789941222
0.0770028179137753
0.0748013943062204
0.0756797472166989
0.0774569975910054
0.0770232361411545
0.0748709316689236
0.0791142018292942
0.0785583259651685
0.0717933556320219
0.0718058769053934
0.0735494156261583
0.0763709328597037
0.0748265150316915
0.0796672292713213
0.0752035377630723
0.0773315407830896
0.0757951492487717
0.0732375309177627
0.0728997639115346
0.076948248046858
0.0759454319079425
0.0749430130293278
0.0746664053045642
0.080557962487704
0.076160003841553
0.0745698957700801
0.0747642606165704
0.0697645695200463
0.0738584126666925
0.0735627470986165
0.0730629391382843
0.0726888583967414
0.0726541312894218
0.0737937157818918
0.0761810703995559
0.075238936794675
0.0738671623627809
0.0738205608219771
0.0732337989424525
0.0717471172015726
0.0750961314752247
0.0729362798260035
0.073666162768225
0.0743860124029138
0.0754553646382799
0.0742667201468671
0.0739702450897177
0.0764094400032832
0.0734718502622196
0.0741756071520277
0.0705855389817659
0.070647669449704
0.0723084391760191
0.0705319963462208
0.0705337894841158
0.073404380091969
0.071804553047784
0.075604354878306
0.0746198104794284
0.0729520560176087
0.0741332232977409
0.0745778183598215
0.0724146218151817
0.0714423001648918
0.0718000128992558
0.0668518383002006
0.0694040649358519
0.0743726789715413
0.0708529285942359
0.0740258290206041
0.0723036132141077
0.0739537430423135
0.07269784882733
0.0734146413010585
0.0723178461168128
0.071929368815005
0.0703176496593131
0.0716967454969938
0.0723043034665831
0.0709139094770163
0.0689944588128951
0.0707316157343083
0.0705070746935552
0.0699782247648558
0.0712270626149507
0.0746111921842268
0.0692691650976013
0.0677545739508847
0.0671539425249755
0.0656884179030264
0.06811644162296
0.0716944404912299
0.0677912062551335
0.0663394532228509
0.0660966124390595
0.0672079794569117
0.0684747389895585
0.0676417533370921
0.0644961164119063
0.0674392968480981
0.0654397506987759
0.0680421456721336
0.0689430378742268
0.0690755215223831
0.0665995497200617
0.0656297018314353
0.0650043609468381
0.065577359999038
0.0608571466158337
0.0670738956556662
0.0681240944198637
0.0647739980458984
0.0629631562866969
0.0640278998486717
0.0627381042300354
0.0635381083896761
0.0653423869201031
0.0642204132887626
0.0611507366572348
0.0627008669513467
0.0617672937471408
0.0648506321145167
0.0612728751761725
0.0625720597909368
0.0637084938156145
0.0652622742037033
0.0617894746157155
0.0614767846919166
0.0616366229176463
0.0609344456214693
0.0569088316916119
0.0619937191326545
0.0580139583618304
0.060116278161616
0.0627052494004113
0.0604509243443981
0.0609297689039014
0.0567998734889115
0.0592264107019703
0.0581552599849725
0.0607449253462611
0.0619404562851897
0.0581319627501195
0.0580136024932457
0.0603246601986177
0.0592429123180537
0.0550765960106302
0.0582711656245624
0.0601870714118339
0.0584164414464942
0.0578018422123492
0.0574082865543177
0.0575861307487587
0.0606074099318058
0.0589961788059282
0.0572176462924034
0.0568296470667243
0.0562721553684067
0.0561298813436011
0.0584310979101774
0.0584783999062374
0.0550159197599509
0.0593578423927223
0.0579753628961726
0.0576381129586961
0.0589683305267856
0.0606711537932074
0.058808972084114
0.0569532670451751
0.0557209535751738
0.0551838692530362
0.056619839436735
0.0559970591758864
0.0574999512635606
0.0557188594533848
0.0570680517699295
0.0558031386038903
0.0563504813067663
0.0577679979651926
0.0585215809814641
0.0554377990602654
0.0541633138667854
0.0539493417391477
0.0547175276300978
0.0524081320507135
0.0525385294737846
0.0572734152417883
0.0574275210428233
0.0499502161198954
0.0607267922478165
0.0555569316641716
0.0557389162913973
0.0560046549533475
0.0561053436126771
0.0506003362089965
0.05568489453558
0.0545385884923856
0.05241370169702
0.0534920303314311
0.0548830139470299
0.05334911276859
0.0551421008383186
0.0524979931869359
0.0537029266772466
0.05246462655093
0.054319094169141
0.0520867435173893
0.0544584641698631
0.0504704419345447
0.0521743445114247
0.0551334152775653
0.0539058809345188
0.0512038918771339
0.0556976071021685
0.045912725844402
0.0590334132522421
0.0563895553142631
0.0515457963756072
0.0524093634375345
0.0536356660411799
0.0539218144330683
0.054469084911176
0.0551908182799991
0.0519314818491089
0.0577394997405529
0.0521541358542212
0.0551224617597672
0.0529554157957907
0.0510052473037126
0.052414315147776
0.0516068316121136
0.0528862563111632
0.0537199429952008
0.052698894777226
0.0539881007982312
0.0544999355322831
0.0530379970065709
0.0555798033210712
0.0510790423346154
0.0501116841226069
0.053850251869945
0.052897801002882
0.053056741328048
0.0546932106768069
0.0546321160682724
0.0498920152517706
0.0617246564045698
0.0545591386716457
0.0547895497280765
0.0525151279443161
0.0539258056783827
0.0531203990289467
0.0530219281132931
0.0538052128359937
0.0519861019966767
0.0542717438268354
0.0531869605850056
0.0511440868110265
0.0535042580393418
0.054485275164199
0.0525065856832581
0.0530767600972506
0.0512858921128512
0.0534090467797508
0.0529930532439459
0.0552773702868926
0.0495929475516955
0.0502739773939686
0.0591047875410459
0.0545503470196851
0.0545658445173536
0.0508384975982978
0.056207395236721
0.053520190333262
0.0538128246258581
0.0513841135069433
0.0554642218839542
0.0545588170906783
0.0542304914631854
0.0517548799367437
0.0529956837515829
0.0491276466306776
0.0560509334542615
0.0535863238868011
0.0529216025745511
0.0511049467975105
0.0533347930195111
0.0528756887802935
0.0572132926523874
0.0494695430375627
0.0560184919393191
0.0543673194278621
0.0554176077890792
0.0438096814823979
0.0506625017836924
0.0675132914851119
0.0503551731542361
0.0588952546479856
0.0537858478704316
0.0571305945115989
0.0530931263159419
0.0516780481317228
0.0550192624745102
0.056402520708355
0.0525036217096483
0.0564654567411514
0.0581557890449019
0.0582185436312802
0.0522183147398188
0.0501266972398989
0.0641428355398522
0.0580077793838445
0.0551124606852624
0.0563366811873371
0.0501457387618587
0.0669189422090534
0.0552729325777037
0.0561083693081926
0.0566815681467053
0.0568608808763656
0.0583079492471954
0.0597427009008192
0.0579416017657775
0.0575305097347573
0.0573755673425713
0.0517386614767954
0.0565436155017979
0.0566172832831137
0.0570151271506399
0.0548204067446581
0.0563770024139565
0.0655064654467418
0.0592918501615168
0.0598087609637498
0.0627557230403157
0.0575293820930838
0.0586784686216988
0.0620200955388851
0.056491317910308
0.0531982455716355
0.0634394009087933
0.0579646781172659
0.0597413037376962
0.0638945235415285
0.0591841193925508
0.061543440727778
0.0615507559567258
0.0618460511002325
0.0611066110025304
0.0502165998169284
0.0724176706181984
0.0590349787894654
0.0686301675550499
0.0621976720947952
0.0678040418124241
0.060656246962102
0.0679421853455179
0.0615330388282431
0.069882259572952
0.0654075146902951
0.0656523245676038
0.0649458934151169
0.0585961779023993
0.0680272538606614
0.064484808515053
0.0673264716173411
0.0628051234292716
0.0636116056158501
0.0679605878744158
0.0725980489730552
0.0544529266789131
0.0701355684645785
0.0697369820078076
0.0723404129125408
0.0728794257859798
0.0563417508605485
0.0772345770403497
0.0734503145278531
0.070501789160908
0.0729082255776773
0.070267562804308
0.0708373327224115
0.0608832410913797
0.0776442529124933
0.0741921707692851
0.069874797437508
0.0774829155117594
0.0675393139986711
0.0715825050389922
0.0800095218267127
0.0762769885562699
0.075474425010923
0.0781707655877476
0.0687929578923613
0.0737076423542239
0.089975543384563
0.0693496289739542
0.0902423884784387
0.0767163181202064
0.0824404306463808
0.0800806118548177
0.0846661074423006
0.0779540136139865
0.0880839340734286
0.083296281892238
0.0845153345986455
0.0789005613600309
0.0991124360233024
0.087346441457928
0.094004134219223
0.0911802241053568
0.0850009373274416
0.0862260477825995
0.105213451092893
0.102710288250148
0.104234031779247
0.0939903381234992
0.100902174842822
0.1048097782212
0.102586272189646
0.103167911493563
0.103752702161714
0.106220993052723
0.106752893840613
0.108311088386161
0.110472613288973
0.110845868658162
0.117839380707796
0.108594502500562
0.114604100818864
0.114924816222667
0.130296877699788
0.112117815872283
0.121250582393899
0.131690905396048
0.125349553678337
0.127252955576571
0.125508121598651
0.129127838413389
0.131736820389767
0.132435336452413
0.126131169348989
0.130222572335447
0.139734310351255
0.132686506470589
0.15235439774631
0.137912866204528
0.144847366586662
0.109943261860028
0.178312549551637
0.170660654575493
0.153036033931833
0.161589412316193
0.130013153974665
0.190904001822657
0.177763628158644
0.176851130777385
0.188655278359042
0.192158677547191
0.190980530888923
0.201619269881462
0.201230753787347
0.210504611582934
0.217091949773399
0.215156095478766
0.207637784356918
0.235042522755058
0.241230709230315
0.255178036758994
0.247728292496861
0.257006090029895
0.274098066258855
0.273416526747332
0.273386758981715
0.287474413104557
0.273682719403903
0.326292644059255
0.303072082287274
0.314749377150458
0.310336617187031
0.324271420556047
0.31957297953979
0.344753441656724
0.36124788217371
0.347020446238176
0.36655743110275
0.357135411031998
0.380782663382878
0.372141180925198
0.395517966904903
0.404756632839587
0.398425881514298
0.411949911893614
0.405762042500287
0.415476596037613
0.414909515508663
0.429472092820209
0.414538482341713
0.417726135603693
0.422150283442595
0.475045167866563
0.447713385960396
0.42667754933552
0.439705775544945
0.426193483791627
0.441131676352808
0.440619329659782
0.450912590051747
0.466543893400262
0.442108127230979
0.448206160707269
0.44486650270375
0.455273840213783
0.447181806741106
0.440568150149474
0.434657531881611
0.448889521181672
0.445810315588822
0.4178139592943
0.470076203771776
0.45451031137524
0.452431123109172
0.44639055667446
0.451083781067833
0.437860573857661
0.439541219965869
0.431106951572155
0.446305621587598
0.436179252787599
0.436485681827104
0.43594817369533
0.440539378678461
0.444605001390473
0.424296919082295
0.422552307800354
0.418040916594431
0.418199168893251
0.408925990147202
0.411033719446478
0.434891780161291
0.412464733129702
0.404514680971701
0.408720524071069
0.396784914978235
0.395749189541109
0.395859190738977
0.389029960458302
0.392573500889707
0.388697658415519
0.397659977721848
0.397031402405079
0.390885739947645
0.391773116617429
0.386193948420649
0.388584981686348
0.381113638463577
0.389249113959989
0.384533474963881
0.384827905417553
0.38190379110973
0.382013121717939
0.382155454556122
0.373078986051601
0.373547870974666
0.380500690134721
0.374544513717733
0.377158152060792
0.374019509615623
0.36935814478895
0.373901162145742
0.373278746368045
0.368417161958809
0.369311873436095
0.367067611836514
0.372420646168267
0.360296136369487
0.365218168742994
0.36508503446399
0.364537243155317
0.362824849610001
0.360722637902716
0.342342868192399
0.375910179125717
0.368387672470465
0.342541079664614
0.351019703500846
0.341419701607515
0.34562826684343
0.33912916903124
0.346025012074784
0.35472084052881
0.339928666732396
0.337777280184707
0.327947315976595
0.330748272601726
0.333399313170968
0.319723272124636
0.319657407792082
0.308733711148265
0.2977643603419
0.32846574371444
0.303546418157587
0.340781606947293
0.314428059969149
0.299625866885172
0.285235835118653
0.325103896259975
0.30011931701159
0.297566975904176
0.303923362995362
0.30090318889614
0.299873129838639
0.29358122621341
0.297671382284157
0.286406973597299
0.27895302903183
0.288715233238806
0.281748898602499
0.279552467796042
0.285348579824919
0.272939372530823
0.279950804198942
0.296576968789835
0.276703603426571
0.269509989869189
0.265984451041003
0.27169433049082
0.254846572051589
0.266327505609386
0.267154503502023
0.252527673814436
0.260209496457816
0.256149113477426
0.254960903788221
0.25583562641956
0.254291446723618
0.242324007534707
0.251397574337821
0.248221599538492
0.229688338194429
0.246658254881274
0.240521834925237
0.258421455042898
0.238233705542372
0.234071836848572
0.222429418394582
0.25091953485288
0.239739966523878
0.235768895463472
0.237221409866293
0.225305014636894
0.233162056795648
0.2273066004482
0.220054011092922
0.229637000920906
0.211147369065351
0.224409463894546
0.231453348186337
0.238761813592636
0.226326411881879
0.223510636183556
0.220327451465121
0.227182902438094
0.224957768511937
0.224402933256381
0.219033914021389
0.235638144809939
0.212661992571577
0.239549683872344
0.237798267661835
0.236107132728949
0.236021644226814
0.23958437470748
0.231125716318146
0.243353280399794
0.247189991151995
0.250841270137361
0.244223354651533
0.26081478205754
0.262298063933486
0.260180569207179
0.264837627891917
0.26989604540917
0.268905235474367
0.283301808692645
0.282682251160149
0.2869988259432
0.294607684231166
0.297361211070282
0.297612879915544
0.324155572060813
0.304267760602798
0.315979378983908
0.337629058880963
0.343861891069326
0.353764973335554
0.345579644283503
0.353124425216594
0.359197018309633
0.3673457390572
0.37250350376382
0.361161468020848
0.39362570095819
0.389482119180472
0.385884095688548
0.392704105496349
0.403767618178881
0.405506006788199
0.405412549023533
0.411026558103708
0.406774809045666
0.43365704869543
0.428748285305864
0.424424816674413
0.426160816840145
0.435617169025066
0.437243685793371
0.438123472121202
0.435313143930542
0.433832099947004
0.453290100213907
0.44590043765861
0.444952218000227
0.456228663153575
0.452947887781109
0.443867428773501
0.451589687839454
0.456381851868784
0.461030330611085
0.468576115293569
0.470276352979614
0.449632575395046
0.479486801604412
0.495019844871824
0.482440700621525
0.488234224046096
0.492443269154358
0.497571758098834
0.500182994224869
0.507489497837246
0.51391066329654
0.510892440961272
0.512022727337551
0.522966449672446
0.519749747601788
0.526483687683489
0.530000790982209
0.535623074037676
0.538836018780941
0.524735506245104
0.522591974210285
0.561431963257004
0.543700869604321
0.543323055942786
0.554867695492445
0.555828313594336
0.551060207864087
0.549074080285466
0.556832053937071
0.571136809920213
0.561341204639399
0.559921933524415
0.555564897603333
0.559667740574409
0.559619773182829
0.557702383435478
0.561961981647665
0.558173163007002
0.558535688589693
0.559920225121155
0.554423727554575
0.549162886748371
0.556537947869251
0.565072045667474
0.552033520110808
0.551933456815333
0.542509949761852
0.553316865294719
0.561161454757115
0.550872508859982
0.557766251553296
0.556345283208754
0.555859595422185
0.555905587227425
0.565977003331429
0.565779749747656
0.566504486883011
0.56142778819066
0.566362419989022
0.579690066331876
0.575314999138579
0.58022167269227
0.581070934979532
0.581748650517389
0.594579621024065
0.581344410499671
0.583768939339962
0.586585879566064
0.587119250326495
0.58245714559712
0.599464247712557
0.595016735780082
0.594255406800851
0.583817321223367
0.585786253683223
0.584540741778795
0.583191118341117
0.572023473620627
0.571985061267487
0.564596745037294
0.557746841898599
0.560603576872665
0.555868492288887
0.547678645336363
0.553247996607228
0.541160283512199
0.539044349791908
0.536451554116499
0.527683048247083
0.53174046713467
0.524276725412727
0.527066362773191
0.525137209671377
0.520760166508087
0.516901971631418
0.513379020601803
0.515266470376231
0.506166313047795
0.512480738687673
0.513668974092832
0.507549865063938
0.511149333601451
0.509653090996321
0.50888362949382
0.508007515842016
0.503430314216137
0.51706902068601
0.502317620753023
0.510480793781327
0.504846660241147
0.515113375886656
0.508181258690643
0.504780451812589
0.511444375286801
0.502818974949787
0.497350139483645
0.505530314125951
0.504796874554639
0.505784551430719
0.501819530941696
0.501133914147688
0.502939110046726
0.500795808296333
0.49712419457815
0.505292370273375
0.501434590134268
0.503698100288918
0.501254144775655
0.495438517052782
0.501343516250488
0.497613323560972
0.499244705334285
0.500085418131366
0.493198538046827
0.496969762964353
0.497316246709492
0.499946503257195
0.498187272383798
0.498829719860777
0.495871035473725
0.495487722998274
0.494680692021838
0.497090692238654
0.490347204941321
0.496472138335047
0.496097287816359
0.484899186022062
0.483332832254049
0.484432751068768
0.472458940850014
0.47408352752487
0.472022080421369
0.465241873355694
0.468634321704662
0.461025226704591
0.455224009757743
0.454541193618287
0.450306695270428
0.447075326422167
0.44385913341325
0.443671320973593
0.434093317741169
0.437190544446975
0.439068064511095
0.435629117456207
0.434621031518721
0.432897792211698
0.428580819879667
0.432240500181273
0.427160265730321
0.426867053942005
0.42884247735625
0.434314079580245
0.434856338777227
0.431689613559608
0.42829087536626
0.432673059067236
0.435417558711528
0.43898743558971
0.435053120881647
0.437550839501049
0.43758496033115
0.444384741907676
0.444300454018849
0.446588785248379
0.447253727095752
0.450711511712808
0.45119200467499
0.456415420993405
0.454240672752326
0.45291983659028
0.456670391257203
0.462265801320062
0.458914775685696
0.45844456813069
0.459726276434568
0.455764675599781
0.452636471964163
0.45860290795169
0.458303553659651
0.457137269945797
0.453590485393663
0.453897621700122
0.450297974591708
0.451577086998742
0.446583138731756
0.45729069980139
0.448914946158857
0.44417239974074
0.446681452765243
0.440878197685454
0.442701325220729
0.442671138093696
0.437555525041508
0.437667449372895
0.430035512459751
0.43258883479885
0.429616171860555
0.433228558201654
0.435665147480556
0.427676948998326
0.428987941188453
0.427075425557415
0.424994518490082
0.420905090057533
0.421620288918327
0.42273575251163
0.422813890025827
0.421788393129516
0.417996196605869
0.419637141474482
0.414252980817386
0.417822977994337
0.411888552407326
0.411791190850051
0.408472563277491
0.406355339419756
0.40005575915569
0.404436299625934
0.400344312283805
0.399413335249807
0.389687195475229
0.39125186263385
0.386049328592332
0.385155838909465
0.379674240798561
0.377302791063081
0.375403290541792
0.375505389384633
0.37301429928078
0.373596660763456
0.368247794845566
0.369636647864322
0.368832128122076
0.371951709671493
0.366390623929236
0.367098068843981
0.365029727646669
0.366131664083641
0.36493391481261
0.362322710613965
0.354798830402924
0.35476155793825
0.349088904663651
0.34746553254202
0.339014725774494
0.336392989837288
0.332129233367379
0.329567456972613
0.32773682054317
0.322515206713366
0.320987632386376
0.322978642730555
0.323901001638428
0.327481803511634
0.332755538420331
0.337496418176893
0.347177694106629
0.35673597458305
0.369953532554776
0.382204937447182
0.395693153750034
0.411127812960827
0.421886453316762
0.443351719750942
0.455772822458917
0.474379604094792
0.487844508636565
0.503074756553921
0.520035133454112
0.539190492438728
0.554541066375618
0.572684401825928
0.579685769349807
0.600208137353609
0.617413421030785
0.628854576503904
0.643390114761477
0.655106828317607
0.666187429737088
0.6758371730391
0.691247636049194
0.702523074975961
0.708045776136202
0.719218735344152
0.727164153725018
0.733192456751937
0.742181309384981
0.753634232497428
0.753842382472164
0.75596510327979
0.761517863565887
0.764374280216189
0.767648488070064
0.756662843651308
0.764163149746934
0.761417017362091
0.758732757697067
0.762710716416271
0.768206304290928
0.766966901111708
0.774350065207532
0.772050320533154
0.776749523646935
0.782123538139704
0.773384715369725
0.788905918057159
0.79383928916531
0.800978069372721
0.800196151748224
0.814816344634543
0.823130110311933
0.816915367187687
0.836313174672752
0.838115194255866
0.853754277798944
0.865007841478822
0.872154458500462
0.893942573434832
0.903085666164453
0.916033176291348
0.918751460859897
0.924069426555134
0.940114930751345
0.946276008263369
0.955855667989555
0.954967901209778
0.957064410424797
0.950322814682034
0.972159682019824
0.961621959075658
0.952672856756447
0.958179537015654
0.948990042014683
0.953394237137962
0.950360650653482
0.95005861547482
0.946471579722576
0.947563309437982
0.944908149451287
0.983842464319692
0.983698627079176
0.999802100591848
1.01404748462497
1.02713673142111
1.05320909810003
1.0375272367668
1.05344420860078
1.11651342920186
1.10340774082539
1.11098338764549
1.13008502724534
1.15062387542764
1.14745509626078
1.16110046734117
1.2106328234666
1.21221001145355
1.22210085916353
1.27351689322993
1.28974257074037
1.28356347703351
1.33531566545927
1.35143816952681
1.40381151580687
1.43449015268808
1.42825126753334
1.45241833419157
1.45598783451789
1.51161331430202
1.51057778926446
1.52818478585288
1.52899750751613
1.53831409618169
1.56982801395363
1.5680318355873
1.57810360500542
1.57846205724392
1.62792561492354
1.59513169648798
1.57114272537914
1.57212830817101
1.56981140548008
1.56161950404596
1.68406085749496
1.57234836246146
1.67409437066457
1.60451797591546
1.62495835883079
1.62165356558116
1.62703012445039
1.59350199550346
1.60015989151825
1.58902638233722
1.62009736096602
1.5979162560193
1.63138331660523
1.64531348912838
1.72117496178434
1.65746749887299
1.67528966085941
1.71949600474279
1.7328845006767
1.80643452685435
1.77033416414143
1.78315594198044
1.93872006889431
1.82174943876744
2.01521193539861
1.86657380128539
1.94249115594333
1.85227904743026
1.7975118291809
1.92890005268911
2.01508208247687
1.96658859590909
2.28128279779311
1.89671722951192
2.0688109340771
1.96030774758444
1.9933401433561
2.01318338825848
1.91808120462707
2.0652647601226
1.88083575355392
1.9378553247093
2.02670062640066
2.1139713960637
2.08371624354917
2.02489297546227
2.5537012786576
2.05544136905799
2.08713512833803
1.98919804507308
2.20792747633917
2.07898542088546
1.97426139928282
1.90289098213678
1.98930221155592
1.7738449785607
1.96103721384974
1.82734859533616
1.77367573702852
1.6689472480507
1.5831142397165
1.6346624050361
1.54780321595091
1.4868093916893
1.50113154904102
1.39999148103935
1.3920218975893
1.36816986157947
1.37377000466213
1.33565804850687
1.37949118095357
1.3352409414146
1.30544443349855
1.27224403977159
1.32920992531391
1.28711828206415
1.2909505052765
1.23951044593999
1.23846342319829
1.1724189489403
1.19277893712393
1.19746738095508
1.13016868868817
1.11268876912544
1.1027151589795
1.10109477965394
1.04460106216677
1.00632115188877
0.994758117550064
0.953177106123396
0.909388614844356
0.869997859855888
0.8339513574493
0.795241280783383
0.756132422833542
0.721098668610926
0.69164084941978
0.65825590795923
0.634843281446235
0.596710316727019
0.58050171952075
0.552013042762468
0.53846620560451
0.517089665859834
0.499860981141505
0.492191343540213
0.470418267821138
0.459104929503736
0.45447290052928
0.440280586799855
0.439382638123235
0.425268635329502
0.427631258154087
0.409310685627228
0.408042523325274
0.413569922805468
0.414295033405977
0.409655740418538
0.409406839617745
0.406653831168773
0.412259928912106
0.415688101579257
0.422197688479758
0.419555454491507
0.41980898408369
0.419732611379926
0.42579275755049
0.424052767327759
0.420849139623226
0.412448749084998
0.413639527002842
0.410522929364578
0.408197631244738
0.401882352420629
0.396358234085811
0.397730533899086
0.39856436966108
0.392661421949632
0.389988373535967
0.388490235108964
0.390459670914331
0.389009980198157
0.389374052165924
0.391818886889013
0.391722590858956
0.393098071042444
0.399860686518449
0.399857934728522
0.400999367212493
0.403604497426569
0.409769366818372
0.417590526131001
0.408333046186136
0.415553343360413
0.419751082949942
0.419349584568205
0.421508728839012
0.428729429855577
0.426189398463765
0.426020118688447
0.42884479484064
0.421339038809503
0.431958233724198
0.42572261713451
0.430454890357104
0.434397457640405
0.431580056200192
0.435347160501184
0.426601538746718
0.439166796622539
0.449141378835661
0.455569735864781
0.467364418693366
0.480279111947824
0.492386718068596
0.497337985998351
0.522283485477275
0.532446619971326
0.532409909906206
0.550645246782774
0.563323383309187
0.573743757238538
0.569225733281586
0.57716918236157
0.572783998169982
0.560036756936568
0.566572625859269
0.560233309615059
0.541582791168027
0.538770773981723
0.529259855639704
0.508901147927051
0.504371402880213
0.507402128973533
0.505409207773879
0.508758162282922
0.512734141232566
0.500122536515323
0.506216266768712
0.50530533170547
0.50841935620956
0.515070439888628
0.510137990523117
0.495199028964357
0.498244808803949
0.497083451464798
0.494502511003791
0.48209594974668
0.485318853595457
0.483025179865686
0.468909122566968
0.463322757900516
0.4716205348563
0.458093906527413
0.444946013507182
0.460533560663054
0.46477514755752
0.440968393656577
0.429550152411906
0.431591828767667
0.445541635584828
0.419896976944452
0.427132725555002
0.435998744548613
0.421343560907626
0.418299397458772
0.420035559755272
0.408695080724819
0.427761175125611
0.413506715899255
0.406621113088036
0.40611023824579
0.409679785458824
0.405417643134919
0.394212041959468
0.410906317708059
0.415855993986453
0.401191163132173
0.39615288398341
0.400846336052482
0.402059764267146
0.383566318744859
0.382677155728848
0.384899929708568
0.385655575310887
0.384142481209206
0.386498526912053
0.373092905257778
0.375641005593594
0.375258408527904
0.388196389335328
0.376836462902884
0.368086096379402
0.367840742318704
0.384650661232888
0.373275544243972
0.388570078122303
0.379780422429653
0.370269239906219
0.377955044977931
0.378177274494369
0.371015809661158
0.384468163288456
0.386872620016441
0.384059329514482
0.389709675198405
0.406344947266122
0.398397571979665
0.396724250056343
0.402244650952054
0.391271770385515
0.39569691434615
0.414935500306647
0.398313092797487
0.426071218394643
0.419607494473889
0.421813130268283
0.42610969752816
0.422120533792173
0.442100335379075
0.441239360163743
0.437000352971364
0.453594531258591
0.471360899937788
0.491417248425686
0.493224775569763
0.503643427379791
0.548779142562211
0.564259196953568
0.531945059339159
0.570191017381298
0.57846354360511
0.582358014093529
0.616546123535733
0.671867909690075
0.639926565061288
0.653271747029838
0.651548869345823
0.659996642614447
0.662533662987233
0.672403025723667
0.696774622438522
0.664206712731657
0.67130716534138
0.669218828569424
0.648745055555724
0.672015625839664
0.669237379434845
0.67644128222692
0.630285375745925
0.661968668523063
0.641356264754242
0.664275710699756
0.669767678855076
0.659046653914606
0.664312476809043
0.670816108547416
0.618824729538191
0.620843693669312
0.630254290790475
0.636135343698082
0.625617329480932
0.618256382849854
0.634200922966927
0.615118572293341
0.626605220880411
0.616545614883748
0.626109843996484
0.59768413985626
0.565446075300901
0.596018458586053
0.608745916162542
0.616004629314541
0.564350410744485
0.540132569699364
0.565097177902717
0.570332610293147
0.546392082987317
0.588028225151947
0.599129404144218
0.644855912134771
0.571034013951449
0.599610968399417
0.58296124127011
0.550717487392151
0.583865903472628
0.625452567978854
0.605851438166623
0.613030266679485
0.591423195841415
0.618518624929254
0.550191706247632
0.580756926485607
0.660920352232537
0.575823936613381
0.554396686918765
0.664196064300019
0.633500963875917
0.623309071448443
0.594504267035985
0.61369609813521
0.606275471050778
0.627230141340953
0.594277328805527
0.646976229293903
0.697966596850529
0.579014834034126
0.641361166334663
0.73732330060056
0.734826317811689
0.669426590498606
0.635343366503977
0.762065661119561
0.715621895086402
0.653697122340628
0.724253360116194
0.752406565282698
0.660496627478913
0.730059666675676
0.722049913886217
0.896218140157685
0.93112443742073
0.787991090395883
0.777145585942315
0.838568463527733
0.821168183374763
0.868674253870722
0.788531325210716
0.986966375352494
0.810905492983416
0.730894747522676
0.83611974781279
0.819753066282504
0.771553713591577
0.724355371188971
0.713497166861569
0.685192334434387
0.796618470056508
0.636481547735643
0.733901357751412
1.02513135087154
0.823720343968602
0.896598635195005
0.936459218847146
0.864924654236446
0.612556031528367
0.715450010508842
0.906491382980089
0.591865580658179
0.89632466515095
0.946434537244599
0.593914742770302
0.837761426823507
0.600822297854032
0.843259050216627
0.898459286624761
0.708290075593442
0.940667180805806
0.868256835105639
0.713786718778397
0.65121969963607
0.6287736413533
0.933326382699687
1.66286470981853
1.14444755344092
0.76418471473986
0.817639056566688
0.751474359273668
1.23740419209798
1.0424277044134
1.40900276868848
1.1567158349142
0.753816286073832
0.659415111476641
0.820685452832338
0.795914250480606
5
5
0.845075002935454
0.67018535058903
0.819114004399504
0.741351824943543
0.756994701884429
0.784614344178849
