3596
4000.36533379555
650.420452594757
1
2
2
0.0525130615717836
0.0282887664607923
0.0431356066338605
0.0194991801478308
0.0545736089314589
0.0312802135915526
0.0489603132869913
0.0241516261497409
0.048293238141411
0.027385131441347
0.0532439458980632
0.0366211320906355
0.0498718114836454
0.0184709602772112
0.0493924028810303
0.0148260145755295
0.0354695160616463
0.0116733470098706
0.0381523004138764
0.0274844841084281
0.0417137489843105
0.0218957213194817
0.0684522085954624
0.0188220125151551
0.0393863584909143
0.0367901408384302
0.0423980622304002
0.0276314919359169
0.0523625820554824
0.0307066771377739
0.0467217584122149
0.0249484423494531
0.0431255747297649
0.0246678217855902
0.0460023735469318
0.0263353429440484
0.048440182145882
0.0220697889311738
0.0484765831678798
0.0179501966572584
0.0559417419171151
0.0235288739197137
0.0530867906125221
0.0300536997462372
0.0392876799828351
0.0283246746252877
0.0511382520553891
0.030693888896322
0.0409628791883989
0.0284447277185626
0.0551571873274879
0.0207847814036062
0.0500556944769969
0.0227267303142709
0.0408230424964716
0.035926442256697
0.0445666129728947
0.0296252358941221
0.0493978231728868
0.0024556489414325
0.050627918277279
0.0407720100087567
0.037746237535737
0.0338610583342097
0.0493270471188727
0.024934239814231
0.0334245725320577
0.0249365541702857
0.0322855813934477
0.028227361923523
0.025368367918039
0.0357925816933785
0.0684327417454385
0.0340396619651144
0.0392990670541312
0.0245905261224673
0.044889057481657
0.0301449566997134
0.0281859086578713
0.0270002706954933
0.0457350393549013
0.0387309188371618
0.0397628066993027
0.0223294829511174
0.025880441709469
0.0383508636328666
0.031505993176806
0.00812259918668809
0.0637440079586218
0.0403535605351899
0.049161943300884
0.0255307685997632
0.0391851498817036
0.022812144295489
0.0357075513971295
0.0260777577004431
0.0397413086684944
0.02246517107961
0.0378484692763637
0.016914807153197
0.0378328806441803
-0.0154299546041054
0.0949525915252129
-0.0147491553469494
0.102906438847395
0.036152570022473
0.0146405661445277
0.0740432503592212
0.0587436662149996
0.0341038124729463
0.0343917178345353
0.030673443096767
0.036495455054455
0.032225602557542
0.00619123337219882
0.0282939841793477
0.0738847372818423
0.0416255956440602
0.0418779820322537
0.0228180386144513
-0.00507054487897705
-0.000764629240047879
0.0874614390246945
0.0161265892528315
0.0588735007496829
0.0197613035881968
0.00752129763021942
0.0367023549241185
0.0846958077157159
0.0254804916603523
0.0450879095669743
0.00904131277120463
0.0404315832858122
-0.0211576966789743
0.0833044825360592
0.0230807004296824
0.0443334760181178
-0.00746201710758123
0.0364432548145752
0.0787962276348115
0.0560462797520956
0.0255808186462421
0.0161524650588551
-0.00917739134601134
0.0874447719517108
0.0365710266674398
0.0233259819747463
0.029069805401004
0.064185726181782
0.0156295555031395
0.0408245138179721
-0.00246090567117333
0.0614218269374215
0.0276081532066758
-0.0226767896456981
0.0153741245150002
0.119950827441505
-0.0116376766992554
0.127073032323412
0.0124223677182145
0.0633753891327404
0.02610078264644
0.0414563346957596
0.0108099732882222
0.0424074076512659
0.012304124508929
0.0275177093104844
0.0488764318707853
0.0178059078087208
0.00455037774363818
0.0658705487864929
0.0313337175045574
-0.00296814985317073
0.0871430256600883
0.0624040777052113
-0.017145364467962
0.0682505012133036
0.0401854411843683
0.0213351236042953
0.0108061048279742
0.0738486201007781
0.0289896537361288
0.0431940385374462
0.00919220903507511
0.0320351029936905
0.02737683413358
0.0461980170449254
0.0264686473136134
0.0491069959120462
-0.0198502250567187
0.0318172681328611
0.0484569516524467
0.0852133282987131
0.0162857670194281
0.0501281880655712
-0.044803430303416
0.0626931308557839
0.058680626816577
0.0481666226196124
0.0275861228067784
0.0319196506444111
0.0183722997959871
0.0334631619597214
0.026965719096607
0.0357188212605853
-0.0350958715469439
0.0751861970721706
0.0437013734768981
0.0390296197570906
0.0144892806653296
0.0317881599719625
-0.0322358307535839
0.079431319768054
0.0725989853099691
0.0397346098226447
0.0369035528575752
0.0163876687080326
0.0200620950896339
0.0640962795602868
0.0267239276191196
0.0464776711663844
0.0179724298036613
0.0391569078776005
0.0235366269336508
0.0417594834971902
0.0285550442570799
0.0413348912735741
0.0179368643197515
0.0325308275606333
0.0240161539860459
0.0518366949525403
0.0302708923975539
0.0460754770464569
0.0251194572819055
0.0298369358014708
0.0175018087477074
0.0713769117274511
0.0218529361659242
0.047284008348676
0.0207146981387853
0.0330930620162746
0.0206296493255048
0.0392434126532006
0.0119036047628514
0.0366695281591156
-0.00989396106049659
0.0868323227392157
0.0288407770990726
0.0460391806510151
0.0065187807578297
0.0467952016849947
0.0600141369885023
0.042645824946942
0.0326119900916397
0.0435711508724011
0.0091915399105175
0.0107927931096084
0.0503302679742997
0.0451666035865024
0.0138089697175586
0.0431181781653179
0.0436714567908114
0.0297835144645374
0.00805549015564051
-0.0232818010724888
0.093111857241439
0.0629557102396061
-0.0253137036983239
0.103360599785576
0.0549569397722236
0.0538866871998137
0.0273444648486709
-0.0577881978948427
0.0995606139286531
0.106433851180875
0.0300469148398852
0.0241266287849746
0.0432959818965345
0.0401107120345678
0.0196742155676714
0.0448734679632822
0.0109299723030241
0.0708565057051754
0.0370037991301427
0.115283939581997
-0.0100790289215571
0.0473775889376049
0.0581333975043958
0.0354919343079607
0.0388632586637116
0.03766104811269
0.0186698094520339
0.0418208776180223
0.0515294337090011
0.0423270584025535
0.0391836104557054
0.0296238270946086
0.0679383612281308
0.0509399557921505
0.0334455097791981
0.0448366952990276
0.0463155005673519
0.0428992297564697
0.0424672740713694
0.0295365524333551
0.0376881821757569
0.0317509129708686
-0.00525671426181611
0.0991254763530421
0.049363241289345
0.0302289557579937
0.0696567666669388
0.0531913315713992
0.0431580190630167
0.0400267710768316
0.0394897401682574
0.0415828266422163
0.0217482717679717
0.0276455543599419
0.0613998400533896
0.0606676678307366
0.0413789139168235
0.052073817341556
0.0336667315050573
0.0470743481447965
0.04214378690709
0.0516750540326454
0.0430962934886136
0.0512477149481632
0.0240995104319181
0.0553188777409981
0.0642277828574699
0.0286781910419923
0.0508323217876023
0.103111025997755
0.0395346592867553
0.0621897748666516
0.0408784564924894
0.0629508517807828
0.0431481332074944
0.0522990388164821
0.0372224202041343
0.0503882977354395
0.067476095838551
0.0669815407547242
0.0263064153942397
0.0389992732765198
0.0723815299638546
0.116738617961429
0.0772352999637283
0.0658848277799737
0.0212796959498029
0.0639051717060384
0.0990101297074527
0.0562141934232219
0.0913424527367135
0.0695220540512854
0.0635757637891249
0.0738297661723104
0.0629469408902103
0.0717716152510792
0.0696899915113816
0.0695947508454747
0.0677053687037328
0.0768144212745807
0.0756944158679803
0.0692953592112726
0.0469395306556434
0.125867791421088
0.0917949347909867
0.0856663200600855
0.0754779700187214
0.0655027909424749
0.0711363924024003
0.110428154621759
0.0772093565164282
0.120852204933278
0.0685368306219154
0.146879643169019
0.0969752210291652
0.105510823745141
0.0930250411059168
0.100978309881443
0.100259541802163
0.111703279596256
0.0995046451729001
0.115144968880298
0.104034996854837
0.117359280542914
0.105000632261513
0.120038778720119
0.103133873943776
0.141626124037728
0.121799656127188
0.117199340754156
0.098121298791893
0.116248221235026
0.160331266206335
0.173521408591302
0.140535762259307
0.132134230800808
0.140140862934848
0.126490302723783
0.13511857940505
0.143561336293801
0.151173624544359
0.139988450090694
0.15162192646369
0.179217679142394
0.155841516108178
0.170028714877297
0.135409189131697
0.167965123798806
0.16029529141612
0.145758648141574
0.197671142600088
0.184261713545711
0.148863390936155
0.177826212679539
0.197882099913907
0.172819038692327
0.195048880340601
0.179630084737376
0.181885296790369
0.190424677895487
0.175616167188942
0.209947005121345
0.19643887042697
0.216747714570255
0.200708993045715
0.204854557420727
0.202764790813649
0.202054292504278
0.211922674694908
0.236724687674125
0.208820506072748
0.23768566110107
0.228904304843886
0.234207304633316
0.209726662866547
0.226190722734189
0.250498521616572
0.223007372601085
0.268696088247479
0.254399634477629
0.233129517709672
0.255560693649818
0.25572679519434
0.25516028889465
0.248309086562039
0.277021709981014
0.259601641172508
0.275343451781571
0.279650831400624
0.267483113339625
0.268336308160819
0.287138404600727
0.293065113722768
0.307209806877632
0.284569471323606
0.304328733824316
0.281074056753374
0.294759749649916
0.348408222483779
0.334383404492601
0.337688818329948
0.328898015898465
0.322134934894924
0.331803783660173
0.328220839937565
0.329971506566252
0.3446974234127
0.335581021074473
0.32239690452825
0.347250253322859
0.349388892021219
0.376924499694699
0.358678678375747
0.346923122439827
0.357766579143818
0.397246959293738
0.386756805824898
0.379688293433779
0.363448998670186
0.390071803203435
0.382635798467201
0.397474511856059
0.390220532297693
0.400426021566345
0.390806535473694
0.423769479408443
0.403040670777217
0.41862909184781
0.434415027122945
0.412089784332206
0.418378161588582
0.441259982527676
0.438482344103439
0.434929858192098
0.433262204985458
0.482463727044723
0.472264424363741
0.467297080226576
0.464633383625804
0.479362478741422
0.507713634946067
0.480121343966432
0.47769240132373
0.47663082719037
0.465049030257567
0.505382321833118
0.506229125567312
0.505561640275625
0.511076616314814
0.53649815823124
0.541218867077974
0.514024244244925
0.502102767228278
0.534578104537744
0.525005300164834
0.527957008566841
0.537335130039284
0.54100962985445
0.529027685895199
0.551570087827807
0.56844612886074
0.565151722868233
0.553130708126742
0.561664067421321
0.58160767952555
0.586990599609915
0.562062081971421
0.580078491012212
0.607771159041683
0.563597806740089
0.615281963234587
0.638483367746074
0.618125394734078
0.638269015648886
0.623943328049803
0.610412210664478
0.621052842934289
0.629388100146611
0.639325917041461
0.651625683058145
0.658816459372631
0.665163027305249
0.637723343677271
0.671193698687622
0.700139164156859
0.679799693486025
0.684875851080691
0.68726795630067
0.70287996835916
0.675486328243446
0.682743741066434
0.659793973157658
0.651100852656685
0.723475027154017
0.765550197376171
0.721887388201923
0.712041317301262
0.705838634914285
0.732935013368936
0.728390315601595
0.729940041862089
0.716897200383091
0.766755725457742
0.738922098908061
0.757820239930338
0.761127082603539
0.772104276379483
0.778217520941326
0.769707368151648
0.763744967340069
0.815482342954874
0.829285246323195
0.815050352660255
0.769342275649269
0.842298313546301
0.869846170009283
0.828929923078407
0.837005357389222
0.851758225169102
0.84757873968215
0.845503061014812
0.828278048540867
0.833732928864546
0.796698089865386
0.785671385172552
0.799237481598654
0.879500564646629
0.909392741453655
0.886993546220898
0.92007514229526
0.905904465281441
0.78121340193297
0.892772966656598
0.905083606815828
0.872881002456386
0.859227038170125
0.93138072384033
0.864910952398823
0.841012092730462
0.895307312682865
0.946927972204236
0.88843707504829
0.863969823283107
0.869413156237153
0.889325977717501
0.877836312760775
0.960769000424577
0.938753550562585
1.06589316460376
0.970434658291462
0.958441714124337
0.941867116500007
0.976658353944787
0.929237884912152
0.979589744904194
0.910893172837259
0.978481679282615
0.93423137637169
0.982790820987693
0.983964954294634
0.943113305315966
0.929465557381989
0.949341564955282
0.953356140926782
1.00080499307889
1.00375025460489
1.05976261160246
0.967361360097222
0.977482652496372
0.993074272100598
1.10383523815655
1.0228587723408
1.08532570753497
0.967562891732178
1.01656616846107
1.00815755656307
1.03532178626114
1.01453277145177
1.0919832950726
1.08938878698556
1.08905861553427
1.02757580830484
1.01079307833685
1.05542137425289
1.02727320894664
1.06052698570606
1.12699409953093
1.08368770805029
1.16258172167887
1.05650986266128
1.0900747659993
1.03883106574383
1.10267930270012
1.0785062347705
1.1388000991753
1.06085171426601
1.0776924247406
1.05193562295351
1.06323214206768
1.08001985421431
1.1451711459394
1.0993705257954
1.14968702169895
1.0784516736173
1.07980131531387
1.08840847506857
1.13722053469471
1.08085599116569
1.09735459748774
1.09620051963871
1.15509140205535
1.0280283083757
1.1018702929919
1.12314544598663
1.14571860254991
1.11344172660227
1.14757171867891
1.14455002280433
1.19188238492427
1.07953301647712
1.12556848463672
1.08958618282267
1.11974355501117
1.16944278314515
1.24308636823
1.17127251331673
1.24339145552702
1.12122343330715
1.15893525168916
1.11952844547513
1.10754269907443
1.12523524662046
1.24725427885741
1.09341731893705
1.17381228860057
1.13945800145192
1.14745363245764
1.23472729698158
1.21004925547302
1.04733280183469
1.13916900186829
1.1727857167675
1.1995855435944
1.27576291362096
1.27261523080328
1.12499832519138
1.1791360856193
1.11257837824874
1.24103036495789
1.10503807608618
1.2626259492651
1.11777768958713
1.18661378888203
1.12889806569733
1.22250255722229
1.13448610598998
1.16195159666493
1.10662086037993
1.30625427731655
1.14118151146489
1.151676014983
1.18104033741655
1.28011483261944
1.11901214360644
1.18185807286393
1.15850368449971
1.24343705808101
1.18789546836025
1.21147767901177
1.19064227760745
1.21970699691433
1.1101359865994
1.23332384668032
1.12399351677498
1.18261056184874
1.12924880541082
1.31993153462125
1.16853024455466
1.21376050607245
1.16239593925911
1.18981901831316
1.10855226067151
1.28571384175953
1.15676829756239
1.18075105070991
1.15803300009617
1.15604451248187
1.14735947152466
1.09659526895887
1.11788303252114
1.22864971860982
1.09426783433511
1.21580784918048
1.18375528458789
1.23180356804517
1.10432138782143
1.20031664643468
1.15720455529416
1.17771846412038
1.1632275416142
1.17302791286256
1.13274147957722
1.17457714046402
1.15041432711784
1.19064743047082
1.18606449839838
1.20215048670166
1.0977205827078
1.14889970671485
1.11243966162492
1.16387578127615
1.07400717789004
1.15397285160779
1.1503660971108
1.13014022090024
1.05309052683553
1.20801813371664
1.13731625552516
1.15646599970746
1.15115061166954
1.14714324350026
1.20755273120213
1.19538829493207
1.14993945069695
1.21599389567997
1.15742158157286
1.2874565236664
1.03642402632788
1.21324122273241
1.08612458672005
1.12884536583666
1.05668588849192
1.11371916611786
1.0920047690996
1.10035098000479
1.08804752181891
1.12506600855985
1.03698797632521
1.19080812323994
1.0601541406458
1.10771426753861
1.1014425946564
1.14222117534533
1.06521559656569
1.08240225822441
1.05625801160904
1.03897889848076
1.00596415034619
1.10255701610855
1.04633717921266
1.10097093888719
1.08804947121852
1.11187344259851
1.09090560927911
1.08990912178101
1.03784791923075
1.06219024247577
1.00551389234568
1.1105580343865
1.09714425211817
1.08379921287913
0.979057098693101
1.09187953269943
1.03923353540857
1.05599084577846
1.00060635235788
1.0211935189911
0.986894912711905
1.07211025768465
1.01436576788091
1.01323327232624
1.00552507796219
1.04489344357491
1.00054659660298
1.02315124639901
0.99796463718101
1.01485410728691
1.02945263839857
0.984416010086192
0.95911279108833
1.00650829531864
0.977032496017849
0.980372526358186
0.952514159933813
0.981669358865171
0.97184146302125
1.02146487238994
0.952330968514019
0.987991340581836
0.953659676959171
0.971534617792174
0.949304176279853
0.938412437835504
0.923314975640892
0.989072900478996
0.960746459993478
0.960515840624235
0.874097781967659
0.992049665430159
0.870326803029123
0.912380398483514
0.900640524221715
0.941201889206468
0.894358721051536
0.948588231367648
0.862326840740753
0.925423462878087
0.895181134860673
0.90639492807013
0.883528177183928
0.895333032600675
0.894741897717591
0.871488444189301
0.883609869723406
0.880277733021141
0.839810202825075
0.895242933938162
0.820208135028909
0.866657164529704
0.833905968541089
0.894814305909426
0.804370910226728
0.861754218908861
0.842338405848403
0.864724008641537
0.808519803285953
0.820160340716561
0.810531973870621
0.836116181923468
0.792894716988483
0.82846696829485
0.80205011432269
0.79572286038924
0.798795773032271
0.810244666820362
0.77855751597365
0.803693550827456
0.776405433489872
0.773841098153685
0.780101075306665
0.803170435327011
0.767619714210276
0.789152162285644
0.738778265888124
0.774277310386214
0.756836028770081
0.754101587045467
0.72163760771752
0.776141916871805
0.726940988498297
0.754533521683927
0.725088162395662
0.732334120843871
0.705892805034749
0.721196952640607
0.701160331663423
0.727055416174294
0.699518255580573
0.728778877281396
0.681153998760557
0.726211745187705
0.689322142428149
0.685776297215877
0.670445398928935
0.699231402139045
0.685386361000946
0.668745488383682
0.67298712275646
0.675220166505164
0.67680681264606
0.67931308021117
0.648228776731315
0.664775407834414
0.629989702186778
0.659670509701297
0.635986199839219
0.66433639204126
0.63317913285983
0.638657595683393
0.608548538492055
0.636348346442133
0.614920093098987
0.619839466322011
0.607512633761349
0.633052485086792
0.605033719729115
0.612622997239167
0.601267497491408
0.620022478202199
0.583620609788904
0.62176902824534
0.588687896861632
0.599777317562796
0.581907729998569
0.590436282985182
0.576021872044958
0.58515206900249
0.588151166152645
0.601060779671774
0.547692025751132
0.573697450983283
0.55427468756756
0.584690333245769
0.536539322782688
0.572410039329109
0.545172118820822
0.557668385919777
0.546197001114155
0.566564952701457
0.528591776041313
0.538926557392782
0.518873861238591
0.541525431391646
0.512853357710749
0.545605334038668
0.518890800211797
0.53424980883745
0.509442397972366
0.527834993173076
0.508396918848694
0.522198596591096
0.494179908306572
0.518606447251123
0.489589325770564
0.499820003829176
0.495319829551505
0.497491749366781
0.48436078276045
0.501577343634679
0.486378593582166
0.491833135330654
0.47295130717111
0.504729657585293
0.468316053263743
0.475579749006616
0.458577713033012
0.479067459966128
0.466070081795274
0.480099373001372
0.464911415956762
0.480099956787204
0.459484629763468
0.478064714724505
0.452309581691756
0.457055364469768
0.427173933344894
0.450472945401502
0.434019173263712
0.442483503355209
0.426561812253498
0.447029177257738
0.432331237837969
0.435989262128096
0.42767165203389
0.433991676059652
0.415007310196928
0.423701290306481
0.402828184387107
0.441432380289615
0.413435218075893
0.421360464806678
0.405464752988436
0.420255457743791
0.399975309700157
0.414780637517061
0.413098017744971
0.408960367083595
0.3899341333959
0.398166891719081
0.389922636622186
0.397602393721165
0.382204513796974
0.378823237678191
0.391792732032396
0.398780682031412
0.38077173838473
0.379930512065064
0.380774514131944
0.397955934493325
0.365032811677006
0.375208058336308
0.36115092695527
0.377149178329922
0.357487684548471
0.37389518244968
0.355433567117716
0.367103294139875
0.361070867975391
0.355461700468063
0.345135692831622
0.371891013251721
0.354303887482526
0.35346470634082
0.347855826258429
0.357967826963008
0.342315845480434
0.347251731583611
0.339188142906004
0.349553510128826
0.3404799715811
0.348473563988122
0.341160897540129
0.349031959642595
0.329902890171933
0.35657853679132
0.331771266190376
0.335823364905633
0.329808895579682
0.339389934982728
0.327761862495657
0.337074417009957
0.328679728151571
0.330422565741671
0.32969270865501
0.346664807953134
0.336734981611514
0.33962085420194
0.332306090869339
0.3390546009354
0.338006075869369
0.334262316921149
0.320086497341283
0.341624776232792
0.328362213229096
0.335067431208837
0.336983502702902
0.350083969733845
0.340007206559878
0.35531959073698
0.33669231285972
0.350478188384125
0.345577207483212
0.357687012954109
0.339356330243071
0.359545131399601
0.364874289020986
0.36879189158292
0.351696360506031
0.364983944549648
0.356983004857913
0.37299423049905
0.365750335967111
0.38029367414766
0.356558242924369
0.382373932634034
0.364570394374382
0.386967944863076
0.372943109151635
0.381843362310664
0.369331670733856
0.394053087814733
0.379105936275914
0.401137657651908
0.377216602275145
0.406140324770322
0.39674255955194
0.398767913227317
0.383429741238889
0.407045408638108
0.397402989203271
0.40835039414867
0.39970309092971
0.414876197335061
0.415796765680122
0.440691811295471
0.416477185552724
0.425532110930383
0.41681470596118
0.423290960433037
0.429440862486208
0.440518006280174
0.423139998652635
0.459493280656701
0.442354657642588
0.461173919021301
0.447904826570976
0.46301587993852
0.454790367588281
0.472158465047668
0.452341893527415
0.468776405535628
0.451191823516856
0.474106136251596
0.469846956945327
0.478387969489336
0.456756161148119
0.474667995004212
0.45974185071291
0.470176868541576
0.455798018371607
0.484335601055389
0.469142979377542
0.479266792472192
0.467165781845263
0.476651590524919
0.469814966161244
0.475553824359029
0.460586646812801
0.467729572503723
0.448834131804191
0.466558448094234
0.457713898997908
0.471533096452001
0.460793464227056
0.461767215013009
0.448533639818246
0.466702939293951
0.460467802991942
0.463406360177517
0.449733700048545
0.475493152705469
0.462164900286936
0.466062277080945
0.460504375942692
0.467345618323084
0.455122073634533
0.470900584694553
0.454837072369328
0.470786036946671
0.456462610741279
0.456710634850603
0.460382655457059
0.472225252023407
0.453822691477819
0.461578875536911
0.447544628548026
0.459616809650198
0.450643991875498
0.461866336924601
0.449272123076227
0.469180681116385
0.451750335137282
0.463292884371048
0.447639661741699
0.460822092540396
0.452391679961787
0.450218587350635
0.446991689915722
0.460816088477523
0.446787169234508
0.45760454544889
0.448567257498028
0.458770060697839
0.444599587318681
0.458820339277013
0.447002538442443
0.442038152286554
0.431309898846531
0.447714165808277
0.417986449999969
0.43164102844103
0.423623106703309
0.421283508106945
0.412433005451027
0.415008630201858
0.402677850626422
0.419465217339015
0.398344513087292
0.403683526756295
0.406576639958326
0.400899433347488
0.390717732180508
0.400159566189649
0.386072034253879
0.379814479873813
0.374117000919478
0.37806809665018
0.370641830297826
0.38029466443782
0.356672975313147
0.368099603805987
0.354904919518194
0.358766505744594
0.347252082612112
0.353547322593912
0.342645242964705
0.358259022679418
0.342566358104191
0.346324959270654
0.329168285645617
0.340729330298485
0.324698943378175
0.338256320861955
0.320131755459086
0.32947024011949
0.315759927556604
0.328982125212171
0.313240088454979
0.320521363436743
0.312961952621122
0.315127469811956
0.310480282878013
0.314546258301096
0.304311954958239
0.315839434787205
0.29200837010709
0.306169239820869
0.298938110881858
0.305861229632037
0.295783485120702
0.307051744513405
0.289585656063051
0.296742477417629
0.287475895713392
0.287344423086805
0.280781670568067
0.295770396566428
0.276569083784722
0.285409898656718
0.278157214128356
0.283965013283282
0.266036883076825
0.28260468585799
0.270572339388901
0.286473292706371
0.265852703549389
0.265936279682731
0.267087799613887
0.267385601482256
0.266895978477971
0.265593012621112
0.258338011485234
0.265476497759503
0.262020744125181
0.262323226042238
0.255985951280944
0.262652013732757
0.258677900111644
0.258323647212918
0.252251605363587
0.254563442387339
0.249724426238463
0.255447572793904
0.247641543787454
0.255216690520376
0.249000544183998
0.249307616031221
0.244291571961548
0.245383183510091
0.246183453284576
0.24873050675326
0.237025853589257
0.245777518055352
0.238054200102008
0.238778914400554
0.235919475945322
0.242692564787316
0.232392007068247
0.239375693482566
0.229638945458076
0.243558259339347
0.230585236326998
0.233166002976226
0.228733913014422
0.239611356795424
0.232516177138503
0.228687008754624
0.226351086383167
0.230910519135855
0.218852399042245
0.233726172886893
0.232447273499245
0.2293919538741
0.226096088048335
0.228666512351909
0.22634284676527
0.224699017027661
0.221707625955375
0.223273634152636
0.215374595899817
0.222620816921884
0.217704516083788
0.224697143498608
0.219522152928399
0.221851803188444
0.215234916125458
0.220244673673689
0.216256475775362
0.218109261213284
0.215786841233687
0.220532090596357
0.214386932601376
0.217965317739791
0.213069436898662
0.212825669048377
0.208126149781008
0.215871285294994
0.212391887689136
0.21561360164389
0.207345329083686
0.212076274731503
0.210980672227636
0.218884863077868
0.209890193121324
0.206922043620647
0.211888380528346
0.212362212408176
0.200060403765371
0.208152244848229
0.210767048283716
0.208933504443381
0.199543446848879
0.211710326204875
0.200706041012526
0.208259386016986
0.203877680825736
0.208680999170233
0.201371358998321
0.210863217825777
0.208182160865756
0.210201200376745
0.198684800570025
0.208075239256549
0.204337200327837
0.203327223349399
0.195779739266372
0.200324456193898
0.196736313973287
0.201752985748583
0.196949669744507
0.199601012197191
0.198682998432576
0.198728047663136
0.190907945797786
0.200530612938088
0.194495437249717
0.19336011730811
0.19184355913153
0.201794047564734
0.189829832604544
0.193780994058913
0.187540578443437
0.194624889341318
0.187059516561302
0.190196566221774
0.183999488593177
0.188594905340245
0.190537358543032
0.18747207458745
0.182332738181512
0.187869282635384
0.184210173767581
0.191908511056997
0.174524237524929
0.183359441720148
0.179803795803784
0.191366567680257
0.18461211751649
0.181273923040351
0.177332605284933
0.179013305422613
0.172488522393346
0.186111565884141
0.174610651139689
0.177572727072454
0.179248759597681
0.177926149277248
0.167604403413533
0.175590957636959
0.16998952096054
0.175862708596222
0.173489412410013
0.173183728289541
0.168697062598374
0.177797093775907
0.171433779708536
0.171436686433189
0.164792519297279
0.168242048979317
0.165281853320039
0.169344602896331
0.162796296441304
0.16865025783561
0.168964040050628
0.168123320510934
0.16201618303255
0.162990263137981
0.157824602955046
0.162307028379317
0.158209574790149
0.163765801166438
0.160763981096638
0.15531429280162
0.154136616065799
0.155714217541714
0.159080906701899
0.156357596319311
0.155725072244834
0.156530831894143
0.151252781303918
0.15603507952848
0.147095618833063
0.152015220069803
0.149457625911247
0.150699898457325
0.144059811819787
0.148130231303742
0.146358547439891
0.144435163699037
0.141415235447163
0.147633784974091
0.140790188024732
0.147852122249439
0.144622609456132
0.144366392696004
0.135807616764765
0.139806072363337
0.135742572386204
0.141587051751996
0.13677899581018
0.143033710676637
0.138277588881557
0.14148801115718
0.137796133792385
0.134944401982857
0.131702408333517
0.137658934855058
0.135073338586606
0.136036026808485
0.134118266079026
0.138694132526248
0.135185134292258
0.132786298764644
0.131178518855282
0.12942174650617
0.124337858944481
0.131235932430382
0.12913516680027
0.1298949840728
0.125164034297541
0.130639575365954
0.123130919103141
0.124497997147123
0.12402678381991
0.124243329606251
0.120525403029149
0.126002189537204
0.125225575422421
0.123105202253384
0.119345317299795
0.12227760765165
0.126118801534134
0.127054501283966
0.116898912709727
0.125661270057025
0.117842450226714
0.120004751526538
0.119800433991521
0.120380007754456
0.114691177322883
0.117763894975253
0.114094005173025
0.113358405997122
0.115135587969865
0.117943641177296
0.116431359703223
0.119214701534624
0.113953840814152
0.11531001797255
0.112284890226008
0.114752065197222
0.117109268093646
0.115487856861697
0.110550646233218
0.114811411015725
0.112262972704746
0.113069241334692
0.113174251392837
0.112138483381939
0.112284347668603
0.114750319728345
0.10882294606153
0.109241195139242
0.108662034886167
0.111570941889286
0.109907418062665
0.111452575860119
0.112662356452784
0.112063061469783
0.106892757180184
0.111154666067074
0.10538331592143
0.105995324092199
0.107409993493348
0.105628688742614
0.108112055069416
0.109982163144128
0.10735521985714
0.110117677897578
0.105799068347366
0.108295012668611
0.108305929743563
0.105260318471555
0.105427288223268
0.104421656828578
0.0996774024119831
0.107200147143437
0.104964175474093
0.104028652652162
0.103294325272259
0.104057431828573
0.104662579143383
0.104271448537579
0.101647003165123
0.10253703808695
0.0990765145106881
0.103702380014797
0.102626921633112
0.105467314816677
0.0990301655729849
0.101740873105585
0.101570500891512
0.0980539504961718
0.0988389760696624
0.0992958349137908
0.0968870459750032
0.100757965150255
0.097168336886406
0.099367290832236
0.0965050412738785
0.0950698706604143
0.0988916830329599
0.0982963504260972
0.0944746748041036
0.0963263796665029
0.0996201462318472
0.094227594276335
0.0947105201924495
0.0988239400252482
0.0927975185015213
0.0955303571876566
0.0951979508891036
0.0945149231190182
0.0947327898728567
0.0924143070020473
0.0924883858446602
0.090259884623243
0.0916216407298435
0.0974190565503363
0.0911944478367134
0.0936744821291857
0.0928976911678747
0.0941334289458627
0.0923203047245774
0.0944540511271321
0.0917066085559926
0.092246094537333
0.0906243268177422
0.0911751924500439
0.0886748040275844
0.0892415632860384
0.0913677235555131
0.0933468804608887
0.0917494422925766
0.0883980445362342
0.0882405776606645
0.0872048815571129
0.0906185242529799
0.08839636340982
0.0891723833756059
0.0900045610320723
0.0857861747560471
0.0880820326498817
0.0830645647653132
0.0832913402721306
0.08632257078188
0.0851906024940294
0.0852217141348798
0.0821558260786404
0.0862084012584662
0.0840011241396572
0.0788073594528255
0.0836105061513744
0.0792626234332554
0.0804722968410655
0.0808337253225871
0.0823893835507066
0.0832624337426179
0.0800146670337489
0.0815973793099869
0.0798265003516068
0.0816038492434566
0.0818824542728086
0.0777050315188882
0.0756198684566886
0.0808373775638626
0.0765404294756079
0.0755814959883532
0.0779644762958777
0.0739173357339971
0.0788373524516806
0.078478231393656
0.0767203969081071
0.0765957013151731
0.0768567951247595
0.077459267606734
0.0761218813815774
0.0761368327044922
0.0767753225507288
0.0733556900267117
0.0714739514247478
0.0721868740637176
0.0705753239765836
0.0756441111561115
0.0724684644338488
0.0719769349465134
0.0735740177193089
0.072755154489354
0.0695868599143174
0.0731283897557736
0.0683872236521691
0.0684433018238722
0.0697893714087718
0.0721529369163529
0.0698850372301574
0.0661154034601365
0.0656941982392368
0.0683207089513529
0.0692124598920999
0.0650277527431929
0.0667337129370307
0.0657216289089218
0.0694476327519806
0.0667352766330264
0.0643823300154526
0.0675336274937424
0.0678671517290839
0.0667880949720418
0.0651264258188787
0.0702443238697335
0.0651035328546442
0.0622699089387615
0.0612224725967532
0.0615408610652864
0.06419960583406
0.0621797320637244
0.0591385423878542
0.0653748599561298
0.0615905227923557
0.0617385343553483
0.061675821082883
0.0636205487309012
0.0600905960263495
0.0614916609689728
0.0582817109562024
0.0609529770673733
0.0592491808736586
0.0582937215698172
0.0587118286608383
0.0626686347649101
0.0608714849421538
0.0607968959644105
0.0574157866812399
0.0591612495305016
0.0591158342533732
0.0591374334947239
0.0542799582136054
0.0588742437167563
0.0607921250151479
0.0600877423282952
0.053896971882507
0.0598159350170101
0.0595999363923705
0.0589908986248639
0.0561061048663762
0.0575250736717969
0.0548257533119766
0.0584250160019554
0.0578252912009567
0.0574033538742368
0.0538671575023523
0.0586663549332156
0.0546575814878215
0.0608149987874431
0.0551494267199524
0.0542155433077392
0.0511256307070683
0.0560406793400805
0.0535754770420178
0.0520815523397014
0.049372225961456
0.0520333769926869
0.0464464176529321
0.0537535347589744
0.053172600118674
0.0616052996371434
0.0514677915528446
0.0576140185042327
0.046058042610116
0.0570857962231598
0.0534273490644404
0.0566105375639218
0.0534091457069094
0.0595649486925042
0.0520351480972155
0.0624786869133935
0.0521732753496028
0.0582639056624299
0.0580223981254696
0.0581696387906467
0.0479988874451145
0.0537884308444434
0.0465262629026692
0.0623198403595198
0.0502166264723214
0.0604892998228762
0.0521279197551934
0.0544124786237371
0.0398152320158518
0.0570272768548479
0.0413945283451681
0.054847734741474
0.0446555722962392
0.0577536049082913
0.0353049589889023
0.0615357532978332
0.0444216281033071
0.069752804123292
0.0345287403261185
0.0616778686351839
0.0392968896920781
0.0689163353530783
0.0428600358886441
0.0702558887738723
0.0329963671747543
0.0635642710861625
0.0350496638185732
0.0694973988351423
0.0391425706962024
0.0684738389877122
0.0378917355905338
0.0582042850356691
0.0393331705669342
0.0674197122581816
0.0524202930623181
0.0539529992368892
0.042404560825664
0.0571017579365798
0.0574726788149467
0.0388598897095616
0.0624298305342307
0.0423369335084632
0.0697215526279723
0.0304618168686091
0.0721753658886362
0.0339205411469511
0.0681589551654107
0.0373120554405726
0.0619846054233188
0.040498319080826
0.0568375022479079
0.0434996466496324
0.052415988861644
0.0478980476325706
0.050541709390007
0.0473314803697735
0.0515760489194007
0.0437113283313549
0.0493131695074
0.0439165209822512
0.0523769824253585
0.0427322844752409
0.0505520970792287
0.0443266936033122
0.0500367706640746
0.0458749725001409
0.0539872393830648
0.0442157336476033
0.0479644884491817
0.048466912284989
0.0481999376662874
0.0462306857994101
0.0482124302306228
0.0488468683593115
0.0502400966480533
0.0462541470661142
0.0486425331817921
0.0460252986210068
0.0492775139720814
0.0469659758261143
0.0519578499155741
0.0482164218667641
0.049579168376014
0.0451060828116188
0.0469041885460117
0.0470255559308169
0.0496445075256828
0.0443854603980571
0.0487921182294648
0.049222023613733
0.0487046819522639
0.0455388068789336
0.0475102030484213
0.0473023648130726
0.0508004526161833
0.0459643062338849
0.047856290566739
0.0446067881247834
0.05062312723512
0.0445169312711593
0.0494347091837602
0.047109826406759
0.0494820051021861
0.0468933591961005
0.0453297299095616
0.0468051960630867
0.0459764078326774
0.0482566843932978
0.0480083506363278
0.044880674827448
0.0494653420268579
0.0445075757388516
0.0471592692134574
0.0464464161388627
0.050332303758072
0.0477236973921302
0.0479102580024381
0.045443135088424
0.0472938785703134
0.0484367266831243
0.0489749744912726
0.0463000840624786
0.0469328418380025
0.0456152313774767
0.0504708844535454
0.0459369846702851
0.0489153067144746
0.0485272615953787
0.0491880063085253
0.0462347567710141
0.0479467366585821
0.0471312348400379
0.0524119553320402
0.0467719648672774
0.0477175987414898
0.0475638818014082
0.0486640296049288
0.0457502181311709
0.0507931651590783
0.0484903555931163
0.0490214929541537
0.0487487116535807
0.0470432421818945
0.0455600841037686
0.0475003226453122
0.0463778283257363
0.0489885123434339
0.0480267473137007
0.0507012050599019
0.050128144529925
0.0495816441984863
0.0463224241092363
0.0506161003709834
0.0480222020018428
0.0492665358792967
0.0493568606088351
0.0502994645343524
0.047005002386641
0.0491668974967612
0.0497688647926551
0.0510343596547884
0.0485108849677046
0.0492868159228387
0.0458714781028954
0.0488857011441426
0.0503265498094056
0.0490510510186865
0.0494690846813995
0.0491027360970121
0.0482358249041087
0.0542285466754112
0.0505294657604883
0.0502499007975298
0.0519762143458134
0.0513629100231199
0.0513648460151974
0.0499821947916849
0.0476824137142459
0.0492939044175118
0.0499871204645562
0.0496021459413002
0.0498219204228147
0.0525670256349781
0.0501576260760598
0.0507579225991978
0.0470385232707781
0.0505049211700569
0.0513969233262486
0.0515101877165514
0.0502036270535226
0.0516261096828105
0.0528060244675092
0.0533759688717509
0.0537694548803109
0.0528321488428448
0.0511310862925482
0.0545085249874438
0.0487207335109755
0.0513190414312913
0.0506752165562548
0.0511429495253537
0.0560271945744153
0.053534425080168
0.0516585623296773
0.0516005452869468
0.0530997100855173
0.0530325696214315
0.0544135710970366
0.052451301737953
0.0550689113795986
0.053186273454187
0.0576616119978448
0.0512496475494045
0.0516114396792328
0.0520252366282887
0.0546880340742061
0.0533609557230111
0.0541984345926535
0.0508991818923968
0.051205268491242
0.0535779778069206
0.0518566055318897
0.0533565988627281
0.0554061787843847
0.0552751306128211
0.0538316740285304
0.0512226079847902
0.0518420041730622
0.0509588046642246
0.0520321561570173
0.0516048921357109
0.051519960743834
0.0522759286822974
0.0571463345253471
0.054992734003418
0.0533707324866589
0.0506962323533678
0.0513602940940254
0.0530674879708482
0.0501878201029085
0.0508748405960795
0.0513813529087643
0.0527514407598469
0.0501859338756014
0.0533148148241012
0.049052407880466
0.050249147026556
0.0509815234720133
0.0528714441389438
0.0491378854400641
0.0494669542514681
0.0489157627878989
0.0495340680656095
0.0488888007767739
0.0513089335724448
0.0515654002102905
0.0498655680580411
0.0509888136651254
0.0493742775558884
0.050811409523023
0.0537244235586946
0.0508309030080102
0.0487555867204252
0.0473298513798021
0.0484665135677287
0.048938858157195
0.0518097258679118
0.0496800453553623
0.0486767393815694
0.0463151701995649
0.0480201614957601
0.0484038744006933
0.048019177317059
0.0493687389842616
0.0515741584453024
0.0517722105892867
0.0502954027271041
0.0514136188350893
0.0512863893317694
0.0489681206697991
0.050987629729543
0.046518048074981
0.0483726891958607
0.0495211647458408
0.0498158744416734
0.0456749263639881
0.0472071869113738
0.0493601898885894
0.0490371993363579
0.0506653043256135
0.0477653019486418
0.0486951601739813
0.0492313445663607
0.0464197883277115
0.0481164143592095
0.0504003612454396
0.0472245247195066
0.049376785692032
0.0486055251333789
0.0478129804574468
0.0489679312254132
0.051099649145573
0.0484228759672152
0.0487326116307719
0.047168125135517
0.0482520063113539
0.0509872952807749
0.0496632396980181
0.0452527321154255
0.0451168276979526
0.046018548232158
0.0517041490891524
0.0476356126754034
0.0500916512722056
0.0479073331515862
0.0477853183099332
0.0474197395308066
0.0493958675581777
0.0474267913527094
0.0459956631255088
0.0448371058557318
0.0487701357856919
0.0489137415312472
0.0516226311330791
0.0490145643634423
0.0514024147629333
0.048265624787698
0.0466162734243882
0.0481411650500047
0.0456983854839544
0.0467390605472935
0.0457058630430324
0.0501084142642591
0.0456777691595404
0.0445256798064663
0.045669087494735
0.0466000920151456
0.0467186482424814
0.0474759469147647
0.0464182303460701
0.0457662786807252
0.0440805198132096
0.0447393094540561
0.0434968697441016
0.0452051630713045
0.0502521070872977
0.0444791882803125
0.0428686060187555
0.0445660005849884
0.0463170107580308
0.043391006380838
0.0450903101998385
0.0422214516370547
0.0439157418953679
0.0433889036250632
0.0446318349090231
0.0440274526304522
0.0442594050754998
0.0447321682874485
0.0418496823722842
0.0427958629790828
0.0451469283602355
0.0398687504682815
0.048250006862463
0.0430214070167674
0.0433725425784913
0.0403340353918678
0.0429546601775373
0.0391168185914355
0.042483702821395
0.0439782334515989
0.0427660258340328
0.0381075110699264
0.0402921165276718
0.0409446259950313
0.0428447422989904
0.0397651713439778
0.0397309537296022
0.0419851058315026
0.0401791421270851
0.0381409414760956
0.0429113864143148
0.0392339615704129
0.0427866977470841
0.0387885070929179
0.0435807297141535
0.0364256915955689
0.0428624387275927
0.0378142644329257
0.0361986546850728
0.038041303769084
0.038838408495937
0.0392479738926921
0.0391412490727648
0.0412429799695483
0.0399518656603932
0.0401152229439446
0.0363099956481169
0.0397630276156551
0.0386253973047792
0.0353384581533147
0.0378970084797569
0.0370749800864763
0.0371053784071329
0.0368264975202342
0.0387807224032456
0.0372695627322349
0.0402664851410409
0.0388399338885709
0.0362929604422598
0.0377843359009813
0.0383501830857526
0.0353490034288909
0.0368415488108089
0.0346142273253015
0.0328207504855608
0.0412391907728769
0.0396529784853916
0.0385819289835745
0.0344594727450772
0.0376755871743558
0.0363514277372993
0.0380694396154055
0.0382003855329424
0.0380344546595383
0.0373641826730002
0.0368149219029314
0.03889778208043
0.0356659313213839
0.033500400561855
0.0363752689954612
0.0372706900093963
0.0379946666145884
0.0368209408435387
0.035874946964059
0.0344685027023909
0.0361985575317688
0.0339287961505675
0.0349124134200022
0.0327343611603887
0.0377878510525755
0.0330672789039667
0.0289246873684413
0.0463912679684436
0.0350357977919062
0.0390476974352322
0.0322898701297308
0.0383672972664469
0.0307117772467072
0.0371451471757027
0.0322476394421422
0.0372813350597858
0.034578715994381
0.0340128380579883
0.0310625481770771
0.0360190031328555
0.0306424432232025
0.0357558508067793
0.0305291286701973
0.0381199605909263
0.0313020661063483
0.0368703862837675
0.0287705293813987
0.0339435860624848
0.0396292366267645
0.0385254634824839
0.0336969395984749
0.0395637184555753
0.0162095010177134
0.0508502646875471
0.037161639516958
0.039085251665825
0.0317402865698055
0.0375158520771618
0.0311078163210269
0.0355721785773045
0.0310399205451684
0.0341912797098875
0.0380936797417549
0.0287527296742263
0.0353628723561704
0.0323324108635358
0.0321171905317024
0.0326215242073501
0.0317291294261474
0.0337584384994411
0.0318729118186678
0.0347278901646307
0.0339689259321722
0.0371365635117371
0.0294295513025981
0.0375574251572517
0.0295415680465905
0.0334033806261105
0.0375300616480171
0.0357095095388265
0.0316771377495869
0.0347250878681966
0.0288988323627242
0.027535066470991
0.0510646216278615
0.0313627955705493
0.0401552062675387
0.0298704732737285
0.0360669828540653
0.0335493208757148
0.0339296844045349
0.0335995723972788
0.0360409584096965
0.0342477046362987
0.0334658932204977
0.0316145423430202
0.0347809497777227
0.0360720529002925
0.0342454985240889
0.0369127909599399
0.031921424306534
0.0338195459517965
0.0301558846376975
0.0379399397200929
0.0253272161549956
0.0299409375172015
0.0411203404375749
0.0375421446507966
0.0410697404338906
0.0336457447804047
0.0370507525459516
0.032257324045001
0.0364877389636321
0.0301648742426709
0.0362912752824107
0.0327525467068685
0.0389417621850049
0.0319318279899287
0.0380954673782766
0.0286830033803436
0.0378054792365654
0.0321193208248728
0.0374408761417951
0.0308053957906524
0.036485789706036
0.0268528491568747
0.0398502540578282
0.0246422955738201
0.0445496759432807
0.032054363413494
0.0459446251425368
0.00839067397102534
0.0439898396994003
0.0562446537346662
0.0310786702963578
0.0455274926609946
0.0301127480438203
0.0389781042023795
0.0304860250489472
0.034548805411281
0.0381168900763157
0.0383286210605039
0.0297230798537993
0.0340361305163665
0.0360052972973539
0.0410774275272878
0.0287417846861639
0.0247730493279631
0.0562181601840065
0.0382705592882288
0.0425529086877526
0.0342661240400337
0.0193640909165063
0.0603872139514921
0.0301052234371472
0.0387806074398567
0.0345418712215764
0.0391016907912261
0.0386213546622376
0.0406585044042843
0.030904185112354
0.0406751811097613
0.0398563932759741
0.0325123416264205
0.039288480010716
0.0317677960361452
0.0398551162715277
0.0326531296325065
0.0360055127143297
0.0486493449834692
0.0358107079394148
0.0420073085603277
0.0403337505826739
0.03674954479252
0.0399668581118055
0.0414368343504987
0.0329094791844787
0.0348816441561005
0.0492855202360749
0.0305878012138855
0.0413826943095535
0.0511763934712966
0.0355146506630364
0.0416894064321921
0.0391993396655436
0.0507299490480412
0.0375164561379281
0.0194656027685536
0.0656639853003893
0.0314143045429063
0.0651574532537473
0.0309973586232645
0.0530891595573793
0.0312154905309476
0.0550743021917592
0.0221018656304317
0.0579806795960928
0.0381509212360511
0.0499541746476865
0.0370254073236817
0.0389087759917837
0.0479691445590951
0.0440556190222036
0.0483715074256055
0.0424376654229818
0.0377307822252302
0.0463366761624363
0.0519573422946035
0.0142757927309496
0.0652305974061423
0.0514812839345741
0.0581004679221473
0.0577666704149235
0.022770483491335
0.0737486532856453
0.0476876492646519
0.0543744947896729
0.0453155949641748
0.0502726908530236
0.0495413078924226
0.0273953313868916
0.0683219520377813
0.0563737305768404
0.0403418382291372
0.063109603324753
0.0310034698872756
0.0587728565662061
0.0588872175151482
0.0549220490939536
0.0469234496499589
0.0625260140514404
0.0249237176237094
0.0632074079346374
0.0728612043340356
0.0378494258235731
0.0835102160798734
0.0515318191515818
0.0734481786317685
0.055740480833385
0.064327740863193
0.0482498045789386
0.0748633201657049
0.0628345064931093
0.0572955586159782
0.0422943900108014
0.0952853744974493
0.0530373124056545
0.0799210370052646
0.0630782376700099
0.051631488421692
0.0508613718831406
0.111481136776653
0.0854485476626562
0.0836483045019494
0.0554283537098082
0.0883946964333043
0.0781920510839319
0.0795907626198722
0.0758247567262966
0.075797141249152
0.0783483248928677
0.0760891506696045
0.0865051886101312
0.0841541839487434
0.0784056585847859
0.0911840368460406
0.0660731656504491
0.0873137249524331
0.082340190306595
0.131676897229807
0.071418316988351
0.11067931175085
0.101908705487038
0.0999458260333787
0.095817031388756
0.0924185932257761
0.103236443362814
0.100777607688851
0.102346586726304
0.0907189443388465
0.106428360924074
0.117874178710145
0.0874082985009756
0.145766337562347
0.0963397130564919
0.122478903097645
0.0144580961143069
0.247324435567873
0.141229823420093
0.132334839854919
0.133225728230115
0.0833433997563225
0.196953213206508
0.153079039542887
0.153610748181426
0.162528118466354
0.156339984515567
0.160645935006572
0.177229860139439
0.174151644669438
0.185170563998673
0.196783702831565
0.176493091781762
0.168978350889564
0.238981835732406
0.233827517118107
0.238645396086162
0.214909466111523
0.23202455548959
0.249865623877577
0.240512545330954
0.244803023117262
0.258508999257136
0.216656614050053
0.334631458604854
0.269481011250344
0.291040060031205
0.263964952464115
0.32293445151603
0.275841767800751
0.316802529689596
0.347506922728974
0.313890520215318
0.337656853164896
0.319443412806019
0.357812791008002
0.322724828360004
0.379847464925086
0.370186565806909
0.364682531328389
0.378073214857761
0.372044626667841
0.379764468837287
0.381616906132369
0.393583210988916
0.37430626042957
0.406265203036735
0.391046625571101
0.497644498845964
0.451427230975494
0.388158228048939
0.416702232426468
0.37305990198436
0.433605590294258
0.400998000992427
0.42704283625968
0.451012267657633
0.397239374645938
0.410087556431476
0.405256663499495
0.420655283244976
0.406669487059519
0.424657172130666
0.396826720716896
0.418057362572405
0.423301151042296
0.345048521242643
0.493341580544418
0.406188831293727
0.424713117244832
0.404159268576441
0.411803614109787
0.400030859100781
0.409083851609523
0.375917401211709
0.42487177894112
0.379837175161284
0.407716320719273
0.382370802268827
0.399154213499618
0.417731600023751
0.370304802769076
0.374182729530639
0.380002826298254
0.373475593412045
0.365201367071266
0.316377192901421
0.431803874122527
0.356286973349105
0.364521653555458
0.360837302942914
0.352547506778238
0.346025310576322
0.351135128425692
0.348524247223317
0.361384114252968
0.338162869621945
0.350665213797694
0.335347989202911
0.338786465169883
0.33996446855867
0.343979577968942
0.340415831059457
0.33267510853259
0.336152871544334
0.338543038215983
0.337552496834544
0.330006638893841
0.33114926163809
0.33634138407263
0.326087495873686
0.331631630680009
0.332156741667421
0.336246795603439
0.335276367887133
0.33323709944741
0.327646296020889
0.326197721790104
0.325094501862881
0.327632442047606
0.32359466143686
0.318020405682271
0.327512760081309
0.322382946390951
0.321775269341958
0.314548325158945
0.322737785826929
0.313704785981313
0.320643160700075
0.295715096118035
0.335916781134464
0.35277568452989
0.292571455340147
0.319682324344964
0.292598868196418
0.314307131993626
0.280499232007963
0.311969598648137
0.325863037365335
0.293569215724093
0.298545876726226
0.291395798602379
0.278091359390272
0.307809550952646
0.280087984103316
0.29494234091907
0.27074937628253
0.25645336478114
0.348016761122029
0.224011972784639
0.357591702157277
0.284345816398283
0.273438498301147
0.243888350968336
0.315777213246741
0.267160962934496
0.272199525074188
0.261117682594276
0.255389108507935
0.293079054776501
0.254347347617065
0.271639827537036
0.251510319900534
0.247204234035895
0.286421060261281
0.254811062384135
0.237505520270235
0.287301915010975
0.24510873553335
0.255471130104987
0.284946041973014
0.274480214196997
0.249345862570935
0.237589783448815
0.243934482573017
0.218357261455721
0.26478584698235
0.251824094582073
0.23117374844164
0.244509815146501
0.214573746575089
0.235575537131407
0.224041573349343
0.24318117853939
0.192634556207874
0.250249924268635
0.22105105949469
0.197194081392748
0.22689910530109
0.202814796951895
0.261463914045178
0.216863284477378
0.205297279594799
0.186157717244161
0.246123119074478
0.20694271757918
0.213296782088548
0.205254082250709
0.184368489624021
0.218429316131025
0.201998464334963
0.181753679051985
0.205865235281896
0.177224360673836
0.204022378238408
0.205549214882128
0.220269623648709
0.20527946766195
0.185722785621491
0.189897931459811
0.190873434504239
0.192246371437999
0.186442297316473
0.161592776356216
0.221397771529041
0.160971155335306
0.219741587574043
0.204923940292082
0.191431799313036
0.196544582180845
0.196385045629546
0.189024000419121
0.206002106659908
0.214725170672365
0.220482309425072
0.186032596283006
0.231140251161158
0.21113127191124
0.221475877426631
0.217607599701241
0.224715954056517
0.218322443363087
0.236629260270289
0.238118389954731
0.238550295993006
0.239756028441817
0.25319690003914
0.235657336103402
0.29259946010324
0.250617672817865
0.25630559906047
0.301612343462935
0.292090137001861
0.317571899479698
0.286695749241027
0.303054059041341
0.304178755059824
0.309386366172278
0.313532519801198
0.296447328531697
0.342394904418482
0.329909245329698
0.328033878057544
0.338422977182724
0.338809504568656
0.34212200564731
0.335590557525371
0.361565809155529
0.325333730428331
0.408710742126339
0.348912386727397
0.374168547592315
0.361428248277041
0.358852821996537
0.372661592329185
0.366238528740465
0.371306622064767
0.359125100647298
0.384345678399883
0.386724623276077
0.370317371290053
0.384907750749482
0.377369891166394
0.383261245100304
0.384210856277475
0.38796459948396
0.390675842889771
0.390199035454925
0.399513488096629
0.376856049150915
0.430647229454379
0.439767499161561
0.400112064338674
0.420635686720332
0.407732634361052
0.425667378379994
0.411211545008831
0.430823222881746
0.441344639770749
0.426817305429008
0.436762912983974
0.43492100306424
0.436886196602981
0.445369618092689
0.459550115270195
0.462417863740904
0.438810083531086
0.456236081823153
0.403205887764256
0.510693184139322
0.457501342661941
0.477686116956202
0.47552397709943
0.470849252622386
0.469803800836115
0.469673544706197
0.466929024360866
0.479365485174899
0.47936565082843
0.471783150561825
0.474894541831306
0.472957367108097
0.476393028756434
0.470613837706631
0.476408505558566
0.484031737200785
0.467971919311844
0.474915939511776
0.471507520416944
0.47286533186566
0.466506278449022
0.489608048362775
0.466898464539262
0.467749398658232
0.469358011620452
0.485524865411465
0.48497109856712
0.475161001835569
0.470725367805438
0.478197369135519
0.468658174133668
0.483756423226997
0.461020107906137
0.494678876098954
0.485989283080921
0.483828591364393
0.487269358368362
0.485555028708731
0.489424133416387
0.48885911234471
0.492710752566883
0.491287353891162
0.497563542560825
0.496673076769943
0.496755730677172
0.489262440835933
0.496301613501581
0.49440398304607
0.503653318161501
0.492426653507725
0.488271121465953
0.494247667375129
0.488592549272257
0.497036672063056
0.482566091808328
0.474023079023606
0.465874558122893
0.468434073536098
0.463946094897636
0.474554921019075
0.470305160674251
0.44656824724909
0.462031636724662
0.43812618204245
0.446907291431381
0.433265767039396
0.438864984962137
0.436799266103032
0.434735963218189
0.432911897602122
0.430679790543921
0.42861789282132
0.425758940643195
0.422708885131742
0.419322889320535
0.419200781035353
0.415680511759232
0.418142728089808
0.418642446081632
0.415494606184274
0.418319663206153
0.419518991144239
0.419863595475832
0.407430365808537
0.425161403364744
0.416632664121398
0.421923971584391
0.415514226076425
0.420209378561035
0.410109584575871
0.413364245502959
0.416410311669332
0.413512808695462
0.414644179825903
0.409611380270226
0.411589377820488
0.4097157690454
0.411420808847961
0.410899824245621
0.412465223685
0.410960288495907
0.412828935014965
0.412210190541252
0.410663303802028
0.410740952860087
0.411674419755066
0.403849745823391
0.414943415392923
0.406767966725936
0.407261629857926
0.410445594809856
0.4084115307231
0.407573831149514
0.410031125379139
0.410222286196428
0.40985226324119
0.407722223603275
0.408748259424841
0.411475929129252
0.409646441103693
0.404633026042888
0.401656008289175
0.3995474832035
0.404979506087872
0.398102735250072
0.395472854731374
0.395839695498618
0.393950706884223
0.385447417806958
0.381710127504484
0.380321145095733
0.380508783055986
0.373078829714983
0.369180513976527
0.366898141444361
0.368013273257992
0.363498288730329
0.359738465288412
0.3595508649885
0.356276543542704
0.357840369440617
0.356334859820869
0.354987040583995
0.350121340599946
0.351850025302525
0.351555881847892
0.353411808876927
0.349757564763535
0.349696619348483
0.353905585318469
0.349379447331989
0.352790090430019
0.348884798040348
0.356080743588953
0.353866426009939
0.356121794760358
0.357137690953813
0.359840407252324
0.364025716664913
0.359341654522181
0.367944731502877
0.367472519154597
0.368227160273661
0.36753197846434
0.369257718025787
0.371763148683576
0.3719502489888
0.373794770611589
0.369819494876961
0.373033562408492
0.37409715368987
0.3778906193386
0.375307734316926
0.37335874785264
0.373196296276582
0.373943324536974
0.373769780160369
0.374960939547972
0.371014052496556
0.370509704830518
0.372020155857422
0.371956826482151
0.370416952582402
0.368934535181237
0.366621852445293
0.364945843578634
0.366517227846988
0.364952035304317
0.364286239530747
0.36147726709702
0.361341834839729
0.355867663033819
0.357837110223603
0.354845459952286
0.355218701615313
0.351417794969674
0.352456714802035
0.350166884053611
0.348572700574238
0.350068205587062
0.347490020038969
0.345795255767171
0.34483962905512
0.34426294362647
0.344052298932066
0.343707178334094
0.344109102266585
0.340942255888834
0.340837159548361
0.340732940100976
0.337919374658127
0.336334375642619
0.334259780220784
0.334369800148909
0.332447873088848
0.329273411503871
0.326353861657735
0.325151267674019
0.322101337071619
0.321091829763078
0.319987941778041
0.316257520782063
0.312417082009996
0.307657614909391
0.308604930666516
0.305897268019612
0.302767914779782
0.302158811690824
0.30167688103986
0.302237775721445
0.301526592880992
0.30437620383657
0.300305401384009
0.299709311843833
0.300388713998226
0.297310130508608
0.298128296658229
0.297074852598781
0.291439072025456
0.292709559906822
0.288337842171374
0.286141640650183
0.283644737395181
0.277144260488076
0.274050556457787
0.271668180712631
0.269043848836603
0.268278332451163
0.266977403763706
0.268136157450215
0.266927560633813
0.269506566497837
0.270497259225549
0.27871630331665
0.282455132748349
0.291349356517877
0.300467064182408
0.309383856890101
0.32026655106846
0.330447298469601
0.345828466099265
0.360563171251698
0.376765685435946
0.387314528892133
0.404313647869587
0.419962750064322
0.434770223261731
0.445577806333483
0.459651493725335
0.475834318494721
0.484478830244491
0.499277060277488
0.513719027190559
0.524115749197596
0.539311726936012
0.543480574144554
0.561847580394906
0.566609009046755
0.579502459816752
0.584874578023519
0.592145662976766
0.604708737731917
0.609813595633261
0.613477867659806
0.620409678447729
0.625797869414774
0.629306268953182
0.630290657109121
0.632930711943342
0.634704657380907
0.633750441774669
0.632804154735667
0.636593903437265
0.639135701740384
0.638757798160966
0.638157568904026
0.642164158489187
0.640672012050469
0.644424784129051
0.649423214864156
0.654948286105875
0.663176966907788
0.656186705333271
0.665359496605617
0.671864391182311
0.674542688087485
0.684938922686688
0.683806060189913
0.691401336332335
0.696686762509353
0.703750133784316
0.715111780912717
0.730443047959564
0.738541308792587
0.745694998428143
0.747495584149511
0.773144204567361
0.773353202220676
0.789512970293335
0.785848754766431
0.801030959643336
0.813235898149011
0.820272931327804
0.817488586149723
0.82299765189631
0.83092975499139
0.821982541597794
0.824836581183441
0.837392659306164
0.820507889096413
0.815406997399174
0.825544744687372
0.813216618866783
0.817159810917615
0.820848597759422
0.814428398565391
0.827529692282828
0.815622662162478
0.837436604565687
0.840303561842563
0.862133764587403
0.878306806323807
0.894667681481415
0.905565837368703
0.904048611295782
0.932700002140829
0.947421384497785
0.951953219875753
0.966987124132628
0.984893539759621
0.984499710767678
1.01483755994807
1.0122953073951
1.04101752454783
1.04657666790614
1.09134092648143
1.11796273836237
1.1153524297422
1.14766438931784
1.15689994808124
1.17060018786637
1.19932892281506
1.19605459156252
1.24385922143779
1.26118513087767
1.28805799040013
1.28856558362514
1.28894204364242
1.33113203614442
1.31443607440437
1.40286131097292
1.37319485744368
1.38155977991355
1.3498429374289
1.40055809108022
1.39128539768716
1.41097018515866
1.41277803545311
1.43141442605635
1.37800172085936
1.42772739295864
1.39252903689094
1.36987259503098
1.40292788285186
1.36433374311601
1.40361152777106
1.4068518059373
1.37852802993177
1.4209259036964
1.41153515477935
1.43563088383996
1.4419351082755
1.43143474030064
1.37304105939363
1.46876446101281
1.4851336883406
1.47385342736467
1.45688086708761
1.46479408873908
1.48648378674362
1.5477210288106
1.47787081926419
1.55960890964938
1.5881258254447
1.58200844079956
1.60690005357144
1.56071054295321
1.62046281283908
1.61582466043761
1.59716215944127
1.68175980453511
1.62820063761996
1.69052911604159
1.61212747543244
1.58602846696545
1.64508976572206
1.66538933162869
1.68012194770598
1.55309179634673
1.58593052203224
1.58979897427031
1.63350469435639
1.605243324103
1.56956595852738
1.58932419811246
1.56350049813063
1.68517207287496
1.59665889124123
1.62926715209035
1.58119292851796
1.53652476129206
1.53586901119282
1.53741073633115
1.57442801036979
1.44490724890241
1.3908880516093
1.33961422998995
1.27094722376839
1.2543653182717
1.19200661956714
1.18030294145101
1.12472717676693
1.08431270964173
1.05195854797443
1.01915809226992
0.969832445424155
0.970237927466638
0.946196123214436
0.929402058908725
0.926934682601747
0.897939296869134
0.897811115984787
0.897183958589299
0.891623700471962
0.869239325675437
0.871540074590549
0.855976723746132
0.841519708279522
0.813151837828948
0.825517893468698
0.796311618630626
0.801426908763036
0.771526216305443
0.754646052228652
0.733357221959995
0.710190114604169
0.698248158686001
0.680250037222672
0.655231112069399
0.622349289218412
0.602803532338502
0.572990657668242
0.547038547525316
0.524442366120481
0.498787422569062
0.479088503461907
0.452434711253235
0.433973521730839
0.406785146206653
0.389486662511573
0.370935146200429
0.35885738551498
0.337241887589117
0.331572953374232
0.324703759964007
0.306857458514868
0.299060619375784
0.288326792193762
0.283468849886655
0.280101210617241
0.277975574487945
0.273245686479079
0.266596052363606
0.266972271416011
0.262766156548874
0.265894430435119
0.25801681123844
0.262304056081802
0.269126023246347
0.261701117324617
0.261261175796756
0.263726006450061
0.26163097802347
0.270815377349036
0.274783288767724
0.276368698778974
0.272258545564984
0.269790971529397
0.269899508605925
0.268821106882155
0.268280387498761
0.268013786987377
0.264469416718642
0.26349513289037
0.260380518687635
0.255196713849499
0.249814516150709
0.253629674529852
0.249747946917088
0.250694242273727
0.248910962527142
0.251049867999297
0.253298557589407
0.250746711036702
0.248822894267589
0.260661077739056
0.258083209345449
0.262949255713181
0.264750145929916
0.259376898292676
0.270659559030572
0.274790763734072
0.279000997323871
0.274303227940763
0.27954342576003
0.285258882785639
0.284906332053074
0.280939730149759
0.28520614531602
0.286151536757177
0.291626802059836
0.297441329275613
0.294633642447096
0.295903212958836
0.293704556505756
0.298482896472097
0.292505144082614
0.301887838727753
0.30459622338463
0.304677544680663
0.304236277316806
0.312259507288588
0.320495462637966
0.32990811182904
0.337760900698132
0.345449458640959
0.347652253550175
0.363302697591517
0.375026152467552
0.387908486762853
0.39556767114738
0.403306036953935
0.404265151871395
0.4085805864903
0.414586830474727
0.408319261555441
0.397467447925554
0.398436534503824
0.394313437663669
0.382121690167079
0.372983783210865
0.365959715024179
0.365808330164782
0.365581520336067
0.35872235420735
0.358977851578037
0.357199529471523
0.364019244095003
0.350232175079858
0.357006109838716
0.35263739174969
0.369017158036896
0.355101980612106
0.370518586719991
0.349957660531005
0.35259303831966
0.349995674640921
0.354797106564692
0.329360354870212
0.328987568978104
0.32800725671816
0.331122346075412
0.332740322587822
0.319754836416551
0.314223295824441
0.316553371599655
0.307638536885249
0.308384402336945
0.300222892764604
0.299120817310441
0.297620795891578
0.30373682873032
0.30049120781656
0.312522095230622
0.297323186340701
0.29933760441586
0.301457269003498
0.310311851300121
0.290345471415209
0.298146902491344
0.290701029478334
0.290225170017208
0.280265954523328
0.290541078737595
0.283561551472743
0.286355615806359
0.284163962434014
0.276954534868703
0.276979393150522
0.275782342893521
0.281498526744303
0.279905979480574
0.266562005235251
0.267411770820817
0.257917944097358
0.260912098311577
0.268104651276028
0.268819590827654
0.261411727115409
0.262548469586558
0.265549970249431
0.270284046398157
0.266058844316388
0.264722880201546
0.255551725245604
0.26859316064559
0.266008735239964
0.279613442928526
0.274859040786865
0.275834789794464
0.26453074891227
0.270535714987723
0.273291579601664
0.277787195741841
0.284615722516831
0.291507985131481
0.285065387301494
0.277388097332542
0.285979527547159
0.293006601778067
0.291905060688615
0.282788597673401
0.284623696646077
0.300824774042039
0.293113697206612
0.30667671821052
0.302504060457291
0.322338065444977
0.324594142300478
0.316147400956441
0.310847851165791
0.315183214882672
0.339346055039739
0.352843176018323
0.324494040940577
0.358434359307879
0.349582241814916
0.374733588495953
0.387326882933098
0.398400107215338
0.394905786759873
0.428877567474072
0.449004462903767
0.449191372755853
0.439648225935149
0.487657866043802
0.473438744573243
0.497922851182399
0.492610068342371
0.54028880576613
0.503305598705732
0.502147316222587
0.512329583855804
0.534844249924413
0.498104428417242
0.518709436635064
0.485515910716501
0.519092029762349
0.490538918030313
0.482848765450992
0.468738375173688
0.482330096125915
0.497538852057759
0.48313473314686
0.500711858324798
0.488293914864993
0.471630089958112
0.491930002104882
0.486261907013727
0.468314293522893
0.450014599815775
0.477408717153182
0.469328422784121
0.472346123692241
0.451137452391051
0.469777866365276
0.451610930998052
0.445919886813233
0.428761362582749
0.429275447468595
0.404112823611312
0.403259990194252
0.435078933047733
0.452102400571182
0.442186142437074
0.442626003553232
0.396471325482535
0.410856467572668
0.414630146175651
0.44763015392884
0.412907315222801
0.438557952604696
0.437096800909451
0.428269101488993
0.42499457275399
0.4266320677102
0.409167359237542
0.430910971842513
0.435708933245139
0.459626542729307
0.452537442133482
0.465561680799701
0.459589981009377
0.456751613570203
0.463085383713223
0.453144466296483
0.420629489670587
0.449616704744894
0.413110435684168
0.440671552851898
0.465639476458689
0.483891925656726
0.437259908920115
0.457899620363755
0.474980015257107
0.482419041234276
0.485542518673792
0.534771043479153
0.450027933134809
0.481705555789477
0.479716898741016
0.524172537328022
0.47549573326671
0.471147990743024
0.465323965207116
0.535654924170607
0.598214014762646
0.566298614018285
0.523470550153158
0.571660398422592
0.600249109669462
0.578264282564225
0.582002510392553
0.571779113409611
0.640536340259225
0.657350162647639
0.614172006688665
0.559941529899618
0.569552074645683
0.640274983007148
0.634796460673112
0.611011653736266
0.591783691832021
0.662249771244672
0.642725172677344
0.640407971111925
0.516763970264574
0.668232800815438
0.633784760479783
0.512442873584614
0.488405654933743
0.619127434833732
0.57063769885455
0.597293256514746
0.557625356277054
0.580969996139177
0.475414920885967
0.556546226735908
0.719767804839129
0.663291450172013
0.605720278590007
0.544029130915292
0.566272657295712
0.624050621381336
0.715473923512281
0.479933539486534
0.568070801513697
0.634720712227838
0.483230213443822
0.836988757589828
0.686801069158231
0.594669561891002
0.533974091725833
0.666926954703995
0.697069754678199
0.699398830733538
0.308366060627943
0.623443976709009
0.460676046343378
0.492872226319082
0.486906915318392
0.585688403686477
0.701152579121975
0.585027060388899
0.616747948682068
0.955392185214124
0.742656837375624
1.0487322556297
0.710701817687268
0.549838331825146
0.451718188321195
0.577040388407851
1.19342708435232
5
0.414855216864617
