3596
4000.36533379555
650.420452594757
1
2
2
0.058258723651251
0.0349691887248577
0.0553573181178755
0.029018660918937
0.0633426808094359
0.0307418281126832
0.0663019734834354
0.0305583926499711
0.0520195067227983
0.0343223380274597
0.0530951270648228
0.032937102766321
0.0548228355582929
0.0237229028888781
0.0564430136522829
0.0330776638012962
0.0554688842599416
0.0316758941422437
0.0579363672097255
0.034208986694776
0.0559308853982741
0.0424078600280606
0.0567595841350116
0.0268160919075468
0.0544591378489459
0.0461013398217161
0.0538999282379526
0.0245446710878164
0.0578224732008607
0.0355387419468488
0.0502452652659946
0.0341742755589474
0.0610120582368716
0.0386979911752856
0.0600159460411989
0.0369619169895368
0.0531063915492053
0.0309349621401248
0.0521069554170583
0.0293062931679152
0.0650649065839395
0.032651397792071
0.0584424446777101
0.0355572809939664
0.0489306498828606
0.0401437582726905
0.0465122030852386
0.0386410996963937
0.0598121115623108
0.0326500543111044
0.065304506685099
0.0256785925396381
0.0645676078677001
0.0340300402135621
0.0443295923353766
0.0430439084786316
0.0526965338652655
0.0384116290676867
0.0505450618665653
0.0136408435259767
0.0563756339328599
0.0473210452646703
0.0453776662777458
0.0422939985588014
0.051902564650243
0.0325731436180774
0.0474535337832403
0.037016108363436
0.0410317900741024
0.0290483941431173
0.0321488369792996
0.047814429873201
0.0644165547463375
0.0387720238775484
0.0519198871686047
0.0360453304337999
0.0502420320401455
0.0359534932113964
0.0287298697450557
0.0347432714625644
0.0538004299902229
0.0427164499742547
0.0562162027165782
0.0323440678965905
0.041945731902741
0.0528650083824758
0.0342526454956335
0.0158464068697772
0.0782095918650305
0.0427810636489746
0.0517875224383249
0.0338075693574634
0.0558658389712187
0.031084594163298
0.0370348111062383
0.0385096580179388
0.0508343101093882
0.0364527859965543
0.0434091247027951
0.0221241846022032
0.0497190504865806
-0.00592800882233137
0.0970871823342489
0.00569594045123332
0.106470084584823
0.0491058030720577
0.0112301229217993
0.0714529104867092
0.0597743479865259
0.0450974547650655
0.0422097764293108
0.0367969198001945
0.0417850612652803
0.0349120949906006
0.0129172015242499
0.0293255957961726
0.0869460458238739
0.0432795851626123
0.0457896617552831
0.0205410537506749
0.00509293675444195
0.0312504123638308
0.0931033031852977
0.027290952063752
0.0578280123615263
0.0254299247638225
0.0103125727839697
0.0452910340291931
0.0898384809832882
0.0313008680013451
0.0412559074184819
0.0186797138554316
0.0419906831748831
-0.0172773837564934
0.0946827326942314
0.0422214306912426
0.0424125872501147
-0.00645345430242732
0.0420754464991408
0.0897201446775647
0.0595994964978326
0.0318383968481178
0.0172303874877639
-0.00119749589449537
0.102075239156498
0.0419178169941512
0.00717533630127155
0.029006840403599
0.0726557498460355
0.0210738562118586
0.0425280351760715
0.00754322739228529
0.0585607398476795
0.0360282269310393
-0.0282411126734157
0.0382440863196369
0.131429136324973
0.00658389913038633
0.129770358752172
0.0244566572819424
0.0689788560057519
0.0262918713262519
0.0529069123814374
0.0188718047259145
0.05163470046291
0.00821143561943393
0.0287958371476958
0.0581863013363759
0.0352681475173994
0.0102488608608623
0.0711675564084178
0.0404317327964103
-0.00401197878093115
0.105462373028368
0.065763351882524
-0.00534993852071455
0.0849384381807598
0.046726301518244
0.0251623962038802
0.00761093362221957
0.0858389615147025
0.0340614234929859
0.0423167734116102
0.0207795748131508
0.0267327087065248
0.0327450142065116
0.0551344918564546
0.0248227003045144
0.0572297558834991
-0.0132648772288056
0.0312344988542326
0.0600096570042184
0.0941548765754402
0.0231006308295425
0.0493755088174768
-0.0364172310187686
0.0827510116311695
0.0662395442105532
0.0485465846636292
0.0326771524007387
0.0398668912359057
0.0201624430708189
0.0379724516545101
0.0248549729016023
0.0392317781182228
-0.0262761277801754
0.0905543535896856
0.0490254217257458
0.0402083418718075
0.00697437161767667
0.0267447037115263
-0.0141372453058846
0.0944893815761429
0.0783247628271005
0.0369539425602665
0.0399689246740947
0.0152594212187169
0.0234733859619255
0.0725432878977634
0.0286321054170712
0.0517623654631377
0.030239533818971
0.050801709993759
0.0253789225234992
0.0437866726652247
0.0414125295119226
0.0500417795231966
0.0260282062262083
0.0391320013201167
0.0254321759408069
0.0588839044809062
0.034378522456724
0.0463003419976119
0.0258449950244075
0.0250388841186842
0.012780147496001
0.0752125152009275
0.0320081925035265
0.049316570902246
0.0213200202649691
0.0399685869038117
0.0272137391142163
0.0460597725890038
0.0280177982956848
0.0490321883608927
-0.0141016544228468
0.0876798810899112
0.0362181526979267
0.052458603764663
0.00465360940831946
0.0504790425578915
0.0572075108427079
0.0405419388393089
0.0379941363332823
0.0547585909038034
0.0164438991253283
0.0160496277007991
0.0622132049348668
0.0527556746136411
0.00913637983274804
0.0450956728827923
0.0444844894721477
0.0384253294217973
0.0159992366927074
-0.0188665710554576
0.101768117025426
0.0615585605778578
-0.0195954992592855
0.114972323477068
0.0547337961010575
0.0528569616662557
0.0316439245003252
-0.0517306049812822
0.0836744685625288
0.113256845660212
0.0469622136780268
0.0369241004461363
0.0509136658087332
0.0383107693684982
0.0196622450618163
0.0476903527767995
0.0131155082593449
0.0722711779042345
0.0434097980628656
0.119776514402513
-0.00172586729791165
0.0504687393348365
0.0665408797884035
0.0445606643074077
0.0379092275740907
0.0500113627515344
0.0260644154739676
0.0395926332298319
0.0469302177952673
0.0526222625507947
0.0458388012509675
0.0281384978494373
0.070903228401555
0.0615944306824179
0.0313138021163959
0.0408473408961844
0.0521569531338099
0.0460330389872613
0.0450421321577848
0.0368207708762412
0.0493265723300508
0.0387989041817012
-0.0115552498874071
0.101795559435291
0.0538401822049888
0.0379608110032242
0.0793858342964767
0.0579123805735252
0.0353933879110731
0.046838765506001
0.0428069921866803
0.0474985810183958
0.0230526957857913
0.0226247845878514
0.0688207841515422
0.063779639916513
0.0399243096478013
0.0582336776371336
0.0395392150786721
0.053275849224197
0.0410410476206507
0.0495429164656739
0.042593469361994
0.0527790143575183
0.0221356776419423
0.0582092820159967
0.0648187330227344
0.0205153181916955
0.0393324807501609
0.111652706859122
0.0492963834235587
0.0652298275899189
0.0479351002110765
0.0663462679415249
0.0474999793831891
0.0588060603553605
0.0413062724163931
0.0477279886193472
0.0657298845037489
0.0728536678199163
0.0233602804088809
0.033288827677089
0.0596113645162195
0.125010520757136
0.0749225895245001
0.0715006200593216
0.0265676924119669
0.067148606721275
0.0923833734966508
0.0613415282659927
0.0982451540697498
0.062929590253802
0.0695599050668638
0.0719949878760078
0.0572519605265905
0.0719173828631834
0.063170793807149
0.0690314445692632
0.0695886855953319
0.0739811740870941
0.0703297788394806
0.0733757628325926
0.0444357945201136
0.111874599982415
0.0851850544198191
0.0849618818569743
0.0771655799346513
0.0637502006249231
0.0673678823646859
0.123124506476158
0.0820860362113278
0.118862281999851
0.0706087715432863
0.13415341274152
0.0916669615693212
0.102350224288354
0.0816201106336945
0.0913383552312984
0.0912700378535825
0.108906639503759
0.0931139896732487
0.111905690427772
0.102526588724868
0.117436177814696
0.0939641091447038
0.109325816544656
0.0942656485621153
0.136001145524646
0.118909106771789
0.111503705698502
0.0883506952906022
0.0921341772299278
0.146030480969343
0.172426804551885
0.124596906644604
0.12669126271192
0.136393910493089
0.134362833549521
0.129248909910824
0.119511044035357
0.132767954549837
0.127206222582648
0.136471576612614
0.160421652882778
0.145387794459453
0.175605279817753
0.132039246579555
0.14870334946501
0.143707042167115
0.135850816517835
0.178411246422692
0.173395509645095
0.141812582818081
0.175890146115253
0.187410641690109
0.149987121334991
0.185841155078846
0.171294400707177
0.167470039360621
0.183800769585391
0.163820795921934
0.191371041368822
0.179977411492396
0.183010864166105
0.176555811790733
0.188094541951996
0.174485927698465
0.18729816109532
0.186308769483025
0.211990096869353
0.195412694859381
0.220022457347324
0.203451214586599
0.206218370759559
0.194557569511249
0.20681610829422
0.218846106781437
0.216325777978626
0.234877796804186
0.226369990060812
0.214350439478928
0.22675436855693
0.231146722777928
0.248312392050899
0.233083889746655
0.238524269845721
0.233389391405792
0.2344498014918
0.241709973685939
0.259612759456451
0.235726513893534
0.25701686929187
0.257363963273432
0.261098370052067
0.24489882410786
0.262336884703539
0.255112168572923
0.270534935950671
0.293934157134697
0.301952227330067
0.305291778215561
0.295267187947129
0.272066205166885
0.287549294539764
0.29844927211736
0.291748925498084
0.294974537347874
0.305723882611147
0.292133004032454
0.306971502107891
0.291213058705026
0.293250849893202
0.305537631974737
0.318214966489625
0.296189672932281
0.337013538355815
0.322604943408562
0.320641996842745
0.311599366608534
0.32969915524625
0.342109063405985
0.340096512959573
0.331529688320479
0.349018027469489
0.345281873711717
0.368273997244608
0.350411647809275
0.36497239817131
0.365892345559829
0.373732428562669
0.356927262929657
0.388796170319535
0.382270043967439
0.37655193891434
0.377693126817274
0.397464450706412
0.386385313123247
0.393923155828478
0.382528418573276
0.391792031024333
0.398183189294606
0.419086922685054
0.39325491046175
0.393140351115389
0.429089313410001
0.413249260416848
0.42708478390144
0.450535192882238
0.443192562471616
0.450124895541957
0.437689689574039
0.433053837512073
0.438495049056163
0.457143912485939
0.447958766872714
0.445650550076183
0.448973630543966
0.466570002565038
0.463890229497126
0.511971685761595
0.459424149542795
0.478741889118642
0.49152775173447
0.490424877712356
0.492493300189964
0.517232599303171
0.520385453301794
0.520591679821486
0.523161189460935
0.516853891718707
0.547361698197695
0.527575275703945
0.496047659422016
0.50286655929833
0.524742971971935
0.532990983088235
0.532189369227001
0.549783013984487
0.567077905183693
0.576368811850393
0.561673318370706
0.544872321992718
0.533261076515526
0.565897264252456
0.565078932873324
0.54573806667141
0.540448095655163
0.570827689707507
0.605450248764692
0.586820783947351
0.62191550518139
0.604941514912813
0.57956223072764
0.614742077636138
0.616204333876297
0.590383533228348
0.581141640183689
0.582440750471481
0.613500734759098
0.630637270471235
0.618310878999623
0.613394648739698
0.606835171456275
0.643658243226744
0.666689456002077
0.64155921845878
0.64007255864753
0.663134672159301
0.651424079419309
0.651918152085324
0.673772318897622
0.678709576148408
0.671481239129496
0.696511949928741
0.689989726376939
0.705144676150953
0.697749842526766
0.687200423598858
0.717656187283496
0.691566734077617
0.684352070872362
0.684413095152248
0.70583569449193
0.695853893623793
0.684099790130187
0.691520166678185
0.695634076271057
0.708114682444587
0.732280338308301
0.739231333663399
0.75065674526098
0.751616404754934
0.747845688607288
0.709335720331923
0.747486554598765
0.771422144701216
0.751229153238846
0.722913855058295
0.752464334968598
0.798431276618105
0.766617181548906
0.754999744604591
0.802675281272575
0.754674746481616
0.750567431612576
0.752781908621638
0.753112886737783
0.792901917008382
0.824840098791221
0.815324428115982
0.80138162096997
0.811757701074814
0.834913277643622
0.822150206106355
0.847273846975242
0.796114741251376
0.804134904754896
0.832223737005026
0.81290008529857
0.821466706112629
0.795966879621834
0.828902522107939
0.860410212530364
0.82342624298705
0.82431550868374
0.830462985682927
0.873537078032955
0.85187231569247
0.856479476223664
0.843104959057922
0.898635720862994
0.81776894786728
0.812583969736348
0.871337331234318
0.936764802734633
0.857381514199475
0.900902561827351
0.89180994611964
0.864562294671776
0.829586389025446
0.879709764659981
0.872979204184232
0.920820502899036
0.906084401537909
0.860605240340345
0.845694334810736
0.868237802969601
0.836467640536602
0.947788851302978
0.925273238655671
0.960728274419647
0.878819202040875
0.893374677193385
0.877661011080298
0.929591203835367
0.926680351995857
0.967414349337036
0.913277651680561
0.952276983998169
0.906757243757812
0.932631972979694
0.917361270120552
0.937125639860217
0.917429522553564
0.940824897294471
0.920413509112231
0.947871819809475
0.940245272829163
0.962945889478097
0.893208845581917
0.973052318246539
0.935295376245878
0.967840031285133
0.909380762423733
1.01071187758871
0.966405592852368
0.962863878581073
1.00040277925783
0.975892277896599
0.929029408373248
1.00136968283284
0.930573751395993
0.943675988193339
0.923148703230966
0.996763486916954
0.932094736288392
1.00348570143802
0.962165491467963
0.972044990037528
0.957760031702925
0.959868777189652
0.957540689176684
1.05136014770001
1.04861638858888
1.09259907156933
0.919413069715747
0.980245492843109
0.953046025371237
0.961051332955449
0.98842432266547
1.0392020789544
0.944707934558067
0.996346421811926
0.950244141642308
0.984889072593785
0.99267357242996
1.03349170112611
1.02657244178023
1.05376815455758
0.985058868513803
0.982400099746357
0.987946104206212
0.977557093923424
0.990856004858906
1.095953432977
1.02509603704587
1.01612120171632
0.975971424787179
1.01457460780176
1.03536065429002
1.04216823167215
0.997754684997624
1.07938566300848
0.965038172065951
0.988498185152606
1.00275182562665
1.03876423358605
0.962305817118887
0.982840080353782
0.944292995674641
0.993148316336178
0.953258399658195
1.03234256111126
1.00650805451724
0.990332797205801
0.95981880270423
1.062399947267
1.01054875517583
1.07018105808719
1.02858804785309
0.972608105083992
0.973701923541721
1.03564192282299
1.0422239937297
1.06070874467796
0.997382973823479
1.01669359184912
0.95413269725374
1.06578637727324
1.012419596436
1.05929739675999
1.02101980909872
1.04573724700552
0.991679482630218
0.9939268574596
0.936252345518932
1.00983777371585
0.957328866107981
1.08341786829203
1.01794756344214
1.00033721985508
0.978866956317374
0.985322711944566
0.970927522181733
1.01843338440765
1.01541135669588
1.04028792981964
0.98431954890606
1.02694365778529
1.00949295599734
1.02594723415125
0.934823575957049
1.03938723730035
0.992085258890832
1.06419270948646
0.905889260716513
1.06111735571657
0.993344074151697
1.00463596548848
1.01267356520682
1.06075535828778
1.00608067437931
0.984058176221798
0.988397199607768
1.02913353691196
0.993513716304002
0.996364877632379
0.952177562190691
1.00428283604013
0.956553591530273
1.02716240308193
0.947972714301357
1.00173548041435
0.983130059415138
0.982023967534292
0.97005245190221
0.977768432729619
0.916859349360941
1.03541041885257
0.998096765049879
1.01411263766196
0.947669559710817
0.985801874360452
0.947618126361311
1.00621672637481
0.968682051432432
1.01108156885908
0.959626104532025
0.999911708655227
0.931349680042332
0.965590996612944
0.938752781480876
1.00227837174417
0.913745943560967
0.978031227953264
0.922923622432107
0.937311728534312
0.944038724412669
0.988076506246146
0.923276615701465
1.01814977295509
0.919726992836698
0.995925508723315
0.900194065970571
0.964577625040929
0.944777221129781
0.956359479570403
0.912957142042262
0.934472633441141
0.856659692383956
0.943467284769477
0.930125944098144
0.903220991402008
0.900225837229257
0.94342903703821
0.894823783814488
0.912543775603842
0.920305243481135
0.917282801782678
0.922635988317543
0.916895670215734
0.849110497372459
0.962210819386155
0.890281257885749
0.905075605727408
0.869811369112298
0.924604649713129
0.836879048238118
0.907284563753614
0.845196517708051
0.869684284067946
0.832356294364995
0.88776335849355
0.85043604673997
0.87512934646731
0.869758008428961
0.853454476230631
0.808948163406355
0.86194900258167
0.848878092904408
0.896470141484633
0.842404391711576
0.85231178239822
0.803527566098295
0.853588921519695
0.811365292662352
0.838718998358552
0.851922089062809
0.873634251547103
0.815600912092012
0.831475834519541
0.810619908651921
0.863315500483503
0.820482398004373
0.803880699462264
0.760279249924484
0.844494667995722
0.774982870197567
0.802680741512657
0.798931163046883
0.796021599232678
0.772164275202227
0.809738753734307
0.758330535431115
0.795990452440209
0.77486777004113
0.787440063333909
0.751350216479212
0.77732819237103
0.762756571136508
0.786170469912233
0.748426634523972
0.762381731449768
0.720339576521563
0.773218513128938
0.718083526697774
0.718199258209356
0.715708421839239
0.722821899697546
0.707007358646165
0.739342031847352
0.714011777036134
0.734424545537924
0.712788841680733
0.756922142647011
0.693960958952757
0.730601071134495
0.690156622276104
0.711451191848509
0.698022597778641
0.712019208624482
0.694463030511465
0.720042212794446
0.688966005616535
0.712425923423832
0.658740464356524
0.696941330175897
0.670957603299904
0.673564372028065
0.643950065921929
0.661793388718806
0.669265394673655
0.658383557159207
0.646887353468582
0.652638061887327
0.651558848172561
0.659011470583703
0.649432089928746
0.643398796276964
0.638129777374401
0.644110502830821
0.612991388389974
0.634172904197885
0.609002405214562
0.633492046438172
0.609028174805903
0.627383599280645
0.603875973672458
0.626527926011223
0.58790385989758
0.609112469790569
0.58871042159983
0.605987372819354
0.588676855075012
0.623361968556605
0.578484404154033
0.586761116549001
0.581629418642586
0.594569852414418
0.57340857188422
0.58371590539632
0.567045859560262
0.575667871290154
0.563646846892717
0.582401375807577
0.55606648471216
0.567193057247753
0.555978953643962
0.561196558802551
0.542450257817298
0.562984641038854
0.538993541807899
0.558258997122989
0.530903058286312
0.548936942189152
0.543250879699864
0.542283097431114
0.529513554929184
0.542326510680198
0.524962968763997
0.517320668260808
0.513862338607434
0.525803516500848
0.509844273118193
0.524092619582692
0.500356596661553
0.521024272976989
0.517632582629576
0.513863001913185
0.504148039903301
0.504123862864358
0.495519267898121
0.499259750372886
0.492575217892367
0.507822612977669
0.502554776964883
0.50473366771116
0.47656689975965
0.489304669587652
0.479273473702997
0.48586742952411
0.456055337646746
0.477613527038832
0.467032632461899
0.467277622399114
0.464280687669081
0.46419215819758
0.453582029779934
0.471315204387823
0.448899745047278
0.47353371208648
0.447359974343052
0.469458745016076
0.451201726332021
0.45515644941675
0.446835390254333
0.452301112486661
0.445225560586625
0.449232214667586
0.420587266997819
0.443545147145312
0.432689448440115
0.438962996558392
0.427371378052671
0.433604759584901
0.421798057928819
0.443553518132336
0.406579477510933
0.432926288689293
0.418044538095547
0.419113197381888
0.409134691321104
0.421024249873626
0.407383236210206
0.419021737499142
0.408371042680654
0.416744195709468
0.404136753881556
0.410722883604275
0.394384630875704
0.411528733562986
0.390664308119402
0.397135800751351
0.396041901652045
0.403409622300493
0.376315441012349
0.405099094959831
0.380426570572081
0.395651913658433
0.382668987469698
0.396203883140986
0.373779835340947
0.389867092155148
0.383401338247017
0.387683508685152
0.363195923069132
0.384167656395022
0.369617767228197
0.368692749069653
0.362156419472511
0.377558811942631
0.361520745681341
0.378755462023421
0.36221545351563
0.372670312899466
0.369078231372873
0.365156074541765
0.355954259557026
0.362448910918901
0.349285388583544
0.368344693200567
0.351719012758939
0.361399734553026
0.350033085152213
0.361811464704122
0.337536602535126
0.365485508756091
0.344167251450052
0.361598665411803
0.338677054902878
0.354663429990543
0.34576245467142
0.358072436593787
0.34618766973402
0.36289915415227
0.351534728097101
0.353909406869837
0.349040216485865
0.363523640887538
0.343819536149799
0.359369223833577
0.346101190113989
0.353407352004124
0.348905776568147
0.359915373364782
0.349715299255876
0.355153418634331
0.35294708375021
0.374432887095156
0.348847955312584
0.367532473206906
0.359635795761958
0.368496535710824
0.361693905989344
0.367533569278701
0.364898749122015
0.380794110678952
0.367156422000986
0.381895237617138
0.36875194287457
0.360816400364548
0.370776843435993
0.387471606906241
0.369399574279253
0.380348352617775
0.361136787115977
0.376304810353704
0.377779587209874
0.386997936409276
0.375148193114205
0.395232686179398
0.396940233091698
0.413405111177392
0.380173731038029
0.401334735926682
0.385116088158255
0.402250957935868
0.389425236132576
0.402960736548
0.39322671010158
0.422362017876072
0.400249671272569
0.425140060387857
0.40798571715563
0.421062807170986
0.416370523549285
0.428800474983447
0.417641947574692
0.439828960840332
0.431146414007933
0.442112799901502
0.43375872105843
0.449770739068616
0.431106424976233
0.45527847741622
0.43878125429264
0.458919531769279
0.432797349373405
0.464488136085303
0.452718137810114
0.465962382679092
0.453484461624646
0.462974534192971
0.455185269949271
0.474771538354144
0.45870011704155
0.470052018825166
0.454539831249809
0.473584094380412
0.461823011237835
0.475378491836468
0.448872973814103
0.481817984879014
0.456829716117344
0.469130664821989
0.45049288326803
0.473251406189698
0.451710200012529
0.467687428171906
0.451800208125091
0.467975335437971
0.457431051625259
0.464246736941476
0.445875727208553
0.468947709260939
0.444245165775889
0.474347976997129
0.459226994419094
0.469947291018418
0.444043135187219
0.472717171336656
0.45291026009911
0.483503850690742
0.460886364746961
0.468663206739409
0.466097278094257
0.470654689114238
0.444513022784684
0.461291631717167
0.447122084326093
0.468937178012594
0.462518585583419
0.487763656417733
0.465126451620916
0.464475524593773
0.451156284245607
0.472338298864316
0.450066361200161
0.464236733246458
0.459695078834843
0.478889836350655
0.456635624505103
0.467728217644689
0.458816334862676
0.474649190071607
0.458404435474724
0.463356168960621
0.455782781185212
0.464544120380657
0.452448712277615
0.465079636111214
0.458942471309488
0.461855325653404
0.447765783877034
0.46126147024669
0.428058182512917
0.451290061879189
0.435649914448951
0.447790145575254
0.428749035299799
0.442700156146472
0.424055977835129
0.446260955565881
0.426626222207267
0.432281241123934
0.424667493975618
0.427611636406343
0.402202194022888
0.426481130094629
0.410037358946068
0.421798947824566
0.413362973268207
0.415093762770575
0.411378820003418
0.407096941811627
0.39465410307114
0.408776248896592
0.393381994364016
0.402994933859819
0.386753480047643
0.392202989141735
0.384546173488617
0.387449501119036
0.372368480984319
0.381734412201625
0.373369155334621
0.37835984532661
0.368694710109105
0.36945718300446
0.356807758755663
0.376801942784624
0.34656869139585
0.363072683088458
0.350467167204835
0.3609251689854
0.352736801753629
0.358554255300065
0.348197943489649
0.352876172192393
0.344938204662347
0.355108917539352
0.337815541165347
0.345090780500147
0.328058723318305
0.349830512684373
0.330702909371992
0.337022855612444
0.330878977502519
0.336850980771329
0.320459625489816
0.337795214217582
0.325146118405885
0.330463265835071
0.322152346924946
0.320292679135237
0.318024836678881
0.322315078108798
0.315181615070525
0.327105594417648
0.316357846582952
0.316600268503151
0.310963567732354
0.319720161048104
0.309830176734731
0.322309787858208
0.302908690694507
0.306072685072865
0.310481019944745
0.30859590948692
0.298440589997199
0.309209273092138
0.296644398017006
0.305098345045629
0.292685261742492
0.305903761225914
0.29561996641512
0.303978411465884
0.294866493875985
0.296711860006375
0.294856676178787
0.292901583427875
0.289616323449614
0.292725504335718
0.28752023718701
0.297788016319673
0.28338077998172
0.293284677769745
0.284605554656515
0.29001290927115
0.288680934124034
0.287904574842895
0.278683494573169
0.284828266778414
0.281369067665488
0.290100112252853
0.28616067228399
0.283186209856243
0.274736666811584
0.284289760487617
0.273745170369175
0.280343975927807
0.269360412158164
0.284934300119927
0.271659821867455
0.280899213686256
0.270306252806964
0.270403995278329
0.264523753310688
0.274775627689401
0.269572909375369
0.274227767525085
0.271019282221022
0.269009786289987
0.262274710495462
0.270328627938173
0.268207212885949
0.273190699411956
0.265003806919148
0.274732192482277
0.26251782723447
0.268678250715286
0.264232191810503
0.26687582062024
0.26006638375813
0.266058073177294
0.262939226364489
0.265303517114808
0.258015948849277
0.264463344517913
0.259816558011742
0.266570976371544
0.258248054039767
0.263879853351514
0.256643701550462
0.266638249566045
0.253252533180639
0.2592236483585
0.259581834344424
0.26318733084168
0.254203912709944
0.255560197819577
0.254508114340638
0.258336361387951
0.255932842998588
0.258170691107549
0.254371294929035
0.252471155620887
0.249144989749906
0.262497332206048
0.251705493980903
0.2521628342483
0.249979354562107
0.255834611325394
0.248319605138704
0.25506212983376
0.251536155132741
0.254711573474147
0.245106844815594
0.255460708553501
0.247332770113211
0.259584783682102
0.25336528818501
0.257242685446065
0.249570289302424
0.250928328802404
0.245033550521266
0.251693843123329
0.239626366864176
0.243055805657828
0.239396818529717
0.247633289462872
0.241183721980278
0.247330759365298
0.234007385980923
0.249246050102527
0.240132817639472
0.243528726442095
0.239228347270909
0.241743140744993
0.235994020881159
0.24467506199541
0.238344484551059
0.239308924922444
0.234264563628718
0.240364918721727
0.235090730856143
0.234513673148369
0.237724895845272
0.239359333034184
0.234727265906874
0.235356293036565
0.232808028536617
0.240493689534874
0.230075534567691
0.235533741769775
0.228790967837245
0.238412330037393
0.228996641122734
0.230642627524144
0.228454235980731
0.232345455849127
0.223391590225853
0.227125520998668
0.221888389273831
0.227793195644834
0.227957461103816
0.232982131448418
0.224776995400903
0.232398291403162
0.224312558208921
0.227447886557555
0.222597287279983
0.224752901811366
0.225553997266328
0.225892601597341
0.220520407047529
0.223174350554011
0.215554064924396
0.21959631703174
0.212931082320196
0.224657477546402
0.212440247020429
0.220922488957865
0.217573767288347
0.21803750297975
0.213386173699912
0.21391276501662
0.209833728748819
0.210405785723077
0.209948939433336
0.214538843827949
0.209035603269147
0.207591377754885
0.206250709197433
0.209455636066785
0.208601433326833
0.205926409220936
0.208464460087267
0.206883437279953
0.202224209400929
0.202762677488116
0.199427411463523
0.203688499732838
0.196818258081929
0.206205005422023
0.198258738583051
0.199004965582461
0.192692666514265
0.194919218611496
0.191293516313541
0.199224380908851
0.191936531729818
0.19833149376342
0.193917225535961
0.194066141897987
0.187056044771645
0.193090875487601
0.185083983733426
0.19134662689313
0.19046846729509
0.200791560788926
0.188325604865847
0.195481150174216
0.191064823030803
0.185913068915193
0.184575582293314
0.184423899067797
0.182220306582544
0.189189929894061
0.183453924131273
0.18463953860544
0.179956184032799
0.181448905871861
0.179610926717222
0.180636617945521
0.174794607183411
0.18182056773012
0.177186928104488
0.181839104433811
0.176460279554184
0.181653133545999
0.175914384249924
0.177516403003987
0.175297818312418
0.175351294734587
0.172650295980517
0.176644609178817
0.174225322703937
0.177745446567084
0.171335571348783
0.16864089620378
0.170605090483756
0.174550486358584
0.167575753766269
0.172087281074016
0.168026584611714
0.169928001988001
0.167129291889497
0.17148526457041
0.166806479889852
0.16646970792369
0.161990508100479
0.171151546369026
0.166702248644724
0.164337723355106
0.161429106571865
0.163663411394657
0.159286175654725
0.16645999330741
0.162806149717178
0.161335200349263
0.165530715517455
0.16381684340272
0.159900596700812
0.163926564197389
0.160513200375259
0.160738790096107
0.161340017528242
0.160177241921229
0.159133928790097
0.160085915822857
0.155938787696664
0.15850267145006
0.158975467293649
0.16035900788083
0.161155014853144
0.1589329737228
0.154361312305424
0.157352356551458
0.150968489853875
0.155462330835997
0.157367706779529
0.158516265363819
0.15358972231672
0.151904819749543
0.155557141760036
0.156844630192827
0.150171181560897
0.152007783950449
0.151497271094044
0.151578907194489
0.153677711726353
0.15463294117166
0.151678401648719
0.152403818146265
0.150415601659324
0.154087929784858
0.14920586860369
0.151279110960582
0.148097345159457
0.146088749594836
0.148349922948074
0.145838118262077
0.142384042783155
0.152432852138333
0.147670709045358
0.148778554099526
0.14664772227931
0.149551872492896
0.144834519694391
0.146647537356695
0.144107767814067
0.148223544356101
0.148980308910602
0.142983743373155
0.138739165011431
0.142382875227278
0.140883180877761
0.144557474007746
0.139715681255543
0.138071934725546
0.141490493148963
0.140367111710097
0.138062046832048
0.140921201644017
0.138679109004755
0.13619350911549
0.137257955071414
0.139592757475679
0.137188461965672
0.136613909373321
0.138127903905407
0.139045959402141
0.13661437732162
0.13935945625234
0.139287168232171
0.135577613296985
0.136856316987788
0.139811992475708
0.137513963066976
0.142369230083598
0.134701128956226
0.13670515841963
0.13866975888911
0.136088018821707
0.132110451595989
0.132132718856205
0.129316871073102
0.135169877980982
0.13020727404849
0.130489180792075
0.133026549078088
0.134669625742883
0.138356128023701
0.133625525485885
0.128401383364509
0.128227737033722
0.131772082998548
0.129561122674097
0.129240507438561
0.130134479734629
0.128699629995586
0.130820773060528
0.126164599531676
0.12287005528046
0.126439357170871
0.127118978682203
0.124129632178835
0.124776157332975
0.126287225050402
0.124828038444378
0.123446517755967
0.123668772415902
0.1208176632747
0.126133031190669
0.121101480522642
0.12187264356733
0.121401039609653
0.118650669261799
0.122523912202652
0.118670814361259
0.117473330907088
0.117525593517492
0.115561805978964
0.112698601627031
0.119223099742559
0.116625022615237
0.115309324442111
0.117367912795896
0.112153616633108
0.117932814481112
0.116319779850365
0.114104486345534
0.111499708043366
0.11404989797103
0.115750950966155
0.112896575305852
0.110366589043149
0.113778434541441
0.108555041295205
0.107009116393582
0.109492947970259
0.109282062516798
0.113098670948678
0.111171592549907
0.108551474233078
0.104767075251539
0.105645208235118
0.106756480588341
0.106070785788109
0.104671117256535
0.106042824736087
0.104169315215119
0.107355485538496
0.106233448740887
0.103463768520272
0.101168051647077
0.103196028372081
0.104566113812868
0.0998159640983019
0.10126564430204
0.102781691834921
0.103226617873877
0.10219439231625
0.101598860742872
0.103375361171392
0.101623277809379
0.0988495121848741
0.0987654306970356
0.100669990004259
0.098776449470446
0.0960902086204915
0.0964582950243304
0.0970297134713827
0.0954365930916207
0.0962753642914773
0.0921034194852737
0.0969785169583173
0.0961531062857832
0.0939430835538397
0.0915428144797385
0.0952886856202138
0.0918967947497821
0.0938521621689132
0.0919629174579813
0.091841549030647
0.0927130922023468
0.0946232722388701
0.0904358535448717
0.0930200843169423
0.0869404814206678
0.0908717441623678
0.0868993101590714
0.0878743208687802
0.0879315209198796
0.0905559091590601
0.0863894863538238
0.0906828914964047
0.0903793816761847
0.0877192215459373
0.0858598585227367
0.0907931881771954
0.0881252627327419
0.0891856576218134
0.0880407145334814
0.0868952843850556
0.0826233165647871
0.0898050780003955
0.0857115397430689
0.0887736714994832
0.0867396643578889
0.0850146667413207
0.0832495533432724
0.089333514013484
0.0848919484245372
0.0862031600763676
0.0803288948822355
0.084535409250853
0.0814387184169273
0.0845437789681741
0.0801412631099086
0.0812372298499292
0.0772801881819674
0.0873189070099418
0.0840032836501909
0.0893527699267778
0.0796555227207531
0.0883594636206531
0.0759901159399542
0.0835738111807114
0.0832099875729748
0.088724787145241
0.0794390961250043
0.0850999718031574
0.0829371475456256
0.0955074866978513
0.082810594265798
0.0831974825542114
0.0818221290388706
0.0875740094139839
0.0824386564070049
0.0889867945000411
0.0760448875126866
0.0906167803231015
0.0781051244771714
0.086301667096618
0.0822485477998806
0.0839625827092894
0.0665043959115123
0.0871263424398935
0.0712572292113409
0.0798301728653019
0.0733241893320535
0.0891321853931651
0.0703511240924634
0.0936502171363202
0.0703595960848172
0.0979528628132021
0.0638933710952739
0.0940424753025068
0.0685399229491326
0.100884692411524
0.0738792941336517
0.0972906072604803
0.0590243623283791
0.0922069451981414
0.0566983206301052
0.0947928500085977
0.0659336380048563
0.0932997313177671
0.0612196875546878
0.0896707935950699
0.0640798642177716
0.0939743596026647
0.0761981827332229
0.0778423867695847
0.0682709477178404
0.0861182404518837
0.0821172464283746
0.0658960589235064
0.0856327054198299
0.0670608555735915
0.0900384346414586
0.0548259403391672
0.0955774032037165
0.0564869828711076
0.0891567942800353
0.0604839827819752
0.0864678267075017
0.0618766417224155
0.082505161226357
0.0683787282508517
0.0767311838730231
0.0727230762084536
0.0739405296701476
0.073031268831987
0.0734401442198124
0.0671823287128056
0.0734201469906618
0.0690565461192184
0.0745497522832932
0.068202109802016
0.0760684967296981
0.069640767557034
0.0757210424566826
0.0655990090460969
0.0748807840648833
0.0690222726048974
0.0719240396683956
0.0692667916927893
0.0736690031246429
0.0691582201411843
0.0715813224499065
0.0687365713239721
0.0756162675117121
0.0668864396779924
0.0687283340621131
0.0667893607812586
0.0716338670440867
0.0672766295454231
0.0758502274241358
0.0649682236611546
0.0707321164696001
0.0691295005917885
0.0719336259160598
0.0693530786491011
0.0735359348863243
0.0670489347911244
0.0717550653245234
0.0696085705053903
0.0701512411203545
0.0687188044062996
0.0712768159883135
0.0695940780582738
0.0765501212140296
0.0685137912546485
0.0699159266391411
0.0686370539107662
0.0707360552447015
0.0673018537693054
0.0746254920764789
0.0668903691764262
0.071590623260931
0.0706852037739794
0.0690896057490859
0.0680704076777319
0.0680208533220887
0.0709482135373335
0.0750794262268295
0.0676552178612666
0.0702623354297883
0.0678085315217229
0.0697107872905571
0.0691705067071182
0.0705486157626052
0.0672203704113365
0.0673515850955526
0.0684139031088953
0.0706344466482143
0.0689524470710389
0.0692349706850971
0.0657979561112135
0.0713811998730992
0.0720903393892382
0.0692520207353138
0.0651388852591339
0.0695008357696738
0.0683216998877549
0.0685746880676354
0.0646728018082576
0.0686461440325642
0.0659196046755744
0.0725735761621876
0.0672425004950993
0.069441295430944
0.070173731489724
0.0716346717297274
0.065777696173043
0.0715866444998629
0.0698265710328438
0.0679953403028892
0.0696118556665433
0.0718969204049692
0.0668008719933499
0.072490149491726
0.0682164277540989
0.0718373097265762
0.0715155816673575
0.073438964086711
0.0738407822086526
0.0717251386736222
0.0679005243727949
0.0687571208128717
0.0714989796217006
0.0684759871811925
0.0706436755067138
0.07400995816942
0.0705611850210713
0.0733104188250251
0.0718329138017228
0.0734336111090682
0.0710990120083935
0.0726280310624547
0.0712591115579125
0.0708371682720425
0.071557320948519
0.0723509540222996
0.0729808938168841
0.0721489034381666
0.0745125165412284
0.0741579455142098
0.0716958794348899
0.0709691827585306
0.0732666791719447
0.0718330935695602
0.0725086703497934
0.0728425585794519
0.0714360101881735
0.0723076891804089
0.0710097086465106
0.0720185778669046
0.0703779542479152
0.0756338028676707
0.0756083685383812
0.0715505076556822
0.0675716404134216
0.0727736850724605
0.0753786159926498
0.0749033053928443
0.07349187206306
0.0750760988790092
0.0746283392138532
0.0731344061323593
0.0730914179024916
0.0742441686481605
0.0767212865902474
0.0758775398629314
0.072818419552036
0.0734073225865514
0.0775280825703923
0.0759699646218292
0.0753762002980398
0.0751543550364387
0.0742154493023106
0.0747913511140212
0.0740530904148473
0.0752462871278272
0.0775386947120984
0.0774097776361543
0.0731286488369474
0.0769927900236051
0.0789166859897609
0.0758451803433384
0.0752013997883343
0.0775941873153574
0.0773429501518166
0.0765937051976199
0.0747060925623502
0.0760197706561599
0.0739595962363318
0.0755611485177318
0.0773445265058077
0.0778240285409381
0.0765349394180495
0.0781647027948633
0.076518666198795
0.0749396253069089
0.0732687842576271
0.075356999024991
0.0740743685706751
0.0734880480762126
0.0754728120373223
0.0757347633465237
0.0782445031783982
0.0754321224219783
0.0746394972922381
0.0726542007833846
0.0723117697369064
0.0728615492355128
0.0732478286069424
0.0751859913027185
0.0737747019913229
0.0736187864111099
0.0719226514083688
0.0730847882498301
0.0745956425531331
0.073198769408752
0.0736444132804259
0.071160507926884
0.0709844261910764
0.0710170946714646
0.0725147854445532
0.071363963077347
0.0724486967219442
0.0711539153041535
0.0733764956301591
0.0716781976247801
0.0738923347684389
0.0717692504956939
0.0716981269246925
0.0749637224615532
0.072537943675853
0.0697538895913465
0.0711820499377472
0.0732749420284359
0.070327466504259
0.0723326302276223
0.0744689295879807
0.0706976072822564
0.068846308255137
0.0718151658880696
0.069904185008392
0.070490033930013
0.0724608398431936
0.0724892233425684
0.0734137113248887
0.0710451285302359
0.0734441683752809
0.0732783746941842
0.0703910939181618
0.0691606174474446
0.0681370667418624
0.0698315524606344
0.0710823948360451
0.0698518267284356
0.0697385604654354
0.0684253995357799
0.068668783954887
0.0711517225353804
0.0712350045607683
0.0682725837615268
0.0720995644369485
0.0682427419165459
0.0692296227107475
0.0714091945725742
0.0715460823494599
0.0714786491145024
0.0719144070551957
0.0705179418088827
0.0690017924481623
0.0692848205616254
0.0694182678977967
0.0700619782212889
0.0708792110033909
0.0683888702278601
0.068992723493524
0.0716408902206576
0.0715780254249731
0.0690271544328901
0.0707184558348626
0.0677663195840344
0.0714800076546632
0.0699452765757009
0.0680818702658247
0.0690541291072622
0.0683025761968034
0.0672333533110724
0.0687865605647151
0.066573658920104
0.0684468282492447
0.0676643452050751
0.0706929532477968
0.0685590504796725
0.0713136757630518
0.0691580871062518
0.0705346832525479
0.0690153511189004
0.0695548151960191
0.0696935876356601
0.0679446129838212
0.0666408721833607
0.0679471394604575
0.0695589232870173
0.0666281987137315
0.0667327591194536
0.0682727132175115
0.0689935393787885
0.0693986360167234
0.0644393261526239
0.0691227115405276
0.067385243178795
0.0653137099207052
0.0664600324202413
0.0655320219292719
0.0644471533562514
0.0688866229227785
0.0664880618601791
0.0650442709001963
0.0648491090459315
0.0662290468975322
0.065491676231257
0.0631874212054386
0.0632638284327319
0.0655712624186639
0.0640186876402656
0.0641202764406475
0.0636840172209183
0.0651165888982491
0.0660560238024004
0.0597859558104034
0.0627156382033268
0.0642214590724196
0.0578193898984786
0.0666696957057935
0.064207786382085
0.0653331786157354
0.0595428769567285
0.0623255513376878
0.0596573270206386
0.0638157248980481
0.0612401582581034
0.0630249115891887
0.0601398743506749
0.0614999418459545
0.0618062010017073
0.0618819893113328
0.0591965063221537
0.0621132095067893
0.0616499525257338
0.0619924931875493
0.0587385900582172
0.0618862200632478
0.0604696320896907
0.0597650750303048
0.0578541825066104
0.0624790499604174
0.0552683537613187
0.0604157232511969
0.0581691424607206
0.055706904060818
0.0599367101498614
0.0609226091248782
0.057840929945738
0.0579359253578782
0.0608574834311751
0.0582038934453711
0.0565215650968914
0.0564580194349149
0.0582630142532221
0.0578597554221772
0.0556174903115629
0.0564955441267072
0.0551207895758803
0.0571887657964025
0.055471958587524
0.057097746694241
0.0562546031552731
0.0563529684648398
0.0580483229024674
0.0557374392473296
0.0548391976942582
0.0572334086986795
0.0551589701108498
0.0562905124474681
0.0575473464236763
0.0519462150775899
0.057723663212833
0.0575641693929724
0.0590426522191438
0.05416617123288
0.0573669166319118
0.0533232565427519
0.0549106254802236
0.0556236706829105
0.0543719956393624
0.0554845683317112
0.0542917378942804
0.0562705930052687
0.0515352772057232
0.0528215689756264
0.0539981883874257
0.0549528374685475
0.0565801500033729
0.0531043384323058
0.0547176544449936
0.0487095561586425
0.0571301942450763
0.0505829311392591
0.0530147736873627
0.0457653993293681
0.057395008143997
0.0507904186358721
0.0477860135373567
0.0644297639075316
0.0513202653331295
0.0579559746042975
0.0506933616850366
0.0580562912845613
0.0476322540664463
0.0554012043938148
0.0493517950647468
0.0541470155188879
0.0504899217466532
0.0547098516882275
0.0476976346696261
0.0501578228203404
0.0482224629738929
0.0532446192367558
0.0504637048690421
0.0535937011577749
0.0465096859208863
0.0541500581185217
0.0477685002875909
0.0544944991389701
0.0592569027261058
0.0557022682738553
0.0502968390601698
0.0584874404404746
0.0334398454827539
0.0670171740549418
0.0540279914019329
0.0558271486799309
0.0490060342776704
0.0558066318416034
0.0474151203091539
0.05291073379131
0.0484469137451849
0.051659461807647
0.0559363373923072
0.0504678822662106
0.0552533301461864
0.0494676145029221
0.050139375288214
0.0472123887862334
0.0488896598763238
0.0534433370762713
0.0501900911682924
0.0507049107897409
0.0524456804954466
0.0534710844774158
0.0465331987608662
0.0569183842836
0.0440979747397773
0.0483203210016688
0.0527320877624574
0.0525422085514534
0.0494320826254826
0.0536396358599657
0.0461001655171962
0.0441539125776348
0.0674401410879339
0.0473912272451615
0.0546270338000366
0.0455099415415389
0.052187049197979
0.0536736696344857
0.0520414393938084
0.0486547312703778
0.0510831718016164
0.0491813327553606
0.0511925313454529
0.0495413381938755
0.0533486171413259
0.0504352566847571
0.0492062802391808
0.0503264918381314
0.047387454962108
0.0503378540263252
0.0476256338268086
0.0556713044739197
0.0386022877163535
0.0489213138877695
0.0552834295240268
0.0520060391209393
0.0553539794599096
0.0521491225013637
0.0524318763689566
0.0475226065332314
0.0534214564225496
0.0457964923735833
0.0500143177307856
0.0495117831730087
0.0533602919619789
0.0494307587483466
0.0521715661217555
0.0471122344552497
0.0556774809684416
0.0457714254052589
0.0510922034403763
0.0445387351362116
0.0513778283249511
0.0415868107486215
0.0571034878596974
0.0403284889031313
0.0602187769164753
0.0469050675741747
0.0600275281772421
0.0247197557554278
0.0611163128362169
0.0712431697403607
0.0476512401088852
0.0617462495895436
0.0482140330588991
0.0557572233692673
0.044926419271822
0.050063552573807
0.0555772988179997
0.0531095823917333
0.0473548849486857
0.051950873356603
0.0519069835366957
0.0572086651387688
0.0408921992236068
0.0387953389085957
0.0722801704366834
0.0517036537125493
0.0594909072134322
0.0502322124685
0.0343847690275553
0.0748685861734509
0.0500831821740652
0.0591275095167263
0.0519159896414315
0.056069688506482
0.0534648281527786
0.0568954599519224
0.0464995486319773
0.0557819246019185
0.0555421947322838
0.0454040055250734
0.053461655415993
0.0496186285927091
0.0545715783235964
0.0491942919069071
0.0512574052432369
0.0655656022206884
0.0525397612092266
0.0561044742487343
0.0569193602389138
0.0549002366687212
0.0547339316988255
0.0579529890190713
0.0498311111403646
0.0518916894055732
0.0673344965393871
0.0467794720726448
0.0563594953709648
0.0632440808111988
0.051959076543053
0.0592188697718018
0.0520812534560694
0.0691539903775039
0.0491305448972548
0.0353382662370655
0.0825133415082966
0.0441457686660007
0.0830528352508805
0.0475042235015934
0.068334464481186
0.0465567673556951
0.0697656949848856
0.0368114687667783
0.076029558657566
0.0544093227381274
0.0632985652443538
0.0505995031766309
0.0529125765300689
0.0637802014241528
0.0614046377712209
0.0647607486177115
0.0597424206196581
0.0524167294810561
0.0649851913191456
0.0696060504288485
0.0293103546411974
0.0811708080371884
0.0649504927639921
0.0730950886067237
0.0738948181641496
0.0373633848123355
0.0942505642233109
0.0621582013588865
0.0668583576373422
0.0609085202921554
0.0642739333944442
0.0616260867423781
0.041968902622641
0.0877618247625681
0.0696650869280168
0.0592122458971473
0.0804484871175266
0.047867899672019
0.0785106172968586
0.0750227067247271
0.0720093057994357
0.0637872153538198
0.0800050399925328
0.0406285636725558
0.0810504006606317
0.0876569482035492
0.0531019120546873
0.0953223246835333
0.0668313309734216
0.0888004784500267
0.0686184882371231
0.0806722422782498
0.0635417205482034
0.0926124598660691
0.0751536016736354
0.0735300415422788
0.0583593663454245
0.109511563367998
0.0691529937208833
0.0955314487678191
0.0773392279681261
0.067365967479523
0.06500954724227
0.124100739602092
0.0982138100544504
0.101291665522154
0.0704586282383513
0.104177139087162
0.0931093510743103
0.0950510405832883
0.0923319502805496
0.0922580377532618
0.0930094324911103
0.0887308395419326
0.100442529114144
0.0974149336947488
0.0933770099676413
0.10734420795735
0.0787301975349045
0.103421682032436
0.102024559542016
0.148752360476476
0.0856449625543586
0.13150447715083
0.116275303884152
0.113277127640709
0.113518984403201
0.106689264703235
0.114920705251559
0.116284381468724
0.11714067961055
0.10362949429884
0.120467554313931
0.129393217452506
0.101725655235467
0.155755491743304
0.108104070088772
0.134463450104679
0.0262652633513581
0.276376739145218
0.148904927481095
0.137305188408842
0.138307334694037
0.0966557999299803
0.215733284477138
0.16095733771553
0.15670904549358
0.165352933294848
0.159353614948556
0.160512670594732
0.174655305572672
0.173427977184114
0.182904425499622
0.19243266394205
0.169603211789946
0.160237591892687
0.230716027180606
0.234289240121691
0.235000130679651
0.206865491813238
0.226469731042951
0.243034712618348
0.227479985180877
0.234805826337521
0.244837020159121
0.199612025022739
0.318314817972979
0.250595684174511
0.272051416426898
0.247536465267663
0.300904574581771
0.250174982406269
0.303489088988044
0.326706647702479
0.292044632497279
0.311383607065146
0.292515084858997
0.328806414909477
0.296779693709359
0.352772448102646
0.345772330070452
0.332596172624869
0.340291647785105
0.344650623424621
0.351491022425716
0.345705379301267
0.364342542465732
0.336268646212071
0.367128972877778
0.347957502036439
0.465533158591872
0.415645936225765
0.357972714406956
0.388231998647858
0.336447611033092
0.40281426402338
0.358200038525803
0.379666682031257
0.410530642161859
0.366048221838747
0.388662886783443
0.379816626739873
0.389210644083698
0.375729096650016
0.386738621704402
0.366810595459753
0.392396207649167
0.400934838830975
0.339612929774654
0.486851330025343
0.373847112189318
0.400078213259961
0.372954739462651
0.384779230493438
0.370346781639908
0.387670186174911
0.354964696153067
0.407783863959071
0.366362523807792
0.387519079644025
0.351798226057585
0.372544461685666
0.40264196020972
0.368099038619988
0.369044036780607
0.369304303361304
0.361501562351904
0.357515064915563
0.311806632408267
0.425912261178697
0.352223861353541
0.366510328108182
0.360465401036674
0.357976760065321
0.349987309451902
0.35194779661371
0.345886118895632
0.357277020337846
0.342521703269102
0.356492708270762
0.344493536588281
0.345239387986764
0.336920589576997
0.346690612261831
0.345532431276102
0.340068125654831
0.337990919061395
0.339903529371332
0.341049464433393
0.344217728549169
0.341151785958244
0.341400142064583
0.335360103811217
0.34717297964917
0.339149721719636
0.3301497808155
0.334308855767996
0.338997129808328
0.340491356329609
0.33498540197701
0.330708053618479
0.332842472823107
0.332212162804293
0.327957891686145
0.334810673598986
0.332178977547187
0.33394460287013
0.324375331942637
0.325641209938683
0.320474249943065
0.328039525653347
0.295033053360699
0.328129362917838
0.3603210494467
0.299647897440448
0.324251242114437
0.300264393641653
0.326356675918066
0.284008080215339
0.319226724258618
0.331116838280774
0.298616816366042
0.30312435994826
0.287974670938205
0.288267499360044
0.316191146033363
0.276336532345166
0.295317698176568
0.267437119065813
0.253564862707677
0.351154064445227
0.237653787723903
0.365235845973431
0.285443396424958
0.276312294407361
0.235648166292167
0.318524091499159
0.265840848713672
0.270677004092331
0.269495287750278
0.258188216060498
0.285836924579528
0.249644663818828
0.266033926872703
0.247131789003929
0.238508958711662
0.274186968469482
0.253270934867421
0.232718943973701
0.288100198013899
0.245573261589639
0.254081070274883
0.297809010564559
0.270454318895032
0.243722422367683
0.23895192206954
0.241570875762913
0.214532263837905
0.264171243989966
0.249154597377278
0.227584242530844
0.239194421042545
0.216005705816733
0.2394319942449
0.218040019158223
0.24233716333007
0.194075321071762
0.253040589130967
0.222384164621679
0.203590024973411
0.236800179458454
0.201897006304205
0.262967810596538
0.219350632479257
0.20816926698217
0.194621236205245
0.253078891242318
0.214087118927481
0.220861686676135
0.214133216402189
0.189890792878086
0.226477104538319
0.211294050996934
0.18842112723669
0.217938356891139
0.190286764654099
0.218794431696718
0.214871422970666
0.236499344123193
0.219435216707313
0.194433297690831
0.20350910835872
0.201334903476218
0.200573546405824
0.197146253052105
0.176817618384313
0.234713879304431
0.169616017446761
0.23353842395687
0.22256669621765
0.205929694203749
0.211614534575408
0.213653956732652
0.202337649928935
0.222123486935094
0.230745056169301
0.238478773602509
0.200682760619316
0.246360051577762
0.2285384624485
0.238170142021018
0.229056533636017
0.240308555913873
0.234887216040377
0.248209800544367
0.254742017048909
0.256717262138354
0.255483753764977
0.273045504319319
0.249910946258115
0.30480463050133
0.261417796185533
0.273900670287676
0.313685768544128
0.2956098449478
0.329344050286144
0.298635374915779
0.317129128926688
0.311303767867837
0.319373237658346
0.32541697325472
0.309515201478391
0.358028118682393
0.337744914522492
0.337310113522288
0.34583459367994
0.344752053946672
0.353804301307348
0.346303276445504
0.371232394690345
0.318743163304031
0.411332558515118
0.359709493815128
0.379769718528031
0.370973183257114
0.370280852052697
0.379290605873729
0.37310024261026
0.381122288586423
0.367799071177248
0.393565325897427
0.396118453411831
0.379950386727916
0.396854166553267
0.390802649823997
0.396905757280203
0.389331822604021
0.390580858527099
0.402428416414609
0.400728256810572
0.408167581395399
0.38225810084715
0.432534301927599
0.449469047123223
0.410434732844426
0.438080626194612
0.422134721935061
0.43411863250858
0.423740707323586
0.434557230586926
0.449400184629269
0.44104151036849
0.447397457849834
0.448317145139425
0.449203472082538
0.456669679145708
0.468901797940039
0.468603142475276
0.456390894705775
0.472942423077285
0.414970040387203
0.530413806308014
0.464548055052715
0.484869416511025
0.481879073232403
0.47338778388004
0.475406557072854
0.480290364654971
0.486012585153226
0.490080592502696
0.489344081977513
0.490105705828927
0.48726536035401
0.481284118789988
0.491792184017427
0.486140695941943
0.494772130953916
0.497438988981195
0.483012959239318
0.490857024830695
0.483358266263042
0.48641518349734
0.480944683580456
0.504047300532456
0.481118022286601
0.485016582806667
0.475160391169731
0.502738416093101
0.500199585258893
0.485485157224821
0.483065220050699
0.496458709949727
0.48930346927004
0.493999034269726
0.472062998472135
0.522826287010327
0.507995003103546
0.498337585048318
0.499811021597451
0.503082604492658
0.504640043418993
0.510247354146401
0.506972063067666
0.509385164259798
0.518765437591905
0.518613507640381
0.515603292225039
0.513689357070215
0.51878878804216
0.513210703280775
0.529772631025088
0.527674974986399
0.514958108895026
0.519396328506566
0.515595040611066
0.522418428029428
0.514156479564864
0.507410939666014
0.502815664139755
0.498151611171241
0.493489766194528
0.506362782214158
0.506714591389722
0.477454940939483
0.493050002979558
0.471730385673593
0.485428099158959
0.472727618061741
0.467301057932901
0.462891734534967
0.466519440462637
0.464311872103964
0.465146894301816
0.453685764370246
0.454550527941091
0.457130025679083
0.456358183260154
0.453577195496732
0.450313491579871
0.451284190243181
0.456092806518206
0.456740419886229
0.450666856245647
0.451315279721533
0.451611392652219
0.454124542170534
0.462873298547169
0.454659675829594
0.455713342017719
0.451201632595145
0.459783361419774
0.44937461277152
0.449543622408161
0.450447953015168
0.450138297020976
0.444411124917701
0.443812497157152
0.448594671501371
0.443950536892659
0.450446396356607
0.445297515534131
0.443774274696735
0.447351279786238
0.450102701316586
0.444245212495062
0.445169896531737
0.446760520118399
0.44962989661858
0.444871082411683
0.450954965620482
0.447059527408061
0.448655713398513
0.447542510306469
0.446125907485886
0.450141695711038
0.446044110190484
0.453638048899997
0.442641639918055
0.439991484181842
0.442127734538801
0.444862870047536
0.449466202463464
0.441467875774866
0.443951555157252
0.442937117744074
0.439166608083006
0.435601864488391
0.43395220619711
0.435106752637403
0.432509252420937
0.418722505374617
0.41897042037662
0.423168388348746
0.415688837838442
0.409111076066352
0.413523984716157
0.407577060674651
0.401944947281659
0.398044917571511
0.398058724378087
0.395305428747216
0.391659737720681
0.398887375487507
0.393257423670548
0.391259893216788
0.382305518685462
0.38617675930484
0.38819563059425
0.3874431414319
0.383548014481661
0.37989744120933
0.384592343806561
0.385307365290086
0.387152738025295
0.384993806433219
0.386247255115056
0.386501105413692
0.385575250021688
0.389293960767388
0.389885233317075
0.393939560431302
0.392458001385118
0.398415424115781
0.398281965690584
0.399059438037216
0.400627019820925
0.400308728826165
0.404844818030143
0.405651872821138
0.403467562784571
0.403641538031112
0.409580320961186
0.407669139060221
0.409075154704
0.4118828116805
0.411603354101792
0.409476564675868
0.406135056098442
0.406955130908311
0.407809737963244
0.406823357003091
0.40356413026361
0.407952877682924
0.400643025780537
0.402247873368334
0.400523295088346
0.399997890869185
0.399664841296948
0.396886165961597
0.396281509330539
0.399444474877854
0.396040632686356
0.392930154663355
0.394934729034249
0.389088313737409
0.388061827719809
0.385553427866836
0.387549027824436
0.38778158544614
0.385344784592941
0.382485418097223
0.3792874266491
0.377805137956513
0.376837131653447
0.377500937918744
0.380625097456611
0.374716535465496
0.377611934841882
0.37446550721131
0.374489167576645
0.370962963541615
0.373034940063479
0.371321016282869
0.365651311895783
0.366289888695441
0.367603753429383
0.361443149521978
0.360205597923341
0.358984598591806
0.356795674330763
0.353858308441967
0.352027251368249
0.351266988640781
0.349715789528763
0.343043213630106
0.338815768939616
0.340441435542583
0.33570672698691
0.3345754172606
0.330139815552366
0.332487850348617
0.329192733288393
0.33081390073528
0.330283994543904
0.326682041272203
0.323234062732271
0.325196545674779
0.327052825332633
0.324724692749423
0.323073422976265
0.319887647800078
0.314447113699563
0.31128895059444
0.309643711291791
0.307869062846237
0.302080169681487
0.29501562707426
0.296433366838968
0.288305383699258
0.285039080772804
0.282412086100567
0.28418533872802
0.284467958681218
0.287820122745587
0.287036247668226
0.293593258801761
0.300060908790568
0.304477014088513
0.311293523556191
0.32124446238778
0.331181307447089
0.339405476293965
0.353049581911925
0.369342574876499
0.380175971610525
0.391094946009833
0.404316456688589
0.418571931414996
0.43164565775921
0.44494351183036
0.458545562280794
0.47161463085397
0.486544476939111
0.500186833750455
0.509968767597457
0.52137006114247
0.530986108457518
0.5351178103855
0.55255505497424
0.556924855819728
0.564912151884355
0.579571502439641
0.588166196748548
0.594799529943777
0.600988169839065
0.606038991858119
0.610715461866497
0.623525770777805
0.625973696378297
0.623225235798928
0.62309385971371
0.623195931121303
0.64057367480242
0.634067351925849
0.626524290644688
0.632622854132129
0.631623239498101
0.643539623562043
0.640965427739509
0.641054327281801
0.639559196372928
0.636942952140996
0.645857838075785
0.648342205979659
0.650782769146385
0.657509678402431
0.661003425656531
0.666811807041783
0.667719228195845
0.67127240460624
0.683000714331517
0.686260074408245
0.687815436160162
0.699436225391817
0.703957206157306
0.71552510361835
0.73164276050961
0.734602117371388
0.743278463323463
0.752486483223705
0.769725343418536
0.77131737983088
0.780356542761915
0.797764319719295
0.793550392278776
0.804894764582043
0.799123052352821
0.806778022110001
0.811929073442693
0.813038818148329
0.808460180534036
0.814261591910659
0.810395637153052
0.806859013692222
0.796416492683096
0.79040198940603
0.796255955725526
0.795917885170421
0.793891451594968
0.798950344628717
0.805241824847136
0.81917269672765
0.825503364473805
0.83022406533907
0.845987797718102
0.859744791121326
0.886615583443058
0.886324775639763
0.902769741013465
0.920597734277503
0.920501045894394
0.93298208389387
0.960609484188532
0.959589342876257
0.97269462506164
0.995800441510878
1.01009619309148
1.02412272631821
1.0262802295681
1.06520348065504
1.05117068639851
1.08562899939034
1.08907867080316
1.10043432115146
1.1510249350822
1.16074418069485
1.16213104168834
1.21592683484561
1.21129595119026
1.25764886329288
1.24988230383283
1.25051722219197
1.29828664658882
1.31700722289699
1.31154493816969
1.32487296628247
1.37078202632405
1.34871629557228
1.33954729491464
1.36484767098775
1.35697271713837
1.36634558413422
1.45747764994802
1.40950497894202
1.35211568678559
1.394998790498
1.35824112422277
1.38887837135888
1.36112004892757
1.40658741797544
1.4078216311891
1.39202941041852
1.3721888858465
1.41639686071895
1.42264321554526
1.44347836267771
1.39950902770045
1.48234417833427
1.51448306530012
1.48133531628702
1.48920218649567
1.50620921237124
1.4366276658886
1.5044691608398
1.52121653482307
1.68108506700036
1.55960537716494
1.54612503127241
1.53259303735479
1.61905536600272
1.67484423610528
1.63442735250964
1.8104320564284
1.69932293966179
1.61900314911001
1.76826001950529
1.70155680559032
1.75820863495007
1.65335037406118
1.78607886684714
1.6881842298587
1.72565357376066
1.67551699004766
1.70863779929794
1.91891525757447
1.9065162460295
1.69060276425312
1.68052325470793
1.87112596300914
1.83896454523275
1.7124023248818
1.82985493019675
1.77383195705308
1.75347066928781
1.79223549159595
1.89988410526267
1.77391689867022
1.84393495181124
1.8629339484706
1.81037257812373
1.7446775360984
1.66469489564406
1.60695026534481
1.56869975360317
1.45944323565226
1.44783592924187
1.39459942946055
1.46574841979943
1.36096903496687
1.34405275346418
1.27622266302169
1.29895692198723
1.27098314117373
1.29514203298078
1.25113456491872
1.26985159348593
1.2195854230829
1.19159254078279
1.18858940975666
1.19179629556501
1.16304976841359
1.1740957732778
1.14156813343244
1.14258913194378
1.10198075642071
1.12047264943985
1.07043971423801
1.04843505035497
1.03813851794331
1.03161436238265
0.974285556103649
0.953389239610727
0.923322021406032
0.903541784376361
0.866074094790092
0.81878087132087
0.775475708155478
0.745968013513901
0.72917161686701
0.687050885243751
0.659149238130382
0.631363292304041
0.598421438011918
0.579878316648851
0.551967965179228
0.533690695982775
0.510035324212099
0.494459625905237
0.484013620010558
0.464716707411677
0.450611359458869
0.441303879287433
0.433647353790362
0.430607402870478
0.425222744681118
0.414110083827375
0.410074014232382
0.410774933986759
0.40345030224287
0.407971011337308
0.400915832950887
0.397518594796787
0.404937280177637
0.403560392982785
0.403519140844619
0.40905797362404
0.412149457620132
0.409505009859924
0.408089643460944
0.415877008565562
0.402846996263506
0.398720502463075
0.397989692419091
0.400431259156363
0.392503069717772
0.388063046577432
0.380434619391981
0.380460521927434
0.382518390585984
0.37267069791965
0.369534668501424
0.373389186631117
0.370271372097274
0.371939844621596
0.375006576086549
0.36482936454012
0.366505168937476
0.369656609755336
0.37738315819771
0.378298383782117
0.379348590914945
0.382374716181656
0.380617929166322
0.39228335870658
0.386611959673356
0.392925820590697
0.387045611051457
0.401761822968834
0.400707655377308
0.400076505967929
0.399787959066094
0.406718979947526
0.409431785730886
0.404644222861392
0.406878404372047
0.405609787401152
0.402468630011506
0.412379438229308
0.405130643004566
0.420858371336093
0.409011354767076
0.415760146020246
0.426072410000749
0.42825201930781
0.439607431884207
0.444171950495675
0.449602775356577
0.467546221149226
0.479528043214453
0.496253132992482
0.502421149394355
0.524431466850745
0.535385382965453
0.533663711768424
0.54908497367398
0.558530663717942
0.555216377839592
0.562825266973757
0.543708341808742
0.544293670635433
0.535007093089376
0.515114597868123
0.518783977868761
0.51719333516166
0.496969365274774
0.509947876931243
0.486218984489615
0.49224866935106
0.487659953639124
0.491266439080906
0.492297791084401
0.492716230579918
0.492630088882872
0.505064340153039
0.481713519377235
0.501559640787094
0.48380600070527
0.472459640820329
0.476583167075967
0.47739975324761
0.46772236897951
0.466156450837874
0.454080106451144
0.452861339539181
0.444678473888114
0.454623272585113
0.439391943160165
0.434219540958597
0.437506340292501
0.426752945248784
0.421507658547648
0.414839882036907
0.425293779661854
0.422120128714316
0.420173287677036
0.417876705046807
0.409563782711558
0.414400411331815
0.40754900009744
0.407238177409012
0.399074045122696
0.394314593811726
0.395676306900907
0.405338315198348
0.382588999699386
0.392738035519009
0.393073990457986
0.38630169880628
0.384659109880918
0.377645246422061
0.385581303357757
0.383382984035966
0.381274991078612
0.371142985106997
0.371144951772581
0.377133768216431
0.365951056075757
0.37201540766569
0.357820079907063
0.355158015911046
0.342978024397321
0.356024308269669
0.362487226285665
0.360818994164438
0.366098393195744
0.34676290075429
0.345910194210217
0.365321229061303
0.354671504105241
0.361816760063389
0.364022439753188
0.360952374740553
0.368232172863944
0.361191688949774
0.344819323111085
0.377261154883202
0.373728825961648
0.387167707234081
0.35796051915531
0.36826640956036
0.38145591414158
0.392140742908093
0.387860158776624
0.37380243268779
0.376458367419935
0.375086005612461
0.37394788371999
0.389360585549846
0.379840154449658
0.420316476420378
0.429378041176089
0.416827124188609
0.417922064671511
0.426101983399866
0.42891964917502
0.429501812683439
0.442284479717875
0.45161887187058
0.453309526196662
0.489028438103967
0.484174247656475
0.517558515233095
0.523128443198065
0.543375934659052
0.525651690693287
0.555293211370545
0.558612437599104
0.64130928678798
0.606886436952201
0.59022885607802
0.636242459371067
0.643587357084788
0.66108279706708
0.652406058673857
0.590015872800931
0.628046712210694
0.627114898114373
0.64899575079613
0.643672428269417
0.632285870118647
0.624333020550974
0.679750840958002
0.643133434250824
0.61242094758414
0.606753221560071
0.62215561879006
0.604105162045578
0.639656361043696
0.629636748950931
0.595705134095589
0.61839970761525
0.590758367221643
0.599717532979113
0.613862942943651
0.607938650234415
0.615362422133162
0.584431862878284
0.586796750569619
0.558838665278594
0.59649906689814
0.562034046739438
0.554283395526092
0.523677066986415
0.568932043078788
0.57962770616414
0.596383048774305
0.521445097979957
0.569967550312437
0.592815196552952
0.53148139497163
0.554635230350349
0.569589264153877
0.527323154807166
0.562470440562444
0.510559726014602
0.576640640220541
0.540944151829497
0.584696089117987
0.554180080602239
0.571277255723423
0.594988125846665
0.533334846067095
0.51006597770131
0.576805908803763
0.551568881177165
0.586788496867186
0.571999033847305
0.587436247545378
0.594377890356988
0.639722127328485
0.555570537536057
0.587993650905579
0.559685276870767
0.600472973648675
0.513588965741029
0.628664457584948
0.604080828763904
0.601076267853522
0.582556137652187
0.608271599967743
0.523637809621869
0.60593704734569
0.603189177180346
0.628649953547941
0.635302982929974
0.68375375169834
0.658713892718335
0.63801981994627
0.633933960725613
0.710209045042719
0.695006527136987
0.765175786600792
0.66634199813752
0.749426730067889
0.741042380223368
0.872767843792647
0.728847368101886
0.825872468456081
0.804828937991098
0.801340310049075
0.779437983932814
0.838610772670809
0.714126539810415
0.763520213589347
0.849918848013864
0.89111687216684
0.876135553454748
0.830098942101584
0.779353951673156
0.850895525442642
0.738028941818601
0.800970077575879
0.693097730127027
0.76137484473521
0.668108685207562
0.740419523819785
0.60337037011929
0.735637802327337
0.606585505219292
0.713969436689013
0.77363469680204
0.992940481669444
0.746591618126136
0.732395204060135
0.525679124303199
0.772369960245562
0.742401682274983
0.748759886649764
0.83587636938921
0.700669833604865
0.582984161425544
0.94095930518027
0.678680605659568
0.645864777719764
0.478632722620989
0.886986798169733
0.654171547374377
5
0.778944884228282
1.27840800194278
0.658918768260828
0.669157153716105
0.554991692120898
0.834972598603605
0.673006393860981
0.909228352731991
1.19465502278958
5
0.416000657512425
0.847010449127211
5
1.13645759639034
5
1.46540903999156
0.543542406113745
0.574410785768864
0.633503150046652
