3596
4000.36533379555
650.420452594757
1
2
2
0.0616840845644387
0.045476236271409
0.0489500503209023
0.0389363605906645
0.0617661053325525
0.0440967782333881
0.0612771838597588
0.0398085166594932
0.0521051392078982
0.0377581567895019
0.0448744656811868
0.043980908999955
0.0600731265864633
0.0399727608639868
0.0556824542226499
0.0383307521806024
0.0497922933353417
0.033032650774187
0.0594041289315123
0.0405927464178784
0.0630242166141495
0.0445690277548289
0.0711345351914863
0.0385292491395294
0.0581441771461578
0.0484470684710535
0.0522607505008595
0.0326964818073928
0.0592869342948857
0.0396744086853495
0.0590092292472007
0.0389148810415488
0.0537209058774093
0.0356629336406912
0.0633570672049145
0.0461203010170013
0.0601884676655445
0.0406612198310051
0.0607391653450327
0.0431188456657689
0.0545162804914735
0.0350052173861357
0.0557202701839712
0.0468879378108068
0.0547705982786387
0.03606423186077
0.0525815736602433
0.0447278567881221
0.054583640388143
0.0348992422806025
0.0728596094898057
0.0249973505784334
0.0666212890010086
0.0453970332223251
0.0540990564376815
0.0502387396193612
0.0562789714746424
0.0388859914552953
0.0575843774583377
0.0162721901587581
0.0679468027825746
0.0417309915324861
0.041611747409812
0.0441094322705441
0.054381347438535
0.041938225198095
0.0439933823527988
0.043947835249584
0.0485262628073356
0.0335366938015816
0.0311782610135654
0.0508204420559008
0.0785399160933365
0.0441527222398175
0.0521276588168688
0.0393671493722698
0.0546395272857241
0.037145265458774
0.0428140572527295
0.0392478850890612
0.0484216540791388
0.0451566424108916
0.0563365003101701
0.0271105279231267
0.0337704842828383
0.0594876807380453
0.0391049532071435
0.0167954678206782
0.079067043868691
0.046666547387881
0.0532321728003167
0.0323202896171218
0.0440630993108921
0.0339891855450544
0.0402376451781249
0.0402631237830586
0.0497425993058197
0.0401809800091237
0.041805969753078
0.0297819915149309
0.0540057116629003
0.000124219195840048
0.095370297628642
-0.00202313428528394
0.117619842273121
0.0459400774525554
0.0250536909342995
0.0576107520677628
0.0605237250363924
0.0443498287146418
0.0392389630516936
0.0352092073813698
0.042789257214859
0.0386658983072503
0.0217398590630567
0.0414258604662882
0.0862128642015616
0.0466894895691822
0.0425005103087964
0.0396446153518715
0.0041659099890369
0.0103964542192709
0.0993672732909084
0.0290424269844811
0.0577992085205578
0.0289062514922298
0.0150104111320009
0.0448719806692262
0.0911708473961353
0.0441938835950898
0.0503597477530957
0.0251747124464565
0.0396291314380023
-0.0189435123216608
0.0854186917736291
0.0386467714483784
0.0444473239724534
-0.00394329523548272
0.0549913518312536
0.0793076867510492
0.0617863188387553
0.0434800908454961
0.0287831260108053
0.0118643748412563
0.0959845843922866
0.0396184423380642
0.0308932073676056
0.0376002838512358
0.0698742485410294
0.0251068410507246
0.0500129650489695
0.00699772395520503
0.0575809090748075
0.0310530070720164
-0.0121692198383165
0.0131224328288431
0.109961656524424
-0.0063246006002996
0.136314288614907
0.0279240746749068
0.0685591977802627
0.0301203221178914
0.0490203703702718
0.01374943351226
0.0553400343804004
0.0141358350525682
0.029611165306845
0.0585644184309136
0.0395450568622478
0.0127347566970459
0.0610506006372686
0.0379755094126153
0.0102407347461769
0.109089241808553
0.0724391774651357
-0.00202668530689644
0.0831263495553131
0.0408793546988526
0.0283664661223869
0.00974059515346272
0.0863266584644327
0.0317808384051976
0.0407317304461688
0.0134856595962547
0.0298689826646043
0.0403188152547296
0.055597639037965
0.031706215767393
0.0511349826882183
-0.0121747132233536
0.0452507761799761
0.0631359700689372
0.0849013053182472
0.0316318601676042
0.0541346567692428
-0.0299483233811197
0.066970460298366
0.0674057910789579
0.0489747522711165
0.0314921992260622
0.0417686235080832
0.0239272919300137
0.0491918353999172
0.0266186777189985
0.0452874133507496
-0.025390160054308
0.0890330368915159
0.0599014513022916
0.0490856148184091
0.0164421780873843
0.0425098644791371
-0.0147735817418148
0.0892568679051499
0.0790373751676248
0.0432091032124685
0.033593727925144
0.0180089995467313
0.0303595637726589
0.0704940825444125
0.030842261532186
0.0546473580322962
0.0273905030059671
0.0480652227018118
0.0327363933935037
0.0476953042322265
0.0346056142424179
0.0488151611132441
0.0288398283139659
0.0433943455254828
0.0337919726051509
0.0519691091468872
0.0362589212341512
0.0492606420605208
0.0355135006177007
0.0328900547600521
0.0185059357785603
0.0754850047324784
0.0359024253970955
0.0531820954767868
0.0257423776414879
0.0426652361011262
0.0225210406004953
0.0555297905580507
0.0263585031420257
0.0450076885555035
-0.00908708906172794
0.0894951428307817
0.0451963125435821
0.0486366735343941
0.00477830179739463
0.053303117979139
0.063199981602595
0.0516102353070729
0.0354723316625733
0.053946326900788
0.025268579644207
0.019077235675519
0.0547899798870011
0.0513858217510601
0.0165816973072956
0.0550017175410114
0.0504940119647133
0.0300304383660486
0.0135986868732635
-0.00611704074989574
0.0929857900436853
0.0526987106050409
-0.0177412319119074
0.117450250812206
0.0532365226409543
0.0548805803371074
0.0252285667117212
-0.0613160603986972
0.0943512464611209
0.0992329543480741
0.0402982185763762
0.0384197000074779
0.046031858618025
0.0376325022377808
0.0211683686801112
0.0345346284450609
0.0181874269773234
0.0753959859133977
0.0529592145747838
0.118283978850429
0.00474913356115006
0.0529951757359638
0.0672699457740472
0.0431491536919845
0.0400109969379695
0.0476560926519997
0.0307199129636019
0.0468516490803352
0.0554693169501832
0.0552665501255304
0.0528995875899545
0.0412088323992493
0.0806225662128802
0.0572115382902984
0.0351445184045216
0.0487650413046732
0.0592859077138414
0.042519748236638
0.0593241103346368
0.0415797811332006
0.047924486320124
0.0344236669532633
-0.00766470504739495
0.113750515036478
0.0545906582848846
0.0246447591238881
0.0763423370555931
0.0638706509956652
0.050766084368125
0.0511559551134252
0.0446899293590644
0.0539421165667301
0.0303034633237347
0.034414255752904
0.0733581374725541
0.0641898506883979
0.0446737777686078
0.0553578790666204
0.047205268141831
0.0589782089675364
0.053390022770501
0.0594649548182932
0.0502649002214249
0.0645109525298422
0.0311682651523919
0.0625091908191121
0.0674890486349904
0.0305023093330311
0.0472418690168629
0.108838581740052
0.0538131052972708
0.0706994305754042
0.0490226684677415
0.0662987632794601
0.055781042095892
0.0695712600688776
0.0430381681143281
0.0574892080850768
0.0747128832502458
0.0780034741801661
0.0282387781759979
0.045139322324586
0.0786807886107957
0.125530223140223
0.0756600362909959
0.0739268516174043
0.0251910413251016
0.0711047731900007
0.0996521460616181
0.0684226267035685
0.103986044381929
0.0870788671184823
0.0795411804165074
0.0824998035054065
0.0699674312164532
0.0827623014966958
0.0780648033411492
0.0809106235577867
0.0744795164140287
0.0857930389397728
0.0878026865424367
0.0788286040152153
0.0583761591103999
0.133509712048951
0.102423192269703
0.105947989754562
0.0895952384906796
0.0784696560657361
0.0822304477650856
0.119548099904714
0.0921260169142452
0.135891627394606
0.0829576355087287
0.14731599373845
0.103381499260822
0.113282839877386
0.0986245120102815
0.116354771429795
0.117811889783326
0.123618488796179
0.105202823001336
0.124027057364918
0.111918521164715
0.134123605091868
0.110420930953024
0.126953321638625
0.113661716635902
0.148177979646215
0.137726771076296
0.132270573434587
0.105365497045511
0.117702949906673
0.170530587094754
0.189087459201946
0.152451783370085
0.150775044915577
0.15406303186947
0.148600288485005
0.151314060726941
0.154212719461547
0.16314786817025
0.1536567171716
0.166851058164932
0.187459829602503
0.160303949310295
0.193460031036959
0.15782717293821
0.179693546881595
0.180513135136714
0.179383621273196
0.208371936299877
0.207414003764339
0.167253896063262
0.210005116384417
0.221061453396442
0.184571296600043
0.220132305368133
0.217518511360075
0.209399478616741
0.209637965621933
0.206096884611348
0.217559676078017
0.202274305023228
0.238681630897743
0.216534243000214
0.245548527914792
0.230771748731133
0.226382532755052
0.225076506561711
0.246738837280247
0.238928449993117
0.252628558471563
0.239514166805922
0.253934879740363
0.251124302455237
0.267857288816738
0.26527478021059
0.253136091967256
0.299872180790705
0.288895366091794
0.266603196407294
0.276517531596899
0.271908576040572
0.287089217918084
0.272459548298192
0.314687528502407
0.297186992463226
0.300100892332626
0.291137433833644
0.300249338844094
0.301807500735114
0.311868725622694
0.319780525137135
0.315128917085093
0.314211883977636
0.335332219464993
0.312027301219962
0.345599542390426
0.360728566864466
0.35345888722075
0.366130890590272
0.333196228730615
0.334069219376622
0.358498771658899
0.363973330924286
0.378214202959009
0.365596377396917
0.388147317511336
0.387308513390992
0.38435235213145
0.388541315338903
0.401793752623447
0.391512004734155
0.394463299383444
0.386906023840971
0.422595251605132
0.403181384753896
0.435073327742735
0.426002196956079
0.405720053066821
0.423349701753821
0.451906632637679
0.430513394234107
0.447619550103425
0.434507050758091
0.47320780396404
0.431381236121094
0.464921663443706
0.475576392385019
0.486694379112399
0.471858515752951
0.480860958732997
0.477258079086439
0.471557529992683
0.484444925081057
0.503838476496904
0.500490337748882
0.521501726541654
0.51089506843447
0.529154125219637
0.544833853132998
0.539165128889398
0.528408645591498
0.492661616298562
0.514798719255314
0.53865930724905
0.516257230076377
0.570535323825497
0.534275380022196
0.548828745825471
0.575055527964253
0.564097871652456
0.568736161757498
0.604781013876999
0.590013694849601
0.590682623664277
0.601366161565337
0.616907325067869
0.612783791163264
0.60004772427995
0.592724979017358
0.648708703209234
0.625216572458071
0.615091390169619
0.654639054335479
0.658372472204303
0.594381828088905
0.632574672249703
0.68163011956409
0.671509863235587
0.700153447838456
0.683841654445293
0.680415661381245
0.685663945550001
0.727159493352813
0.698891158183175
0.677018069259578
0.714829915132003
0.714380753004897
0.737370061967734
0.740147280290784
0.731349523040981
0.718794201966541
0.742040832892284
0.712012181626008
0.745308467958276
0.762891520535818
0.766739918300681
0.753348140150495
0.739834093368502
0.7745619530106
0.743819620761185
0.739257058880832
0.782325596768468
0.818112210210159
0.806889388631776
0.788751638520651
0.79011840823256
0.809397629261882
0.754723380491472
0.797301809570345
0.853029933632511
0.785043465212749
0.789321272434053
0.815613499928087
0.854304836511978
0.81694433640281
0.820429391353374
0.861312752908835
0.900357702492061
0.902804926093896
0.867565534463154
0.89217351021995
0.880875580639429
0.868587733388995
0.92725341046119
0.90589464512407
0.858755486604005
0.910263796576244
0.888746578888733
0.907715059189017
0.905850828531195
0.961389269125469
0.929674466467955
0.951624900581633
0.987171156291464
0.963644455017313
0.911783128338055
0.916513281884294
0.958176014134071
1.00680695567995
0.945438058106431
1.00110354905984
0.986448730676648
0.900038384033136
0.941161448001859
0.96529981914389
0.926784337262504
0.980383147740552
0.982674983627032
1.09218579764457
1.04614716936984
1.03184656984033
1.00191026018155
1.06470687390907
1.02556563454719
1.05765372719855
1.01414862423853
1.02093251525323
1.09318766738697
1.13096579180988
1.07993859133358
1.09153215426212
1.04203782000152
1.0146244272099
1.06161867135463
1.09905579493491
1.09651253717224
1.2243743284727
1.15815029278432
1.11318446760197
1.10511838278398
1.14862644298239
1.07283567958272
1.11335468459525
1.07160976838923
1.10997690175314
1.17950631846171
1.16553163705474
1.10625399639988
1.14229180043807
1.13893812501607
1.14000048070278
1.06286455393573
1.14304241112298
1.12559925438718
1.1110611164444
1.14420528299181
1.22677349300946
1.12397636471904
1.10264055826774
1.25566224618098
1.18153858767886
1.12139201177695
1.24784005512307
1.15107800651685
1.15984902442295
1.22738901431142
1.31885659817005
1.22811674322533
1.3266169579619
1.1964024425048
1.2088781870864
1.09919327887678
1.18146217802165
1.15057882459039
1.29976487362573
1.30396226227194
1.22414153159635
1.21486669346033
1.37391166712345
1.25033076709766
1.27484441346577
1.19128940515629
1.33321028183848
1.25412221372184
1.32418625104618
1.30209282546086
1.23042784502985
1.22890671065106
1.25931403877598
1.17414108415116
1.34637783172017
1.2443761636181
1.26103771734974
1.1773783298151
1.20965789586191
1.24950116782296
1.3601652846814
1.35076342890112
1.37042964732742
1.32868616239772
1.2632658711388
1.27895988917225
1.34663702599508
1.22989877505368
1.45410582693926
1.2230749811144
1.27819345397876
1.38585353802361
1.48470810064178
1.2765819452205
1.28366547080273
1.2995299968875
1.37893152524915
1.29021752149242
1.48068485420741
1.3988730875038
1.40966533000226
1.27915510679374
1.31592424681804
1.15231154734599
1.40194474864317
1.29623792933658
1.62131453427435
1.42605790252496
1.35212150554667
1.32669188048106
1.30399744882434
1.26031909281465
1.40421216736038
1.27607386627476
1.3700098873449
1.32834009727241
1.28614324985715
1.24604437736486
1.35903621222554
1.40194299459405
1.40822549410288
1.39929388068683
1.50907143139519
1.37769332474056
1.264955859091
1.23983141555337
1.42029611199067
1.37436238182446
1.35194297998536
1.30982901694373
1.42017940596344
1.25951709987299
1.33354383944293
1.28834662136077
1.29232918719918
1.25404961583813
1.39538154790658
1.35335379477771
1.36705193648858
1.32415906857816
1.31288504297578
1.28793131762853
1.50811524328069
1.34239558061591
1.44799440400251
1.39548067674285
1.38022611724773
1.34271570373513
1.42425313389032
1.28642349020666
1.54499340776748
1.30701859002725
1.43290855516583
1.4019402737728
1.26894196279456
1.35952466770509
1.51452790277029
1.38928202539939
1.46949232717835
1.34765053047834
1.44322961364655
1.23532994581134
1.36922928684171
1.30003724985877
1.3573077405395
1.37791985624796
1.39911442716631
1.31372686807414
1.35432184068
1.4014943910249
1.40080477372284
1.22780231367281
1.37615522129264
1.39347342554363
1.34306071416849
1.2485273092589
1.31126520516764
1.33862643069965
1.3291974421269
1.25584186099149
1.36833823645986
1.3109795283909
1.41852411559064
1.32154068092771
1.41864431346256
1.28999236450119
1.29256496276595
1.17846578344598
1.35406220986912
1.27184918332877
1.36369961960878
1.33299298807261
1.27288564122709
1.34307875497147
1.39323657982957
1.29582234537626
1.3750532886542
1.31274523203568
1.41869389113459
1.30900698302411
1.40414559033357
1.21789962340092
1.36384767875764
1.26443158420271
1.28415233070011
1.28943076892816
1.34870925896156
1.2355388181416
1.2564773350874
1.27215788917982
1.37025089836183
1.23098511584998
1.31890190492685
1.15526631011652
1.25839662914882
1.22599949331335
1.21665260472783
1.31747690367796
1.21006028902338
1.16215762452855
1.3370250421027
1.26442992088202
1.27375869663981
1.2514285049919
1.27545913866428
1.21542413953913
1.24990736888436
1.2611197271723
1.19228170578928
1.26124286532794
1.30111985028155
1.17085633384193
1.31770928401524
1.14765509489761
1.15910476262983
1.1647554643167
1.26783809303208
1.16026139509862
1.18979997613819
1.2091921627289
1.25678693905857
1.16576770488804
1.21255371968245
1.1565407116773
1.25028243688336
1.10075015773893
1.18857580967979
1.12706256934933
1.242160899544
1.11462457880238
1.17226026734705
1.12885777275957
1.1457446694335
1.07103561783079
1.1577942935231
1.07001843375099
1.11552541305457
1.08249862900766
1.20698521167677
1.1192393204198
1.12142683291062
1.13420423206788
1.12373517495596
1.06314326593902
1.10421985803627
1.10016800002262
1.09869300711326
1.04367426146269
1.10875847867805
0.994255933472367
1.12863346234753
1.04704891057981
1.10080871511586
1.05012108186968
1.11231744539876
1.03582639819768
1.04488590277305
1.03089699109508
1.04467635311603
1.01987818898808
1.07112646271932
0.988504539398538
0.970353144645804
0.968959680076424
1.04747439533347
1.01094149062359
1.0462217616189
0.973881957875044
1.03733861115628
0.950988751394814
1.00310855026924
0.963450928638252
1.00173963179341
0.95088072180671
1.01572416312925
0.988076196606465
0.968016967260354
0.886923876067048
0.978480046284845
0.947802562182919
0.976693385966138
0.916619355454557
0.968256341050884
0.91705711783195
0.925177412860064
0.869494778664991
0.943948239418374
0.934891867622461
0.899207682082443
0.870315910118554
0.891384793235176
0.872448004922641
0.940663940767088
0.860162334086065
0.891742396886495
0.85057220307811
0.904536864677182
0.857500462476017
0.885914453234679
0.844723577329625
0.879583485407339
0.854973167978284
0.860897157335295
0.805450419446099
0.844134581555192
0.806602941182029
0.828115291471015
0.771870842673825
0.825429381681906
0.790657019167656
0.832439027721494
0.799681179381525
0.814280559079647
0.786096848187551
0.824150156614681
0.766556450254544
0.80290214003102
0.745012959115116
0.794026095420174
0.773386741964555
0.773422206230617
0.717802720803789
0.768004718942248
0.744979401918096
0.778373422394444
0.753777360830584
0.779657485816377
0.726515807574998
0.766952917624721
0.711743700104327
0.730094549914778
0.722265465696265
0.73482769028933
0.715629684125771
0.733473118468974
0.715032387349872
0.723931883376747
0.686469702088299
0.705233013566826
0.694401347356768
0.72036429699194
0.686330983583841
0.693369863195787
0.678326123201209
0.714366324058489
0.648997952646054
0.70675106947504
0.665162243454801
0.675502313574848
0.651016899235701
0.671310994779886
0.653441758507016
0.66743489967506
0.647395351033769
0.676934047263338
0.658964519338816
0.656490901509334
0.629192076703614
0.655023077526815
0.624787115402702
0.637531806442581
0.639685727246349
0.621483948633973
0.613002628143344
0.624012492662446
0.610311301863094
0.622175954998045
0.626852206864613
0.627516152927413
0.589420519458635
0.621451183834349
0.593726784426943
0.606279438495166
0.585632603323826
0.595241729668035
0.579903346783488
0.607407041205465
0.580213421056089
0.593166927125672
0.568162265272801
0.595608903475985
0.568360724377198
0.585763276387384
0.565396843568039
0.576547306181762
0.554691011625765
0.545433086518983
0.555003519801876
0.558359043763705
0.540581141801334
0.548866730062583
0.540738293450562
0.559015318269898
0.537119383901729
0.543302297065133
0.524409340061067
0.543008473222764
0.520480823756842
0.543222212718925
0.52346073006851
0.521811935926283
0.511671339274269
0.522215795517915
0.499476594994543
0.517959607208065
0.49440800071855
0.50653929713394
0.514038290030513
0.517834911224044
0.494904213946904
0.4972925280977
0.487850720880324
0.510038023925362
0.487517871218632
0.487991496380504
0.483788139697543
0.494774707732637
0.470310151497316
0.487110343048121
0.476834075544632
0.471814720736776
0.46862009117758
0.473003113069786
0.4636035682991
0.475852098612361
0.451519077591245
0.467245643899963
0.462573278841861
0.468472552381587
0.458569250330876
0.466881784890589
0.442462514855505
0.465386842565433
0.444093041377364
0.452743048981755
0.438275777147794
0.459876180805637
0.442914566911465
0.449853558954391
0.419145887835476
0.454272921496141
0.424531226053065
0.441419845605887
0.434077114923352
0.441472399369461
0.421119429740828
0.442547887357977
0.419383783243323
0.427995792768572
0.424348326406597
0.442561861265946
0.415886118170021
0.436315484424085
0.430274991128079
0.441828576061676
0.419397835687206
0.436543575057273
0.4202483780355
0.425645317593042
0.413210154763647
0.434390557681504
0.420063055202765
0.439415277748885
0.418165012925335
0.431428154464647
0.422776417356314
0.438902636093656
0.421515870724909
0.441321670535407
0.42998155349124
0.44404257380772
0.427560388646286
0.446609316076145
0.434902200721606
0.446912236553611
0.437563417770716
0.452619874411307
0.443875424095868
0.459582749977787
0.440270827437005
0.470409004687395
0.45452630386557
0.456226427168442
0.455423152646334
0.477465038658519
0.463899124399019
0.478135077075731
0.46624357080482
0.482136047793105
0.469830697485296
0.484141497490328
0.469724850589429
0.473831674223857
0.479866526800104
0.499101667790066
0.485670734201385
0.490899982685016
0.475364145382538
0.48725421407913
0.497417412316366
0.509366342423375
0.48749558816884
0.512535193891136
0.496950477380579
0.522650208207114
0.509789087601688
0.536906747723114
0.509520752115075
0.535480801183298
0.518463369565353
0.543506140396573
0.531868886949522
0.556055552975878
0.532557827966138
0.554564142786709
0.55686223259008
0.567764561044666
0.57233802454576
0.561191199663403
0.552063534272597
0.573641360468913
0.567509428678158
0.574061027101417
0.560319143459903
0.600850892638316
0.584290790633213
0.595735735931346
0.56290131547019
0.59081663762933
0.582159844469213
0.594662257515318
0.589422399622805
0.597914448804811
0.582300684129404
0.616401443553331
0.598145724239573
0.583243048504598
0.583113420837638
0.578398121440522
0.580599936883512
0.574712841156178
0.58345340774262
0.600065352091366
0.574691296130924
0.587875254152204
0.582202385106606
0.581185946814439
0.553227615641392
0.579674901264989
0.573610296132591
0.58730973697978
0.583481969527632
0.581207287542202
0.5745629783633
0.582554668597688
0.586149147070336
0.580158406594943
0.577723277607373
0.582364356212217
0.574673234161371
0.603167904816291
0.568136817662116
0.590191564809034
0.577710968754989
0.592904547057379
0.58560204353336
0.584535868101043
0.567208853098473
0.588650999204059
0.572781452463813
0.596013091510651
0.574034591528333
0.594336814693259
0.570175456603502
0.588573532441799
0.57007575733256
0.584893042178797
0.576219407620093
0.583823508738832
0.56562973995699
0.589777709221797
0.561093533692016
0.581710503312346
0.555284412266965
0.584235327284899
0.563921748276735
0.574011127300028
0.55593312467984
0.571034064866898
0.556439617270262
0.570306887030739
0.535050218426977
0.549904922102614
0.524533816955235
0.54254708304161
0.530640440016669
0.54951735959783
0.52949704678687
0.532534781377627
0.512841184705827
0.52784356090083
0.509176127354336
0.512102850455192
0.503361593814551
0.525468850388652
0.490344319498342
0.509258452876264
0.489194936772751
0.495017178638534
0.487750204020181
0.493293814948076
0.474556935765374
0.482283740961152
0.468221478936853
0.463671355363878
0.459111245819221
0.467894289840232
0.451414045670334
0.45558273595494
0.43994999192876
0.444267492201816
0.4345282481969
0.44602135858484
0.439435054996932
0.444309083529926
0.435214783350021
0.4402004990124
0.422536294358095
0.430142262101196
0.422293519595956
0.428962793333498
0.410842296129132
0.430725134069473
0.403795498136412
0.416691970331634
0.400843066579729
0.415119784973336
0.400298982019956
0.410697894627587
0.394650626686097
0.404395539327786
0.397241394456661
0.407105941045948
0.394406156931783
0.391830800993046
0.385736043444255
0.391310481018473
0.378434877575829
0.381020050728272
0.376731159904813
0.385857983153367
0.378144936668706
0.388358389027086
0.373025568882074
0.385278268218264
0.369411777127853
0.380050332264166
0.362742003384659
0.375780854005084
0.367500340014116
0.36209148689502
0.350471686354359
0.365060953848211
0.352085437255021
0.368916998213081
0.356176370128263
0.358721119374216
0.349689709575996
0.359748501996829
0.352519858858016
0.354831201695535
0.344325647545465
0.351146327545626
0.343887110233493
0.354605883609523
0.337867030769045
0.358548723547247
0.339455298691945
0.345401957005933
0.33800764954966
0.338609916352209
0.338875794026695
0.342178685457861
0.329570669743155
0.337657747641242
0.329616955819453
0.344014814623359
0.330317548416884
0.331686709813937
0.324985528674578
0.335269612055721
0.322475189555108
0.330929677988685
0.319246436872853
0.329333275790752
0.319205226665859
0.326158018736448
0.313052653292977
0.319671655254087
0.31995564918544
0.31955234358207
0.311037397697077
0.321315132933768
0.319234427045268
0.320701783125513
0.31135606882477
0.316632442828075
0.310695538810298
0.317533802880313
0.312422517982191
0.320398400927185
0.308510422608374
0.313701810595193
0.308428901941503
0.307132988983105
0.299768764194852
0.31083938261465
0.304220025692132
0.311282208906944
0.303896552611355
0.307049752658332
0.301567069179481
0.304201013085899
0.296862883564
0.30180842585984
0.289724205232594
0.304780948571505
0.298684810225266
0.304915970757747
0.298450482257371
0.300822587914855
0.301022253233329
0.297749399527749
0.294137493757405
0.302165138525426
0.294974510689198
0.295013953067232
0.293670289137095
0.297397302819459
0.288782442344538
0.301999425292763
0.290044715838921
0.299719038453813
0.29188512079556
0.297701322384482
0.285869389617133
0.296105312302841
0.289035619518039
0.29345025241353
0.280786472802889
0.301565894818594
0.28569603486201
0.293393715707701
0.281793564369788
0.294274262436125
0.288809939197065
0.291147775931638
0.283510086655353
0.292327183520016
0.282211707285704
0.291042197002797
0.281739297602517
0.284738934452735
0.282909481140231
0.283813876228741
0.27167817927341
0.287650534081874
0.276113914874528
0.281339724487527
0.27579179100788
0.280886732921859
0.272589737284207
0.281351831499023
0.273620029784352
0.273289447157011
0.262333439379556
0.273571424763798
0.272567695153049
0.278697673460622
0.271756397628314
0.271907891138058
0.267537446974491
0.269637271112871
0.262402282491391
0.271172659652201
0.259874700618069
0.26652095418239
0.259939184660657
0.273690099017801
0.258773553223998
0.266389950036714
0.258153551868394
0.261174048320993
0.256700217279816
0.267223772969718
0.254763033741931
0.266128714246694
0.256106021123598
0.259664577550759
0.252971807564416
0.262541009337324
0.249661532094697
0.261983567594916
0.258229231980458
0.254289435742607
0.251878357525561
0.260180005184144
0.246974002241085
0.255679361154426
0.247842769368685
0.250347043621133
0.245105152412645
0.252476194007929
0.243077726505199
0.245212221001343
0.244131812445959
0.247248129729158
0.238972649241315
0.242453058071586
0.234113273857492
0.237490543732749
0.239196620270774
0.245427959672467
0.236323254117298
0.229613388050687
0.229023714550769
0.235413517957878
0.23723394956458
0.230433977010109
0.228955960392128
0.234216401174289
0.22558961554201
0.228228537288487
0.223027120968847
0.225692186001878
0.226870574921354
0.228615672717939
0.219905595251826
0.222407138940867
0.217776645160688
0.222839280819656
0.213942820319864
0.222228047098722
0.219789809666142
0.22244669923052
0.216104826508662
0.216001848758473
0.211984490542249
0.216234870464618
0.206479542754455
0.212804599872691
0.206170110369165
0.211913446174087
0.209777626068454
0.218680698764155
0.209910583058341
0.207235903717374
0.20387777235814
0.204041861447078
0.201602695687214
0.20659773359844
0.202945619236414
0.201949881319395
0.203528555393862
0.204938165504652
0.199176070538922
0.197741708801426
0.192902395552948
0.197454824870592
0.194546257536885
0.201402478807648
0.195544407704887
0.196848798220088
0.190927086335652
0.196146847762713
0.192937417294004
0.191837809948154
0.188826323756603
0.194263088264475
0.189707675448685
0.190100403018392
0.188636825617679
0.191115569333737
0.188560796074108
0.187819210675697
0.183176829005353
0.191879816454236
0.18351688054952
0.188093460082252
0.184561132762423
0.185361090863047
0.182324363702672
0.187533807558606
0.18514445686725
0.184091923032229
0.179838892499245
0.182224116646327
0.179522145422435
0.179139368302957
0.175081179987828
0.181173477979943
0.173171621540499
0.175202170081534
0.176459848308166
0.178429409445241
0.175309119855661
0.178137428334175
0.176567721620854
0.171442702953737
0.171845267623139
0.176165128334705
0.173770421460198
0.17454486763028
0.168547419327296
0.169881213813554
0.171024607717278
0.174376973144623
0.17293444273026
0.173942406505071
0.17223230024392
0.175238526963383
0.168012770831089
0.168623105150953
0.164308702819527
0.167990176573168
0.166375978847655
0.163803521949003
0.169454738137363
0.16843593943808
0.165296919214368
0.169372791341423
0.164725957594137
0.167827334289924
0.165053666365701
0.165252191941928
0.163580227572684
0.162628006244061
0.160618928659799
0.161935398131435
0.161337150201903
0.163616519333388
0.158387527291695
0.159501140115476
0.161589788566862
0.159411613918274
0.15928110231797
0.162290619300941
0.155634281018702
0.162491156356523
0.160405715823088
0.162806478633603
0.155557813872802
0.156712240137654
0.154601651815131
0.157915646518991
0.158793902747292
0.15009736478448
0.151226038820766
0.159010863683
0.152998732670518
0.153776513187739
0.153301838121177
0.154225568594586
0.155595354851444
0.151000045217929
0.15125276819574
0.152002511171129
0.151591361795396
0.148035997048119
0.144160375876482
0.147569406379796
0.145322817376492
0.147086120674569
0.149892461477752
0.150884452620884
0.150229014878878
0.151248407515799
0.147923544357984
0.147834643171774
0.14720906645893
0.149272832592509
0.145548699411924
0.148549075680167
0.143189107618068
0.146821705531158
0.146784121977492
0.149190061691317
0.14680826440543
0.14052187593143
0.14247952486435
0.147156501722775
0.141813409649398
0.141918901922898
0.142864539318038
0.141943386430967
0.142378923054919
0.144176549337245
0.141165984547119
0.139880537969607
0.140083639449879
0.139409623576261
0.138308095117198
0.135686981511892
0.135926870306742
0.140145101624713
0.135403067375671
0.135494839879596
0.136493723726914
0.137068376689275
0.132222411212986
0.127278820338968
0.134200102012523
0.136268331193784
0.132344544630316
0.13146402449081
0.128894575962434
0.132308117040039
0.132421974030111
0.132184823390941
0.127981942286286
0.128256755673939
0.127661904543937
0.126244822594536
0.129616119805394
0.128885767234368
0.128129972504632
0.122650841717308
0.12713846085199
0.125205194626926
0.122934145331497
0.123131231146361
0.118289059219443
0.122876344073367
0.121369508324812
0.123499393060513
0.120038952539346
0.118690525233032
0.120555130229052
0.119453918469477
0.120232520059385
0.119914654175661
0.117268611784565
0.115168519805953
0.115116706389777
0.114954849957128
0.116528955307139
0.113316723325761
0.114610112942245
0.11359735691923
0.115936397360742
0.11273717215303
0.114445077819492
0.111565066252282
0.107185001016065
0.109545308617859
0.11487045910794
0.110016637835485
0.108621401021631
0.107707500599607
0.10788065582016
0.111478479457974
0.104756147983139
0.107307695388755
0.111514201705387
0.111245015296551
0.106415229812943
0.107420246575225
0.108145132258417
0.107607105426958
0.107381611425254
0.104423875736375
0.107545866193579
0.105073499441951
0.103423386499393
0.102624164760992
0.099397919870953
0.0994937041980069
0.103456417673756
0.100039311064348
0.10205458586407
0.100117742090447
0.0965753715263436
0.0968529437193265
0.0989505097334078
0.0968395909810799
0.0996210855411453
0.0970260595413003
0.0975197192315099
0.0940132105134345
0.0964354959203699
0.0951985310985477
0.0967597715416771
0.0931568170743806
0.0941322346970361
0.092926244658181
0.0917633977055046
0.0918158809314334
0.0959165483768995
0.0889409548280722
0.0927739066254691
0.0969050593088104
0.092527798634136
0.0904584853223051
0.0962319434534479
0.0924032679572084
0.0914758162410496
0.0915973553230816
0.095623906590284
0.0893769127922154
0.0912416862983061
0.092928340192289
0.0945852941834967
0.0889309849428258
0.0902818535595746
0.0861823855777675
0.0953243401478526
0.0895703778323423
0.0893099820146275
0.0846155023604871
0.0900909303305784
0.0883936422502485
0.0893054983959061
0.0824170218913616
0.0875118908216449
0.0867075043686822
0.0922323415995038
0.090876774694963
0.0985607825584079
0.0896731171056379
0.0928071106714719
0.0788647145272351
0.0909966151791538
0.0875152621917089
0.0899052177638381
0.0824882489732632
0.0920825954280197
0.0880050398519627
0.0969454995670966
0.0841505398570214
0.0907148002487511
0.0867590164249255
0.0901564040392707
0.0853422923940004
0.093729282479761
0.0846695767256395
0.0952627656326889
0.0858015092128231
0.0952623999045087
0.0826091549278253
0.0883321344838953
0.0733335563570063
0.0910105012788712
0.0725975026303271
0.0945481248946813
0.0827258719104625
0.0967964537965856
0.0737432198022606
0.0969019597129193
0.0787945454694276
0.100937393696181
0.0704408069593435
0.101240283389671
0.0725932758429989
0.102768779845687
0.074363483140521
0.100403891346398
0.0674164377272867
0.0946777939548823
0.0636634255417097
0.0984708053965908
0.0683599045479921
0.106989468526509
0.069049264823275
0.0909951289260503
0.0622903283914201
0.0965448256041506
0.0770434225757459
0.0847504595762714
0.0732643487531461
0.0870276101855899
0.0837831431271499
0.0694875933541065
0.0962304413521449
0.0717422857280706
0.0944243530878064
0.0577059064840382
0.102019176678487
0.0604401192947866
0.097038587263313
0.0656776525309846
0.0905532524176709
0.0669504979691545
0.0856053696341326
0.0736210865076272
0.0811467923194115
0.073646582257771
0.0798014654094038
0.0802575324923041
0.0794232484871794
0.0709955428357847
0.0785559118620907
0.0736214765072154
0.0803945861623264
0.0716187301390128
0.0791665614774017
0.0695158146319316
0.0789548154748119
0.072492227170381
0.0780305067193591
0.0733480047764485
0.0762087011953243
0.0730287117012327
0.0788183376590932
0.0719002784889525
0.073780706796068
0.0747382732507978
0.0790465407385631
0.074910277459954
0.0783879901823872
0.0726092806285423
0.0772707053470272
0.0721614423089008
0.0791291923665034
0.0727387403759217
0.0781599393110306
0.0715736414455528
0.0763469579487875
0.07498939801182
0.0748148690279625
0.0727878891612583
0.0774249636572946
0.0727066616566652
0.0774439322069219
0.0694872676745417
0.0749790191900917
0.0747641329562007
0.0792079514236504
0.070425451260973
0.0727884794795267
0.0738740753832073
0.0789643445656301
0.0729924896955792
0.0754779138967971
0.0727979723533329
0.0767927186010785
0.0742770299507444
0.0730676360358413
0.073699548580419
0.0745969041153663
0.0751794507601495
0.0767097257452077
0.0732341410137812
0.0759483048797831
0.0710459965676224
0.0752395101844087
0.0735092739830584
0.074480899322618
0.0736696855286118
0.0719512991023378
0.073118219016778
0.0750726344398188
0.0717482723289123
0.0728770163134667
0.0718164491302799
0.0758997119001316
0.0737744956011494
0.0727352428304707
0.0720202026937171
0.0787725504726566
0.0751506171904302
0.0736537937696229
0.0716840651398521
0.0737681362376015
0.0733143248664838
0.0780956605703121
0.0713898322220265
0.0744874324431647
0.0745190879299791
0.0757404232828107
0.0715024782905175
0.0769430731502358
0.0737734364839281
0.0746090652536973
0.0771132593294603
0.0770503161410958
0.072061256463766
0.0778887942179312
0.0745926841051967
0.0732320972838353
0.076441435710954
0.0795175242736635
0.0768816908412094
0.0785992133330301
0.0734423111200815
0.0756294868732613
0.0754425985026907
0.0760582124117249
0.0770062720298608
0.0790843391252984
0.0743233369396945
0.0773277167564054
0.0759883657212696
0.0785323747395811
0.076808175209632
0.0772409084849403
0.075963261403223
0.0761048241936815
0.077608853796834
0.0774437053442879
0.0776247054924643
0.0763746774678506
0.0752475239745124
0.0802690243519359
0.0768448575040557
0.0770565842464595
0.0767776149065186
0.0779226569015403
0.0789792354174578
0.0783857918913609
0.0765574811665557
0.0785532824319143
0.0776861385743593
0.0763104874365417
0.0756496423983024
0.0807509099356779
0.0805743764328667
0.0797922239990226
0.0725404054945753
0.0788214099744379
0.0788799829490673
0.0787964135902804
0.0802240447800049
0.0805560120958386
0.0809861967604883
0.0803883619880091
0.0802869075886295
0.0803228151781587
0.0787993099558254
0.0811066955455148
0.0775532894596478
0.0780163586921562
0.0828487033993747
0.080699069617296
0.0819073783718947
0.0809012673611808
0.0790979212629716
0.0812215367609067
0.0805369352658066
0.0822030373368283
0.0818006384523887
0.0782271751814995
0.0807167373675978
0.0819000371233196
0.0834427820009226
0.082325499054485
0.0818920854887023
0.0827945400545447
0.0837877488653648
0.0822240610324641
0.0805379129013039
0.0818109413346984
0.0833136641711698
0.0799976165173849
0.0812083552122283
0.0816074784862949
0.0814711901215612
0.0829222665952234
0.0793747481258684
0.0840707064338594
0.0808073347980832
0.077464108034623
0.0797827045208014
0.0796926682232943
0.079566897317602
0.0800611699942054
0.0820903103664046
0.0808225891575082
0.0805231288110395
0.0795381855208193
0.0811123816821518
0.077242214596186
0.0811467733759722
0.0784009995388312
0.0810492910061464
0.0771709825296188
0.0779923174708721
0.0790632008637479
0.0822065064556829
0.0788434210143747
0.0775160243337483
0.0796307984051514
0.0765250461189943
0.0786842045196021
0.0758890084990583
0.0768873771363294
0.0769098247418208
0.0767402459689721
0.078551672928556
0.0779288458987375
0.0778293213675124
0.0768894530725765
0.07737677953775
0.0804306888626716
0.0799698268064357
0.0740115460328757
0.0766707651079212
0.0743249554841073
0.0754851167874118
0.0753574056626449
0.0789804019273022
0.0774552196125887
0.0762610467611997
0.074705235602501
0.0753700320474555
0.0740510898445541
0.0778368889110495
0.0771327037799912
0.0780079347737643
0.0756080059413804
0.0792473970308518
0.0761410265794985
0.0743212623445747
0.0721780128157303
0.074651056165406
0.0751302859351612
0.0759643543543554
0.0742875718508878
0.0725646106577268
0.0764529131814157
0.0730337060426448
0.0749474090425329
0.0772132925918205
0.0752516277318197
0.0771129858538615
0.0774928659708068
0.0764890641575103
0.0760889097772171
0.0762717639086491
0.0750835974032202
0.0763018478771485
0.0762012035483499
0.0717835441247234
0.0721842965851472
0.0804719210752065
0.0737330035468475
0.0769634584545955
0.0725461860072565
0.0752979987516246
0.0750814115857298
0.0763995921311172
0.0728382663115278
0.0730055239608064
0.0703604574565275
0.0766314220900478
0.07498276599014
0.0761169323547119
0.0765077868545235
0.0734881213922541
0.0737604575512871
0.0741038678390761
0.0710404775398038
0.0701136141503927
0.0720658811633522
0.072171902068441
0.0719625196952861
0.0748292716118105
0.0747097423198059
0.0744490099415762
0.0764725153638206
0.0755009842396092
0.076486642320944
0.0703858317189115
0.0727222335595158
0.0748492773955131
0.0765688703103584
0.0727386644023224
0.0718665864090768
0.0712195533707779
0.0751072614791859
0.0745992186016775
0.0723905086236997
0.0742748104883624
0.0735086715923946
0.0713908148326371
0.0723273902106633
0.0700868394999783
0.0693866640010242
0.0723698831324056
0.0707111762837997
0.0680701844650576
0.0682375692125926
0.0700966255847654
0.0701076125365047
0.0722214017984353
0.069265995207085
0.07042654044102
0.0684493546225505
0.0686180217873188
0.0696871780091253
0.0666863144082267
0.0696455809161112
0.0676155397885763
0.0679450528089608
0.0690702942559616
0.0631554880309282
0.0711542078960819
0.0668996718801414
0.0712100148083383
0.0645683079214463
0.0693707525822559
0.0652564381620377
0.0660807866232437
0.0678177401896184
0.0662933211260019
0.0620924781999321
0.0666170889915673
0.0642022523760623
0.0635999267055312
0.0633440269081769
0.0661859590542477
0.0648958105526028
0.065505186814149
0.0621903020220589
0.0651317363680096
0.0644872445476307
0.0643803221810595
0.0619655242434798
0.0656161933583818
0.05838290938049
0.0640882842452888
0.0616323171474713
0.062897216141389
0.0641264185449965
0.0637882497166454
0.0597098547163298
0.0638861756934263
0.0663998316519103
0.0621109339593947
0.0629772535517118
0.0599280896441155
0.0602417195506241
0.060787880852507
0.0578144767776064
0.059832310397566
0.0603470193959113
0.0592863299001576
0.0627444073531253
0.0601249649896445
0.0590848501120901
0.0612891969330607
0.0588948762276785
0.0603304747660244
0.0592579174479945
0.0588518813939781
0.0578836022721236
0.062194429373649
0.0582806744461977
0.05494781238504
0.0615007689257117
0.0617333420973471
0.0613301036055116
0.0580074314855072
0.0626650837259227
0.0595220857675909
0.060420052493414
0.0610151439083945
0.0577451803211013
0.0614272675341129
0.0591186359763176
0.0582425377393418
0.0559269429555301
0.0567293040008738
0.05754468270746
0.0587600529860846
0.0571586374032594
0.0590895829599239
0.0587349570899557
0.0528953556536013
0.0600203142651377
0.0561159756069894
0.0542028424262798
0.0514914610701534
0.0596117976582328
0.0538105367492761
0.0523377428700753
0.0694324579830247
0.058461690437455
0.0603575088228718
0.0543116511846199
0.0605165977775211
0.0523695623660276
0.0603120179465009
0.0543882960079793
0.0577641826535313
0.0548266112427256
0.0562697113251701
0.0495246127686569
0.0565696606606519
0.0503942278410263
0.0544642589509452
0.0550603700552782
0.0620064264650533
0.0537017477853401
0.0575522642934629
0.0503298948989878
0.0560075945336574
0.0592313268617394
0.0580622143791399
0.0528615640404723
0.0613921708623493
0.0368327747243619
0.0699637395358074
0.0564328853056729
0.0604577193170843
0.0514335967200406
0.0593914070187459
0.0530110622856029
0.0596115215952149
0.0534223769913523
0.056279227422005
0.0610862031874782
0.054165714158547
0.0588917371734707
0.0526960775445796
0.0530314144774747
0.0518272288590499
0.0549287859242491
0.0542298170794207
0.054595932127515
0.0567810458178628
0.0540880351394176
0.057879651681641
0.0532067164708746
0.0605797589898588
0.0480500580932514
0.0532221962727114
0.0577921301811631
0.0593856380411573
0.0499559672376315
0.0583649793731949
0.0490837272045948
0.0502557552720101
0.0730215060340803
0.0534511894960017
0.0602433745240117
0.0520780648714474
0.0544462361863549
0.0544219754232316
0.0549797616772821
0.0524119958589445
0.0557812771876901
0.0537023441098584
0.0565066817581812
0.0560526042529934
0.0549481005198867
0.055458472976702
0.054850185369127
0.0558397027741932
0.0519833104609569
0.0574222494129472
0.0504810640137508
0.0617090840507005
0.0442840488448366
0.0581349590244156
0.0646525668947476
0.0562895617056773
0.0629172269033521
0.0576696355210393
0.0577244032364326
0.054369150604124
0.0586942684159916
0.0513858970412845
0.0563573433635694
0.053894695214862
0.0598837306367835
0.0540138030232307
0.0580381933768806
0.0507997520550581
0.058665898189756
0.0512404507486397
0.0586356213149216
0.0505772515124722
0.0592987179722903
0.0496119504956455
0.0602147131791767
0.0443238729543077
0.0665477195029086
0.0510195630014702
0.0632218653682175
0.0291901210325641
0.0702841063141068
0.0762518729804107
0.0519098268563228
0.0679935936796376
0.0514557956566734
0.0601049733278334
0.0507818411575164
0.0560541689806885
0.0623520829863437
0.0583948505952966
0.0537239255848747
0.0584458265174767
0.0578048904636466
0.0628956587091986
0.0492313120765507
0.0463598647000455
0.0767068849651681
0.0579354134347006
0.0635006323836479
0.0581052790082386
0.0428593617064736
0.0812461253922589
0.0540269754841729
0.0643347421301649
0.0585433252544648
0.0612808530263576
0.05900899676871
0.0639998468663669
0.0557160382897889
0.0624644615195969
0.0621094140140516
0.0544880901348906
0.0595171010227983
0.0559121801840475
0.0617383836393009
0.0578641438276266
0.0601518326379558
0.0707280013964122
0.0583030288037416
0.0642034241047299
0.0628685669689796
0.0611973077543377
0.0620138754067225
0.0646814003248381
0.0553470949529944
0.0589293068050797
0.072682866915094
0.0564588282605295
0.0653416313481961
0.0717434579278855
0.0593238167246457
0.0647148870364816
0.0616909396568225
0.0733362235911189
0.0560053424938225
0.0474822986079403
0.08827117586504
0.0491007973553701
0.0901746105488943
0.0564576028900743
0.0790027467004429
0.0570189179164101
0.0786990289277527
0.0448390680288457
0.0846647866059037
0.0632440052907649
0.0756758560946175
0.062356034433523
0.0628281374064126
0.0751018265306425
0.0711711261799174
0.074904354804919
0.0692574164715914
0.0622429583870247
0.0711768987879516
0.0781823638056807
0.039647258576279
0.0899658253920834
0.0761495928621922
0.081753600055644
0.0829374134507883
0.047815695716728
0.103994545965595
0.0728756570393663
0.0796029399501479
0.0718852057065265
0.0752541109208957
0.0740452975645793
0.0548864757276415
0.0943379776387752
0.0799846577578923
0.0691250795497165
0.0888783572794302
0.056432925866861
0.0904177261374457
0.0883052569331402
0.0850418933367108
0.0751460606422955
0.0899176700054443
0.0557188516849257
0.0965243069041304
0.0968979267836867
0.0692882582065475
0.107413194367585
0.0778197733548695
0.103242105748669
0.0868278853617841
0.0971164637293301
0.0781898014075608
0.106609796679613
0.0928939254347479
0.0896863886654947
0.0778747227808745
0.127242674898923
0.0812755757642054
0.112105482544816
0.0942269972655874
0.0842579883091124
0.0808265307552309
0.142930718995075
0.116581725357967
0.117453903843566
0.0920733517379925
0.12192361198271
0.108142697827591
0.112267716850758
0.109749916745943
0.112018251564736
0.113907143575492
0.111271953696009
0.120087545433537
0.114803142909755
0.114703123167682
0.129105249592625
0.102075621548692
0.122923970801349
0.117489199537897
0.16578826414565
0.108669671257828
0.150682608589539
0.13958096583744
0.134777077428562
0.135173479949416
0.132969365524365
0.141116802195744
0.141887953335541
0.142579363519474
0.128328637173264
0.146515832991374
0.158200235556541
0.13153707584192
0.187070026669724
0.139002534228248
0.169107921806657
0.05893074163666
0.298961245586338
0.181745304135211
0.181297298624998
0.178619076727211
0.129847036297652
0.245732123096796
0.204151376424671
0.20435620917462
0.21537914062006
0.211298836205236
0.209687809316012
0.228983567407812
0.232494930640918
0.244681866524992
0.255094023897214
0.233414698647791
0.222337019055682
0.292751267911811
0.296841033845158
0.30210541514768
0.276301101406805
0.294660541304207
0.313033340984075
0.30796075068499
0.316880795883656
0.328070863193354
0.278804876381088
0.396789907846452
0.34148620567906
0.369327990920509
0.341469138849765
0.396517069804649
0.358767711519385
0.397528701306074
0.424159372940442
0.394568682183213
0.427384948215878
0.403769443569033
0.443537950903531
0.404558272434843
0.474598718560529
0.458831807612204
0.457987435783008
0.464396758544198
0.468730654751309
0.476462718462501
0.475807375043876
0.491743706812227
0.463693360969272
0.478458755154978
0.460373130855796
0.63252407493534
0.554503902227258
0.476592449609033
0.517855858880032
0.46796743101705
0.529885497322263
0.48113685232206
0.537374135972005
0.555854868033597
0.499930612761808
0.517647465415864
0.507617840616948
0.513938290480254
0.50286983343172
0.526654114410256
0.494429491412151
0.503154382052249
0.514120333620243
0.454664635001312
0.619294796714711
0.506260776873169
0.526644810574366
0.504892373892118
0.515873697998846
0.495324087502752
0.515115162303818
0.480142150613588
0.533173511611317
0.488334502373986
0.512969012823256
0.476873223270163
0.48588764844782
0.526740195123354
0.494908204162017
0.488682352554406
0.479166828474382
0.473812976655727
0.469790647858905
0.413513368520312
0.549601998817772
0.457300948904526
0.474552423015908
0.463846069856608
0.454760040955181
0.453945752125835
0.453265205275176
0.445051260324808
0.466830493212506
0.441709114966879
0.452871049110988
0.442977655185406
0.44857172388972
0.443884573263444
0.453176110342883
0.448174549769286
0.438629236151211
0.433874126736163
0.43356363676073
0.439389021684429
0.436868631415661
0.436156586946618
0.442537333187024
0.438051864142934
0.442801393607692
0.433575027560768
0.436802953123401
0.439375086062867
0.431197034312356
0.425668330076475
0.425546426278679
0.428540208129806
0.429477026274227
0.427301230743528
0.42472864635527
0.434103167400529
0.424250633276028
0.423801765610606
0.426310204800959
0.430633881284673
0.417756856451189
0.418881995251122
0.388839031407206
0.423570293596146
0.451523028997812
0.399262084953443
0.42717670545361
0.392069056167969
0.413736716525353
0.377728672929051
0.413265504180799
0.434213443324384
0.395857708709984
0.39184682427866
0.386033495347984
0.377859285991033
0.403733726127318
0.368402381935748
0.382225585576572
0.360027394327545
0.343556869729519
0.434087917632429
0.326994077501028
0.456463528978416
0.379696438385855
0.37191915385794
0.33011442261291
0.402818146523282
0.356537054979347
0.359614544434303
0.359054405427318
0.354805665038922
0.381136759788721
0.346030559206368
0.360756567624904
0.343336322138583
0.334402945694575
0.366472647233447
0.34253788492977
0.320896102482808
0.382038497058752
0.34033859246344
0.335729136027344
0.369922151126734
0.364433762525825
0.335480539966367
0.322269181282539
0.326675782866276
0.296884607570622
0.349834710189795
0.337486810281233
0.310079405830373
0.323391843422754
0.298816214963689
0.322265311056192
0.301605669508542
0.325859521491806
0.277921798360157
0.328792095736668
0.298387723317588
0.273042699537329
0.307116912686782
0.281755996351667
0.329429110363215
0.29644122662184
0.284865714267548
0.263638335942287
0.333478897681212
0.291121193622953
0.292025830732123
0.284033388500724
0.259730235564718
0.291839760655355
0.275137751172222
0.255007307138458
0.285752825375192
0.248673959205353
0.275688107455785
0.277858971263897
0.295296156889114
0.280276177768028
0.256369622938391
0.264015436311605
0.26207934630532
0.260927459069972
0.257803979063109
0.233609567438205
0.294273442595748
0.229227292140581
0.288626892956739
0.279374054723078
0.265722142899489
0.272649687632947
0.272192617619698
0.26309507882234
0.28295598164686
0.290490883550778
0.295454794003602
0.254222077589431
0.305391325140118
0.290865225441292
0.301793110443924
0.295822205313483
0.306080541164147
0.299878514317082
0.318624579242782
0.32509373130952
0.32454987480575
0.325916863717821
0.339954550238714
0.318277488610111
0.382555729466161
0.339640856417733
0.356189359914745
0.386795904889649
0.374657297923843
0.414829101547325
0.383811401855297
0.403873195993487
0.395575243226594
0.407439261954451
0.418163568369501
0.39771726920084
0.449239675785173
0.434294381589929
0.434136369572866
0.444670893787499
0.442486059589191
0.451606749876469
0.450503471845948
0.476158579462782
0.438445589340685
0.526490087881473
0.474935833063289
0.496064608265959
0.469521470880523
0.470949383007208
0.492013790450097
0.481352893837733
0.484955268131461
0.46955138177506
0.503041109885388
0.506583316647897
0.490439408799915
0.499844741304658
0.501737662792874
0.509049726083819
0.500786652230999
0.508352519913882
0.520792181220289
0.523986972421958
0.518678319883741
0.484706315701633
0.546658905381443
0.563547157571406
0.530200293103255
0.552199689043075
0.535322249893212
0.553868399854827
0.544192124781428
0.559742199443713
0.575447314437214
0.563553156234244
0.570152118409863
0.581745757302293
0.584429296102416
0.580721843837298
0.602937158222383
0.607417459372777
0.583060210531402
0.590824719140234
0.536657104547666
0.655556895976878
0.589630312944616
0.611838961343926
0.609885637270787
0.606757330623424
0.615925908015808
0.616587990063375
0.621449800891934
0.631376561600855
0.624063493892861
0.627931559993909
0.632058659609565
0.624370097139659
0.62993576023781
0.616290927511872
0.624615735352959
0.634110158965966
0.628372955505236
0.631166083277224
0.619657311219817
0.627996350415872
0.617271187511887
0.641903757332732
0.619471063045626
0.619984206623256
0.614967586710429
0.635453569433848
0.639862869671735
0.629236698840313
0.627110416174768
0.63683092237589
0.618470193806786
0.62318573860249
0.612842616871317
0.65675636260089
0.646914075401497
0.63778423718879
0.643329353533957
0.641476340399999
0.642461565713514
0.65153714171385
0.646645289737112
0.660584731122212
0.650791139401033
0.654560474535119
0.658830819562508
0.645097066588954
0.656743737865376
0.656574222480443
0.664618291614367
0.660641885777421
0.653507057592238
0.657132628789995
0.654206869889618
0.647948739287926
0.643453239042223
0.638775964408115
0.631082778232442
0.629636418295493
0.62129254442321
0.62784102530136
0.622027808366432
0.600098171849515
0.624091807087732
0.602921138227871
0.606083807475168
0.589187932639522
0.592666478110145
0.589673206865887
0.592080588626909
0.581134761837431
0.580558756732147
0.572537600379165
0.585721350473955
0.577492326533438
0.571801667873935
0.568865121638569
0.573290682685014
0.567054070435393
0.563952509710014
0.566120304055885
0.564346358216756
0.564540025609709
0.564237703281584
0.562398283421153
0.5765148033387
0.56028209487932
0.574729610804737
0.563079671646052
0.56883123819936
0.561670747385265
0.561777605836343
0.564941403081392
0.565108261465563
0.565209268176715
0.555283969368367
0.55946546817494
0.55628662128088
0.560873616481091
0.563000994935075
0.556478076995637
0.56454419982765
0.567002310467462
0.556683446050549
0.553670155293018
0.564116190665838
0.560370661026087
0.559003129837397
0.562510499971673
0.565092705963091
0.562416864710403
0.555322373353035
0.552720049081502
0.565608481647104
0.562766482988265
0.558872258355672
0.548584358004834
0.556065807135559
0.562042921717755
0.559085124171764
0.557640480355985
0.557489122994243
0.56016746582728
0.553931381723445
0.552918288034622
0.544455679440389
0.546371624777509
0.545422641261925
0.537621458363198
0.537432000768467
0.530732939452163
0.526442685172635
0.525110143804392
0.512484721568014
0.511370786250351
0.509846289069157
0.504237938375175
0.501108523622057
0.497334946135332
0.495677877736884
0.488189526977428
0.494078234907008
0.493455205358036
0.487358457225211
0.489368697995505
0.486081492793636
0.489106738392156
0.489611169444399
0.484129043075146
0.479670601130653
0.481638466115594
0.481286114919269
0.485108681714612
0.478640392120213
0.482681651569814
0.485814334688632
0.490507165073119
0.493181015898037
0.494682683412321
0.493274538876751
0.492128661011498
0.498188720414463
0.495831231584399
0.498016293468308
0.505489377624332
0.503117744984104
0.507673517242823
0.512802834731257
0.510516551655799
0.508493197374798
0.511018832053304
0.517221753873341
0.52062437770054
0.517684021108921
0.517106089918976
0.517130530034557
0.51736862404657
0.509946375175303
0.507521603704185
0.508713256205719
0.513265653991543
0.510847575504092
0.508190499347186
0.502514463055385
0.50291428696458
0.504013542820718
0.500365057210149
0.498085395123491
0.49975995047361
0.510499593751765
0.499224736733301
0.493629960715489
0.494147094531016
0.495426609381383
0.489952377531452
0.490166391278411
0.480919083528385
0.482514236575689
0.485610335836208
0.483831595367961
0.482219817220776
0.483266178611126
0.479683920320832
0.474544147231213
0.478140753546389
0.475770299263062
0.475268999240087
0.475330713762531
0.470821885038494
0.468279214114725
0.46754674567867
0.467661694136215
0.464439945945342
0.462865347102907
0.458631962366718
0.45479729609137
0.453807187475205
0.450792098449434
0.451638763491531
0.444402544176947
0.441832337221803
0.440168493399913
0.438610747919495
0.432343077487063
0.428214964811124
0.426685658943887
0.424081722563794
0.42040086903181
0.418850536926111
0.415513660595616
0.414418975192296
0.417789400557319
0.417042371281928
0.41239276148257
0.410977134869318
0.410604956211842
0.413564699364708
0.405704434646457
0.4054578238595
0.399654689082914
0.399931239004125
0.396773543318975
0.387970057819092
0.389360291729794
0.382928456732412
0.375766637481008
0.372641356373682
0.369390680059006
0.365632602952571
0.361168637907588
0.361376235861096
0.360600914276503
0.363978960201797
0.365160016561328
0.375861528269022
0.382801665316484
0.389246887535569
0.399382411774332
0.411757436377669
0.424378732088988
0.439035478647698
0.456765363970148
0.468297276551677
0.491756148949859
0.507627631561887
0.524720468814489
0.540935220090322
0.558875786495671
0.576044549098044
0.590987407954209
0.604543345026545
0.626449730468161
0.638464715036294
0.653954853196834
0.672542336781657
0.689081702765907
0.700097947017555
0.710409087955345
0.722040382056216
0.733533040336887
0.739385111647808
0.76513464104877
0.76046944551181
0.77430265197221
0.785144797928027
0.783884793945617
0.80141017911609
0.799143282610598
0.797797103826686
0.807804404366805
0.807127549986745
0.8119163284894
0.80879504958591
0.810243169204769
0.81195244376763
0.81444202883295
0.824081686087323
0.819800558391673
0.822344424774561
0.821716252660745
0.827354381487034
0.832666335210733
0.829124480392989
0.83757356313012
0.842465343210616
0.856239702039554
0.859061342775411
0.864425448817262
0.871841894954672
0.877408792027842
0.883590144495253
0.885789239947194
0.897917308810149
0.9215595484484
0.915550436369083
0.920452411003549
0.942538303741864
0.970596172750417
0.966764610143601
0.977608061989554
1.00842947237468
1.0114184310943
1.01795160608149
1.0196888277625
1.03902424049587
1.02636705343601
1.04235979622843
1.0400894979514
1.05211855851986
1.03719365154614
1.04050316378442
1.02236903707741
1.02662452634839
1.0281802753811
1.0359307666883
1.03227720064054
1.01840739733372
1.02132865665298
1.03589547423222
1.03607425882477
1.06561872504162
1.06446931054895
1.06660306984062
1.0781841285065
1.11005755572812
1.1168856782033
1.14580595442949
1.16594025853897
1.17865284790398
1.20262997564258
1.21847393817556
1.24805162007666
1.27052895219706
1.26151257783034
1.28236170120685
1.3075422264192
1.33350538958086
1.35087271853123
1.3479109373989
1.37502004568935
1.42580699340376
1.40206984059951
1.44044165985447
1.44142155250442
1.48259443531997
1.5266655427524
1.5160576482034
1.52900240914296
1.59733111036231
1.62092985218624
1.62699440465305
1.65622192161729
1.65440533636491
1.66189982967315
1.67756231975741
1.66977081310638
1.66074503783218
1.60009384942861
1.71464366006777
1.72384300038477
1.69211299833633
1.76858325754204
1.70826913820552
1.80423315693551
1.74183030118854
1.70665088434325
1.72299202298163
1.77204398652445
1.69502785719536
1.66558452664797
1.87017138120323
1.7755395421996
1.6324029329329
1.75924076291753
1.78701204992469
1.75493924562185
1.92747934238697
1.81368655991376
1.76493400138068
1.78090505392113
1.89650788488062
1.88185819669923
1.89058019122312
1.80965045023784
1.92342708752177
1.94705095559315
1.85671776764201
1.93083907404223
2.11463972590237
1.97914554942343
2.15434825882077
1.94097908359003
1.93828137664698
2.01428461728817
2.13157758759703
2.03476623196544
2.02990857541184
2.06090379022598
2.04790662410792
2.06596534872844
2.28404244699113
1.85463626174736
2.16324295413443
2.37120290091247
1.94391663740407
1.95903823472642
2.02716229136684
2.15815769749231
2.08796499390071
1.96041907604469
2.01249549801463
2.14260060461444
2.16308278742494
2.00040683390635
1.87404573564591
1.90110504493558
1.90286388451046
1.93017019657494
1.85055808997448
1.8736342482617
1.75419642651174
1.67374578695665
1.7928919866739
1.67554584666339
1.64216399165258
1.57759399114119
1.52884480224056
1.52044481216329
1.49136857070619
1.46504978871563
1.45745857213126
1.40455967162334
1.41743354901676
1.44211496739571
1.43664305212716
1.41474004388349
1.35031676175812
1.32982408843959
1.38187168745852
1.30913141550071
1.31286003659654
1.2995012269669
1.28031450919667
1.31117898716742
1.25306268763622
1.24414289901243
1.24271049517746
1.19711205840977
1.12190819809391
1.13672600098039
1.10586288702355
1.06749294879954
1.02667708487777
0.970209616076689
0.938345823082855
0.898919062046662
0.87139064710617
0.833433700885266
0.792712556540273
0.745560084609067
0.710911500344068
0.687758665036546
0.655646443134348
0.638125821562603
0.615503119012253
0.591026429305789
0.564735962402146
0.546870537297451
0.532395432233239
0.51820138227533
0.500276862426788
0.488447580781688
0.4844750519868
0.476566946890004
0.474829278401975
0.465350415257754
0.468289857286288
0.458140491467651
0.460166241537158
0.454585843152072
0.451918523626241
0.454394708009491
0.461639517107165
0.463648603240947
0.469128648271886
0.461716238019961
0.473903473685314
0.467475024435386
0.471111804738594
0.460820407644045
0.462032698369352
0.452395194869956
0.449995877820879
0.452718268650834
0.439481249439132
0.434796039743452
0.440661543736178
0.430657201551986
0.43134595615599
0.428720163848955
0.423022355252568
0.421741320923767
0.426986104339376
0.42457892929382
0.419351343287526
0.420313799142942
0.424554060731852
0.426793879330959
0.428107952855597
0.445067071430284
0.449128717550082
0.44657807910312
0.445991016195051
0.449264820595324
0.451597081500285
0.457826342192411
0.461905122736198
0.459880154923877
0.457750252788991
0.465112590456493
0.466407933470005
0.465494201661551
0.479050964517168
0.468768347506114
0.479043534095331
0.462473469635231
0.481139409513399
0.475193999453652
0.475872563943749
0.490810180603511
0.493383155056878
0.49163345795035
0.493486401560636
0.512868881011602
0.531627118302746
0.536818855913065
0.53905108521326
0.564341010462659
0.575376165738011
0.586335839877054
0.61147834961787
0.612618762154666
0.632258631307098
0.618994547706633
0.651800768947103
0.645611968818288
0.641276292032729
0.630688931946363
0.637770029071489
0.622355665568584
0.617025915676004
0.604988138213741
0.592479627459994
0.577888488250249
0.572613076922082
0.569211102206926
0.57306377596066
0.560133547514156
0.573504285934373
0.570601713543419
0.568048369432148
0.56604317773044
0.563690345153473
0.565093183454592
0.571270317663711
0.56313378877429
0.565704990791264
0.555681238459836
0.557030762882601
0.541110483746553
0.532380207250924
0.524176800381794
0.519530031342197
0.518613346930775
0.528060656275868
0.508308683179116
0.516466719512886
0.503947160988457
0.504488512474112
0.492073803486484
0.490105745435918
0.491721493424419
0.478109035636851
0.475851794941467
0.48709897509771
0.479585142996715
0.470539361322474
0.461805801892751
0.463145961752415
0.468652522945069
0.466183210795375
0.466110220404943
0.449530739786004
0.448449764028079
0.466399204982296
0.449750049961333
0.465180635698663
0.446022757025929
0.444390892927571
0.442805729917364
0.436275844171677
0.425823007383917
0.435637915105993
0.414855071983846
0.430252539725003
0.418606849520651
0.433415783909454
0.421275198139539
0.437589867581975
0.398116293774283
0.422293018295883
0.415705122067967
0.42003131960383
0.418492871027315
0.419462276561175
0.420015653972627
0.411634399240286
0.405840489283733
0.418984216161436
0.406613067369017
0.429459784444765
0.418569571679001
0.420467430192493
0.430133436566633
0.428817760212473
0.435606854129602
0.455176399042705
0.429356451780974
0.445536050751223
0.427354874595403
0.4422686732006
0.437571886825317
0.436742923189792
0.449454848793434
0.468355601460303
0.457833771886528
0.467689902213237
0.459138925979621
0.481240860238256
0.496322621204215
0.489865818696838
0.488190818059761
0.51295068108901
0.499127647917697
0.482985380009262
0.51620837394904
0.550900703255306
0.563017899826696
0.556928969723873
0.592071167946355
0.587727388531003
0.58459025364597
0.629496613243162
0.656060495270253
0.670550244493589
0.669628067007151
0.670811999964379
0.739120610450375
0.734879816164822
0.726702900446699
0.80108862699629
0.73469309860081
0.818228314788678
0.72724976880985
0.777582900605947
0.742223154515245
0.744475875490878
0.746146529200967
0.734367316066928
0.780998907531356
0.739453689019174
0.722671657354427
0.736070746712712
0.728362494666164
0.735748072580406
0.742847399707976
0.789097354027296
0.70394732198832
0.7288422263552
0.645598432239287
0.69092945978528
0.703023775916241
0.727766996954872
0.686962092716819
0.770048648416002
0.721104473539736
0.707091327645315
0.683876818620288
0.697064726463216
0.649877094932222
0.646934725911673
0.629342988299239
0.667777173213202
0.631105111518682
0.711498269036898
0.624493383624142
0.661238530831513
0.641596472484248
0.637893808819791
0.61663197148008
0.642080663830024
0.589954199859508
0.69421311054081
0.643166796800021
0.645087212267171
0.647128104552172
0.668246889776005
0.708107557091364
0.734634268088897
0.650733669453004
0.626442380220645
0.687662088441114
0.65574659915995
0.631037745883723
0.620537860145096
0.683481773384591
0.686278007234428
0.636520908212477
0.72985078887099
0.617799488036966
0.677730701834429
0.63670277482357
0.725959956322581
0.710298212845856
0.702266879434434
0.658545727569998
0.744243105122662
0.732884017672728
0.711226385298731
0.626269964719843
0.783337953199129
0.739462330906184
0.792868987943775
0.670589583664689
0.778995958113774
0.824939098750826
0.83130584876977
0.814717856323043
0.868534261849426
0.82044247992233
0.84627016604712
0.806469664576805
0.803676775285301
0.766334549998558
0.867780643419044
0.803247678783517
0.953805285872255
0.822170910604257
0.877313543286382
0.925414641115782
0.909688783253824
0.801679910700024
0.9199270478577
0.826959056479537
1.13141447526826
0.769088909479563
0.966032771608923
0.871902515194163
1.28365670721456
0.939396542878186
0.887903762592212
0.777862087538669
0.73102736958189
0.708983289624128
0.787682885346584
0.712181420906462
1.00044502505006
0.908637886966546
0.955108275637439
0.836622736520993
0.949168317981274
1.12143235337006
1.01516084204563
0.628094508388978
0.753284254820658
0.646639993690844
0.869558577471252
0.787128594251232
0.975361091955598
2.77120345065155
1.0053454933868
0.814374560439909
2.26361917724698
0.698516765692069
0.728624342615425
0.770765433872184
1.42680576674095
0.793688369062846
0.917461537794189
0.936772413890577
0.866292119550925
0.619720556129899
0.801845847532896
0.694719491797214
0.626765232399604
0.639847139665061
0.928116149217072
0.765427090024094
0.983058860685556
0.692355036029898
1.14213603942655
5
1.01413602834407
0.628017040721913
0.890127793432946
1.70985341647432
