3596
4000.36533379555
650.420452594757
1
2
2
0.0432284942024896
0.0300670562506468
0.0467190773135819
0.0188081589834211
0.0533862405222209
0.0304064762543237
0.0438370064723564
0.0226291442426563
0.0380811859611468
0.0265418291286605
0.0382327104919818
0.0398857806644451
0.0483238107321425
0.0211217073455057
0.0403589955686473
0.0367747078354774
0.0435768840816903
0.0138084345312033
0.0413789995588811
0.0264413400210191
0.0385189697591604
0.0257148335275502
0.050951699394083
0.0262273119925242
0.0355755584310871
0.0391741315256129
0.0366522442166209
0.0164565575910374
0.0547558850599678
0.0281684155364309
0.0529829616945157
0.0250135798964963
0.0530666546718378
0.0308635404774824
0.0511934388913452
0.0328883646368932
0.0508006991801083
0.025582661237355
0.0433637684505885
0.0235881633604734
0.0545105028292502
0.0203830863948799
0.0420441250579513
0.0259884765886847
0.0484178753977176
0.023658851746793
0.0347273517307319
0.0292194055184143
0.0529191390589613
0.0334940500800528
0.0559651235583049
0.0172067119964402
0.0506510559084059
0.0226482827798264
0.0473439756534438
0.0378291338497961
0.0444812272239248
0.0309636610414663
0.0393434626523535
0.00254119658763959
0.0641895799838031
0.0376101015573552
0.0330706801749032
0.0299847579836982
0.0439847165282842
0.0273278208486173
0.0348126467829034
0.0304437183935848
0.0286939899512408
0.0275448982352999
0.0150571862519396
0.0326594475869664
0.0627783238476155
0.0275544271836709
0.0429321028716837
0.0276729817587554
0.0413633179016282
0.0235546789232277
0.0316869943184309
0.0312956888685229
0.0372163788108122
0.0324901452899784
0.0408321768368796
0.0234446958591938
0.0198548197281559
0.0476851823666529
0.0273602596584337
-0.00313421598607979
0.0644528263377264
0.0358071376242096
0.039067113294914
0.0306604013492454
0.0359028129024595
0.0288600537265992
0.0379656087421313
0.027790567797374
0.039887944004452
0.0312740553319949
0.0366692362232014
0.0130112894330577
0.0364118028878197
-0.0135594983177582
0.0969496995094601
-0.0160041844736125
0.101490831060359
0.0239994236559034
0.0147939920457204
0.0409585502561455
0.0623466037667701
0.0272315017570064
0.0311450329551312
0.0271345007464294
0.036872723031764
0.0336991148217024
0.0107565686619946
0.028312694856408
0.0862443336683028
0.0400660864994474
0.035113287376652
0.0249229237880283
-0.00916718219835829
0.00819522700401797
0.0874627397195485
0.0130187556689522
0.0560031047572218
0.0248385196476754
0.0036868779303767
0.0470853658842678
0.083748091626778
0.0323511433287228
0.0443315246945158
0.0105670813706295
0.0366101107750182
-0.0296225970952802
0.0787408330912793
0.0295799371728552
0.0460945966937364
-0.0162614678127256
0.0402513281993916
0.0647742899736132
0.0577176800748523
0.0328941268690193
0.00941863514043632
-0.0120138393017741
0.0750211710483877
0.0434949377301659
0.0228892959926181
0.0245342217817962
0.0689581705984448
0.0105678833382201
0.0365897788735548
-0.00494848141284273
0.0576948801892649
0.0289073029538138
-0.0321951050057264
0.00783322301474967
0.124866181796202
-0.000462627776246967
0.112008873446712
0.0158727311625645
0.0652116404885289
0.0229238105294095
0.0387158859522733
0.00280543418209122
0.0353609718325033
0.0090340698428964
0.0301040377377899
0.0528967761852628
0.0196559118167943
0.0014173566409864
0.0653594187600647
0.0288681386025825
0.00201760314082066
0.108626353838763
0.0563036105933274
-0.0187192711854159
0.0660920691514481
0.0295218139934061
0.0239560131726158
0.0123493096736767
0.078770436465035
0.0249734381513031
0.0477592948073796
0.0099882743434253
0.0257651283004339
0.0321368522211456
0.0494157826459462
0.0226683007672355
0.0439325033249957
-0.0256486419797932
0.0169064577792996
0.0472440466481075
0.0815506545209785
0.0182333665684032
0.0438111546121251
-0.0477598183160211
0.0697108604664034
0.0549015560772416
0.0443404165704335
0.0236223264496732
0.0374989961474273
0.0199916770237221
0.0375193654652207
0.0237694473056601
0.0323368645834338
-0.0452535264631272
0.0841375582938245
0.0508232422590368
0.0390774517434452
0.00966233716078767
0.0344145284738741
-0.0227750960883421
0.0816045346078367
0.0707019521448305
0.0285729270263383
0.0228008669056718
0.00984638487373179
0.0184400773859056
0.0730191779923608
0.0229175693494829
0.0372008321622148
0.0189998913387577
0.0400074061727736
0.0207024104791003
0.0372376792389176
0.028120032529814
0.0400292494880697
0.0134018278116841
0.0305345233160571
0.0192123379478394
0.0458890927605219
0.0302252361479056
0.0426062597412002
0.0207866296946055
0.0238814062833771
0.00430816353876601
0.0773307748077699
0.0268723435352822
0.042710563070106
0.0159011097839512
0.0284028354274094
0.0115841557175949
0.0404290235189824
0.0209451431354195
0.0387701900177
-0.0282099791425875
0.0847659441514366
0.0262781161814196
0.0454576032849468
-0.00633230810072751
0.0422461362835875
0.042446771909035
0.0391377513112466
0.0264650555472654
0.0410280077995023
0.013611339998688
0.0105383113390914
0.0437594244885357
0.038570552877773
0.00928087704881407
0.0457688552726064
0.0407296061835607
0.0331772095360611
0.00903362836307144
-0.0214083710745302
0.104620126030726
0.0446203014423205
-0.0288614306037466
0.108876518595475
0.0489954096102173
0.052832595175153
0.0135809515780784
-0.065509858625219
0.0792675694945247
0.10888033977335
0.0325467700888149
0.0330179007195317
0.0458328986675905
0.0280791494017464
0.00946992435089213
0.0394201057386205
0.014474264405443
0.0630152962771331
0.0322144270135443
0.116497644578404
-0.00775986077946889
0.0556246634848814
0.0512192470353606
0.0383147829010837
0.0317548562777644
0.0323762396007695
0.0165563161558879
0.0360710615450781
0.0398305353313957
0.0419653897367056
0.0394742639581483
0.0256465340223037
0.0634201443876544
0.0558992516373292
0.0260859154868483
0.0368592077650245
0.0400785667153334
0.038606338692686
0.0415881772345108
0.0266364318505379
0.0359329396963741
0.0165887450353791
-0.0171469400288619
0.106837025953865
0.0509698861421925
0.0204295637312942
0.0665166263787901
0.0511289524880367
0.0276843855060791
0.034734183854891
0.0370953527374091
0.0360887685345734
0.0191663493315502
0.027998082766829
0.058800154414871
0.0557045954491636
0.0364717806224398
0.0497376597907513
0.0333517600208933
0.0424099412256069
0.0355647599645851
0.0438653427813097
0.0329820342748249
0.0485242404208642
0.0197539848802017
0.0386645228398952
0.0546122660458404
0.0113528396599059
0.0345353868592998
0.0872138349941743
0.0321745856026323
0.0598138118100787
0.0339046427096856
0.0560890206867408
0.0293799943981183
0.0479915894347918
0.0270824608200097
0.0376543848030714
0.0617520150128818
0.0643762070788929
0.00969648483143052
0.0161926039003403
0.0591637894214804
0.123884899336312
0.0588943999092179
0.0578754920735121
0.00662396366108923
0.0480312473451172
0.0737917193478505
0.0475488805975251
0.081312409416034
0.0564447281004127
0.0527219554629589
0.0563208331935406
0.0489535304432521
0.0568347915742071
0.0490507124071646
0.0565725647389558
0.0493569265848078
0.0558855394253058
0.0585020794288183
0.0568083640788502
0.0290553150426224
0.101970442028559
0.075714148009774
0.0753080864511267
0.0568918782188916
0.0480772918209351
0.0603693262980398
0.0979780459421607
0.0615653015695089
0.100084020790335
0.0474170837561364
0.121563760687726
0.0695572301412306
0.0791468324788556
0.0694769574284615
0.0838894476943787
0.0732111008063305
0.0876332982014925
0.071930215814781
0.082641648347752
0.0765702858099003
0.0976502425097521
0.0764893774703964
0.0959887930839299
0.0736961623904249
0.109726154302334
0.0903473548997663
0.0913692954062248
0.0704158872439522
0.0768438693773343
0.121721605769357
0.151302078356312
0.107050312024789
0.107206594232651
0.117824546064584
0.103535191218225
0.0999607992206996
0.102147091451913
0.111665322489467
0.10909030707942
0.115958678381037
0.129831454968266
0.116565120932389
0.147450570073922
0.100538870463584
0.135659429822993
0.124035865714388
0.13114089698233
0.164302887586274
0.140143512674988
0.0972274752924518
0.14484170142579
0.161460793541405
0.1256693389646
0.162804630157722
0.149185279511056
0.14292235746608
0.153088183569417
0.142062377303717
0.161421615380847
0.15181442934279
0.177533942038319
0.161222016990615
0.16222583175592
0.146984142776809
0.160414433223411
0.15993537419041
0.180087829841234
0.165167008158672
0.190369158091714
0.1725870398054
0.177482179062668
0.148559974714636
0.173929103602484
0.191936226240272
0.181395875352614
0.216109300944632
0.195292458920629
0.182291709924342
0.209027640235245
0.202761042685029
0.215335445607992
0.205942529511132
0.206598191206594
0.206808107662989
0.20941543320579
0.200694820380892
0.223308292106777
0.211326303263654
0.227598875046438
0.227189767937899
0.233355004146087
0.227655139712622
0.239847984974648
0.204442777076222
0.250737226804541
0.260618887411695
0.259937049688855
0.28336195414334
0.251831115794917
0.243000040365028
0.268275010504232
0.260294354155429
0.261671590541882
0.266012890339701
0.270689951556741
0.267480185641313
0.28426537621265
0.2646721324469
0.273535789793325
0.282605618891672
0.305511804396997
0.290874583091793
0.310586262124894
0.297831909910183
0.298956591039833
0.283829561909488
0.308260466359685
0.298742372679415
0.316258387560795
0.294617011116727
0.323601632710284
0.321623426812905
0.330376421413511
0.318197304955611
0.336744138904448
0.327802013946012
0.33441675989721
0.313919655153457
0.350980147535452
0.34397998788527
0.357554271454479
0.364749405166454
0.361226535999066
0.372317130461648
0.388322599727498
0.375183369291738
0.393738896826932
0.374913537201703
0.384391898224968
0.367796746132316
0.387241097179729
0.376925581252342
0.379641157496206
0.402653963131805
0.425010587783059
0.4004797128795
0.396339127802902
0.425125686648748
0.425648470395893
0.404003900918324
0.432337802186935
0.427988797214229
0.441325712752094
0.450056609432297
0.457927023167684
0.445933309665095
0.46335841415991
0.433662579089986
0.458449667090667
0.466001732156168
0.481702892421136
0.467758198054493
0.487801457027636
0.477802043166427
0.488000828095991
0.487194454709123
0.482309654292167
0.511867689366158
0.488773622358625
0.496490086329042
0.505421463740054
0.496258052864105
0.508617167862069
0.528222094191167
0.555514358456681
0.521747706118893
0.546721166260965
0.533857503325307
0.513553894157065
0.5368093754049
0.560766196771791
0.543952530637233
0.564109113862118
0.575103271935228
0.557108969788202
0.549526497983697
0.561175851650637
0.556357327330578
0.581903759986542
0.553709689883331
0.576994245815236
0.589836081807352
0.596722940768072
0.604243591015275
0.598649339771374
0.589590002625035
0.590930888331042
0.591267119349476
0.600849595182716
0.608570181896512
0.635910981287874
0.623831229760769
0.613289052821583
0.610744452994114
0.634505322886609
0.629208591277688
0.670908576507228
0.689107017326484
0.677941766021629
0.682133674847195
0.648240543382306
0.648825663502828
0.664879732151375
0.648125069922774
0.657538588435749
0.660998135879312
0.702751447808666
0.712973640566384
0.7048765041022
0.697652430023857
0.663806639846468
0.671118354021486
0.698528243465202
0.690960042547945
0.698481757296797
0.739782644571658
0.726095635385801
0.733496211519936
0.741797285108719
0.728477279989459
0.717918862976513
0.73184935151809
0.731452869907036
0.708368713604303
0.727841671457089
0.766597673221417
0.732675871139309
0.779721174217715
0.753818461422046
0.746328049029932
0.754120521011605
0.72101993630791
0.711753923584514
0.754517141356057
0.762528106533664
0.778669819035236
0.761605262020494
0.794210229825821
0.793621785805309
0.750458380223735
0.765225702733436
0.785694584444546
0.804723065155242
0.851987522737941
0.825930764216808
0.808052931024908
0.824575907070565
0.78803465750182
0.773583091180247
0.796264609773946
0.76118601031235
0.781330916462349
0.816925871445171
0.871358511278628
0.834526603894979
0.850018937192433
0.846598100394868
0.83527714390928
0.834752940932879
0.846864861688334
0.847191190939442
0.802173288549045
0.812962244590918
0.847716037970932
0.788101152811042
0.846976111891423
0.911205320255894
0.876118237558845
0.868994042121036
0.882597918977805
0.859234517630665
0.908422559718358
0.874340282107839
0.924747453548911
0.848950667807843
0.854131228247906
0.865946886142656
0.9112841462807
0.876638264143554
0.866840240300374
0.874378708962956
0.948143839440966
0.896687595636631
0.923536102909577
0.88045404732751
0.881063987315637
0.857834309844901
0.909289979777609
0.904119896408245
0.860842045270948
0.869450694812953
0.99945559010547
0.957748734309849
0.899798964391719
0.923545649998276
0.962892360685499
0.846675767980606
0.887025339991314
0.899536654248232
0.994358207537936
0.919008518376519
0.999893280538638
0.951134713293595
0.911818572409907
0.891573951375422
0.900674810084856
0.894225426302524
0.896714784435859
0.917837213304358
0.954131850134706
0.92169394463904
0.93383133284345
0.908065282007504
0.921875759546013
0.859573761833623
0.953228583602954
0.93274227657089
0.928423474229275
0.934876722731651
0.937287895965399
0.951768134359857
0.972965702402409
0.916888893888068
0.952951481968199
0.97566558423506
0.96899156066798
0.931039247186574
0.926012968908701
0.930306647247881
0.974965114984898
0.919058371372218
0.960813009918839
0.934862264301822
0.951879433347771
0.955197517030985
0.971529106740487
0.929741514767048
0.949222024390593
0.908241558285094
0.912509418365665
0.918010122763667
1.03579042713545
0.954854610985636
0.98199938992794
0.906686631424994
0.941034856528387
0.932841266456489
0.914303597976416
0.935459398923275
1.00889735198746
0.961902117984302
1.00017265950454
0.937828325584636
0.964639363868842
0.947852536044499
0.961071990456087
0.921570187191149
0.942955444760613
0.932215361156305
0.933343031433539
0.923266835693542
0.912976156665157
0.902515533069254
0.952961806548229
0.949381434800085
0.975521744061903
0.898328271268062
0.984268738371383
0.931581342244585
0.93222276099049
0.934495794805548
0.965646886891886
0.919256870834807
0.915486582991181
0.940007073362241
0.928824855298643
0.944172648516523
0.97627896767828
0.931326211683522
0.983445227906722
0.924012751021727
0.918546819445689
0.940050678003738
0.996557048972568
0.876190498020512
0.970022333534249
0.943145402621719
1.01180833777327
0.929622225229873
0.959255922387962
0.930382419630838
0.926638764752689
0.879960305846738
0.912116730826762
0.907189385502986
0.968648799820248
0.9425014260417
0.936358604331755
0.894684665343036
0.979150312187104
0.863368575545811
0.918368044416931
0.881654490498548
0.938355147092411
0.901930371027327
0.917704666058661
0.950891784324609
0.931496854890264
0.915759308623722
0.955798335622649
0.920449150314825
0.952394441410421
0.867865586737579
0.962591838345004
0.925892312476626
0.923582920318022
0.881289290521552
0.912197164946419
0.880925793838945
0.922569059099911
0.864720032232997
0.910223126846335
0.877915891146273
0.923013802241287
0.885804790288985
0.856123213727703
0.911547402914542
0.889548569451895
0.847999665422162
0.883522906983321
0.860685746644553
0.903790092607112
0.840564960807642
0.891606814225557
0.84848095572874
0.921065372098845
0.897016945011369
0.855835649605506
0.858708422632452
0.869879386054016
0.831891761496034
0.859814131669859
0.847534037683958
0.884389815581761
0.86256081496235
0.872241917173069
0.822740016613859
0.872455637946269
0.828189504069237
0.879579684458544
0.849593058046922
0.858310355156411
0.809405554751288
0.867660022254115
0.821550028041715
0.842698320575288
0.800789804354449
0.860989410151901
0.79536739923641
0.825629176893317
0.796814592024365
0.808412441606381
0.80364625499948
0.82812344771413
0.759882916263909
0.828885444622524
0.78324374273747
0.821286703662955
0.790409252625217
0.81103389541408
0.754676592124001
0.799933034010603
0.767174080534275
0.800977935055959
0.765084023016124
0.781822143846443
0.767017855321225
0.779158496046699
0.749556775198823
0.777204854428585
0.759862991828761
0.778840567442901
0.743291750055805
0.754224418742956
0.736763605761008
0.77865553286054
0.739354019945166
0.759669606883925
0.710460404433703
0.772316502480115
0.731148736229619
0.724585933366335
0.70559374231814
0.742079972396226
0.719433395636556
0.745516258728936
0.710815794044472
0.725996196392879
0.692318609884596
0.718904575854777
0.684958756947915
0.710933535114091
0.683063332917059
0.708602685365497
0.700835210398307
0.724096906170843
0.665747546380994
0.7084947657244
0.686745842829674
0.704448180673348
0.653966925032322
0.685650076608134
0.653239682019037
0.655916190009267
0.657982339050714
0.665873206986456
0.645125438492802
0.675150963928004
0.64047306066656
0.652651993403186
0.64368242797757
0.633743400518614
0.634460260668658
0.660712989826948
0.629564845817746
0.653351143436543
0.617092384973604
0.632174016923594
0.622138029422165
0.630441692463497
0.618823839688122
0.635016099893208
0.606694637427249
0.628917176019219
0.588411737525905
0.607531163889509
0.588281514669914
0.616794948593897
0.573801882700675
0.614936036817103
0.588602471168392
0.608407034572639
0.576719142911519
0.610429984173654
0.573654894851704
0.599093886141038
0.584800121488433
0.583452398050838
0.567426285625444
0.566008110744738
0.571573159917294
0.575382410040982
0.542380104284211
0.55796068387045
0.53843410367721
0.562779044470926
0.546472034515661
0.561088469587977
0.539049424044172
0.547472157484672
0.525167953909113
0.550372018069341
0.51364437568558
0.545218911013362
0.521384705041873
0.526679946568529
0.500037279272933
0.536700445969611
0.504804522873894
0.523916099402683
0.519420570743267
0.531212010960686
0.490529160522819
0.520548828751637
0.484491985514066
0.512487095268089
0.495357318341206
0.503241507325671
0.494408917900774
0.500591676315418
0.497557992413652
0.485778611605757
0.468933140981907
0.496412064181521
0.48001749064036
0.481180423223033
0.474582554820606
0.494886305326007
0.464942870462616
0.47595532287145
0.465403040092661
0.475085209459819
0.457577122134949
0.471702486697571
0.441171580654404
0.477134804108642
0.444854494082925
0.441875304513953
0.43777857574948
0.459352393425692
0.43625386865494
0.451750418364577
0.429058485289386
0.442235553483029
0.43250420095254
0.431228334323558
0.427586513501955
0.437738462036941
0.424036665822015
0.43062117997791
0.410447345645553
0.436325961300585
0.418033966441027
0.430157642739235
0.409150020923417
0.432460976537378
0.403120762584275
0.413500306263761
0.394344812889707
0.399976885197645
0.395539166709026
0.407214964855826
0.387577252787645
0.401780397880493
0.394956126415822
0.403432756366589
0.383686960504085
0.402458925020094
0.382007644781513
0.391684175641979
0.381178162260558
0.388134256026566
0.363629306114552
0.38369014263736
0.377514046370178
0.374196945584532
0.370695399524053
0.375331293828808
0.36973228673274
0.37888371046774
0.36159311558025
0.364139760992452
0.35188832450162
0.363843306174685
0.344643227012291
0.36890423759165
0.351131135395951
0.354080917967973
0.348045446544644
0.354409327456045
0.339549761546078
0.35182304457722
0.335727139298007
0.350735512681597
0.339307985393211
0.338829315053007
0.332673911419843
0.340931247806697
0.321233471794293
0.337876499044253
0.327586787656917
0.339740795414237
0.323453912943914
0.330599812524708
0.324869751632182
0.330511123260932
0.318974228492985
0.318424873242575
0.309662249874327
0.327305158754149
0.314129894266205
0.316272286005415
0.311044763828424
0.308594642529332
0.305010083639813
0.310501729738237
0.293156965103596
0.313423101409135
0.304124242710243
0.314436960440308
0.291183442567793
0.305147980729486
0.296534755525191
0.303722798437676
0.285200273214395
0.307794286768475
0.290295950135513
0.299482140825426
0.289831067600456
0.297680440169332
0.278993569503152
0.297665328263261
0.278328077184901
0.294808408174659
0.279467952597622
0.288716748833631
0.280474342555654
0.293722173254428
0.278623386249115
0.287279252898284
0.282064250046097
0.29083716019617
0.283615626001429
0.294625854173078
0.285133400388996
0.300664306458681
0.287220287818917
0.306312252734711
0.284495227519004
0.297250672230769
0.280693617934197
0.291022714691902
0.287047967735004
0.298795289382043
0.290717603211904
0.306773129495586
0.280288182203207
0.306687621240983
0.302522316849847
0.304695830905571
0.287351452641884
0.311809434004889
0.301845512716343
0.317370420522488
0.298563163126636
0.314283599853649
0.314884224715339
0.319220935349813
0.318194972392656
0.328458122426229
0.307166866597287
0.335951185744978
0.319528416660579
0.325531966613735
0.320997316638889
0.338849575253241
0.324335827469971
0.335919194354229
0.331298769966422
0.351344792713096
0.334021737230103
0.340626191175218
0.33603873624523
0.346622559964852
0.337566239665011
0.336445242669733
0.345515959070945
0.35124701561837
0.346023715756103
0.367354178272378
0.337792868502755
0.370260866410175
0.354319238723813
0.375449409618448
0.368037317234912
0.379081982477582
0.364762610502608
0.392716701546116
0.372154492725977
0.38931712537656
0.384705123273659
0.406367730120134
0.382082138437959
0.407824037881359
0.379171969989651
0.40771979014616
0.390618996758585
0.404894287752114
0.402631561152305
0.402957193992167
0.399057038729591
0.422401539694117
0.399272996301458
0.412848514963021
0.391284292783946
0.413576350034697
0.396297713792034
0.410349237356842
0.407039665237068
0.417756529396896
0.39656110428519
0.409665664153527
0.396216645435703
0.415399580307464
0.401257291824335
0.406818138597259
0.399545103628804
0.397874789616472
0.398830308140346
0.408338077739884
0.395499348035392
0.413849955306395
0.400998893168228
0.412229043632514
0.398074461539568
0.415455044565067
0.400993558180115
0.404708969919624
0.391133683803962
0.413017179602904
0.395423540434873
0.417836054553019
0.400208778770675
0.408108406674222
0.398959391813624
0.407079326499561
0.396078640907719
0.405574811689814
0.392681538016344
0.409169560587735
0.406830890069348
0.398801848429307
0.402150220654912
0.409190384438133
0.406885635788086
0.416307977570979
0.392661267751035
0.411131072685703
0.405920117310965
0.412654650679642
0.393059004264385
0.409947817324687
0.388221505717391
0.401464822307096
0.381175980877673
0.404427615974668
0.392288183219733
0.399034776317061
0.39630439183883
0.393528481684804
0.378809010392993
0.389769339854375
0.387045725222565
0.384564153776947
0.37945739018501
0.3944990533521
0.372787304310313
0.382108460056038
0.373491111024924
0.387714821252733
0.360888848384757
0.379112168398766
0.363891054089442
0.368887606224493
0.342712446365724
0.36281825920346
0.351868939344206
0.349125899473648
0.351253935601979
0.350899017464395
0.336618731203742
0.347150475497193
0.334420233008377
0.333597404682492
0.322179103265107
0.333093323014241
0.316165054123542
0.325870265124474
0.303979283787121
0.325152503665988
0.310718132242056
0.323668680698799
0.30368231161536
0.31095165334211
0.298113462084632
0.307542549239852
0.299726116356318
0.304260500156811
0.291757067128227
0.306452696713017
0.289966250546237
0.291609068916627
0.285486376123497
0.287329847782883
0.273974124234577
0.283811608097489
0.27549693982646
0.277319658117473
0.277796866724016
0.278611095427935
0.26679522883693
0.278327923832086
0.264408756867939
0.277776050630916
0.264677749518418
0.269301993219428
0.255847112925397
0.274724658750554
0.255118825714441
0.263584725685293
0.250483908509753
0.258312324541911
0.255439665824678
0.251818894785925
0.2463457230563
0.258385701480676
0.246941078744443
0.252439846252887
0.242377996288466
0.249741829773484
0.24151980761625
0.247947219140524
0.236900446064198
0.244473002441241
0.232562360184364
0.244338790944519
0.234013036095874
0.242037624175848
0.231130662659296
0.23852185249488
0.231323015482302
0.231238071427819
0.226887984139701
0.23232165641511
0.230330824596714
0.227546525581191
0.230478229377205
0.22928340956209
0.219712412851237
0.223790670934361
0.218749917962894
0.224690977629648
0.216132914982915
0.226066231684597
0.216715491781298
0.216187993618887
0.217656363335458
0.219658180117451
0.20783104215496
0.2164190803138
0.207892104374104
0.217601889566794
0.209012596036362
0.220614468696941
0.209977869309683
0.218419871744066
0.203676074244579
0.213017946040076
0.204515809758825
0.210925119047893
0.207302380767767
0.212762782394285
0.20793140914176
0.205444004571748
0.202355147204119
0.204651173850133
0.200304206814763
0.198154039728882
0.199034940703551
0.206502571853424
0.19671291134425
0.199699908673821
0.19483848215535
0.200809446913026
0.193703272395729
0.200900879189925
0.191691221208583
0.200360114443394
0.191502788402589
0.196270630258137
0.198316174636187
0.198188269579737
0.188080398758817
0.195150964703263
0.188326977574839
0.191544914006497
0.190077737661965
0.198694386822783
0.189686192120882
0.193551007422238
0.184028936457439
0.193730410144011
0.184826496641844
0.188989525180618
0.190157884028027
0.191345920913961
0.188939413331521
0.188386980412419
0.186886053406383
0.190526700394194
0.186375308602291
0.187577300911976
0.185947911694126
0.189938916658834
0.182959168319549
0.191177915670977
0.179817121913436
0.185871034152619
0.185004597051867
0.185282188290558
0.175803914963979
0.188338053327016
0.177336227808333
0.188177628776449
0.184462608927781
0.187526509562587
0.179547804072605
0.186263056409038
0.183440608811279
0.189882641160438
0.179538962304677
0.182734190787882
0.17284384367852
0.181652575608176
0.177021772410575
0.180506025031524
0.177154036177264
0.181456599308202
0.172696198823787
0.18158035005998
0.170611863968645
0.175588508867194
0.171458126994668
0.175947800395701
0.169132481307136
0.175505023506297
0.169124340542848
0.171464432155084
0.174293267617182
0.171989148545644
0.165881781731115
0.172932001945778
0.167461253433034
0.169356544083605
0.163895504259784
0.170500805218266
0.160139801656595
0.165985188162055
0.161929417587197
0.169424496394157
0.155914287183143
0.165861495976012
0.157058176674824
0.169699392593246
0.16094647564341
0.162463171653102
0.156932029017096
0.164955096665952
0.157740319045751
0.161570517546399
0.155745966292618
0.161803827069889
0.155230277427333
0.160704560589907
0.150059217531239
0.163368379043079
0.153725694850745
0.156509710945145
0.156840593626684
0.160909305604012
0.149360558641119
0.157246784935774
0.152735804637696
0.151263010149048
0.148025488391555
0.15261770746735
0.147895576771097
0.156329380356414
0.145981208118145
0.14881188721371
0.147561675696741
0.150449592368616
0.148370093547074
0.146899760743317
0.138812721914009
0.142373638060335
0.140275431000492
0.148011450524261
0.141735910326608
0.140419309070698
0.137139512629543
0.140456290053459
0.139816608390703
0.134763037472709
0.135360761219371
0.141167824476869
0.133746949623677
0.132509308905805
0.129020073440565
0.135691554875494
0.130467031835306
0.136225223488338
0.129539287244772
0.13151093833585
0.127228375545163
0.133423276201863
0.127519573968338
0.130917065160847
0.125884082014418
0.132980299574083
0.129777144550177
0.128390256610568
0.122562329785374
0.130613865775869
0.121058174438762
0.127104426739669
0.122867500170167
0.129911980483646
0.124030435887836
0.126485437775883
0.123742714878808
0.120611739788789
0.120283425744186
0.119515033972556
0.116080004305846
0.119188609603862
0.11435081612303
0.120915353805614
0.117822398872033
0.120083882467061
0.116899114633439
0.117399968983586
0.113112614845089
0.119344247707496
0.112204939956723
0.116672019918628
0.113927931611905
0.117331133303266
0.108314378998545
0.112706483778104
0.110432970885288
0.112501544098004
0.110065887275258
0.110047873337457
0.114150062247747
0.112758211267388
0.105165679797581
0.108078436932218
0.105400262312457
0.107931448570513
0.1049238393494
0.109905636924161
0.10472010775118
0.109798135727918
0.103465684209169
0.108584167924899
0.105658074529101
0.104895728088001
0.10341395750694
0.107991990828511
0.105679175656787
0.104869735154161
0.101722693074936
0.101297271264945
0.0988829211224753
0.1052367852291
0.0970787682347138
0.102651722706602
0.103998280683645
0.102254642040503
0.10090370079326
0.102291328963567
0.0998433864716575
0.101202077510939
0.0984910369069143
0.0991792552300683
0.0989454401164884
0.099754019048216
0.0965081638251553
0.0985284069603877
0.0956511067093968
0.101607847923605
0.100329422654284
0.101702238942544
0.0969373360488746
0.0996281577062108
0.0969458809829256
0.0991096738028808
0.0915827424762993
0.0949520139396271
0.0976729727214476
0.097411911300175
0.096776336368182
0.0968471959135901
0.0930005610483557
0.0960360130422156
0.0941694015018966
0.0945779579729163
0.0934951375360592
0.0970018133164083
0.0939185033042248
0.0897591658991981
0.088404129246644
0.0979974362708007
0.0944578125388779
0.0916638350481669
0.0896552032223641
0.0922533961232207
0.0900916276785133
0.0907447080446498
0.0892475326853711
0.0921007451569272
0.0898357166332281
0.0921424425352215
0.0881859256095595
0.0926403697201646
0.0864135890106883
0.0891059866163755
0.0874348999968539
0.0909081415924152
0.0929946202645695
0.087559812669694
0.085249263808142
0.0911297135015994
0.0852255605928781
0.0851053932124655
0.0833532544860663
0.0862595716723958
0.0872345704883581
0.0842602000612944
0.0830573362608774
0.0850855029959388
0.0874371257872743
0.0852486380188813
0.0841314510969063
0.0861791474893327
0.0820192285611673
0.0861502696913293
0.0844647124415108
0.0823699723950564
0.0822235692346455
0.0819756776749123
0.0816120881253126
0.0806175168070346
0.0792603368894366
0.0887591082165782
0.0825731159755035
0.0836919765255551
0.0825127347541937
0.0815647655815094
0.0809101645744334
0.0847036574445331
0.0810777929694668
0.0792460760092046
0.0811156639112738
0.0868480499924437
0.0799930400966767
0.0807616845071817
0.0790592126153219
0.0820188302136199
0.0816375085952532
0.0796280021044697
0.0803844136703797
0.0739104283746631
0.0804584470264138
0.0806470119509144
0.0796855076143773
0.0818038878783262
0.0746576904534624
0.0802833873105539
0.0770765491773061
0.0735093821030109
0.0771009823085784
0.0781055413096962
0.0750823005130198
0.072963571215955
0.0748612350387337
0.0756662351667832
0.0709189422724535
0.0751233270454427
0.0720270993780428
0.0752971863271976
0.071633409072652
0.0713821748668072
0.0696065486992868
0.0696176588638809
0.0689501633546831
0.0685764109873885
0.0720925812878683
0.0699512271057828
0.0709700463173144
0.0680889798869358
0.0727484129188074
0.0706930006179599
0.0691155897974431
0.0707493362913342
0.0643775343157627
0.0689620532356174
0.0693145595339223
0.0684608687772614
0.064171058307344
0.0663594168569433
0.0677514275321951
0.0673471163677147
0.0660287563561205
0.0669755696560863
0.0667942329835673
0.0657608363460787
0.0650972451494315
0.0619512440953881
0.0653109527828765
0.063293250984421
0.0616274277789142
0.0631676646525391
0.0649629576108375
0.0623510218267021
0.0637015813229058
0.0633115480930918
0.0627757353423874
0.0613777625922061
0.0642214716735794
0.0604881599799381
0.0572349501114541
0.0606283726759331
0.0610954701120252
0.0604506149195705
0.0607943645148602
0.0611511581530462
0.0592495360816441
0.0609970507483817
0.0570234169321636
0.0566765455670565
0.0577887672570123
0.0609246635032622
0.0593248406520304
0.0565813468199686
0.0597484389165185
0.0569511637345388
0.0568911426431586
0.0562912676844932
0.05482869717471
0.0561231094456651
0.0586148021780411
0.0548511763824284
0.054624628727408
0.0559806828162331
0.0538926769964042
0.05211607137857
0.0555689072659183
0.0522692732461897
0.0538719724482344
0.0521250028689488
0.0551205738739427
0.0538179392587002
0.0523880369239933
0.0516739962547303
0.0534077462734933
0.0490394422890952
0.0515485695196132
0.0497556362696979
0.0504248675322655
0.0494959780472831
0.0534716193176019
0.0517269303344092
0.0529676959585895
0.0542997793079738
0.0539935732093483
0.0479926742546593
0.0532402903080069
0.0503832143753607
0.0521410631369826
0.0525251707206586
0.0512459722933398
0.0480716310456556
0.0513380393482113
0.0500172760889401
0.0511463121791432
0.0489243465643627
0.0520885961019252
0.0451721213228534
0.0536386377340228
0.0495419940204815
0.0504434287571584
0.0473316631822931
0.0505566164381011
0.0473267869071228
0.0465615886434463
0.0484500929444542
0.05068450025245
0.0439402902313573
0.0522236633113395
0.0540726752567964
0.0572302972930741
0.0451557373758189
0.0520428371276517
0.0429332680674315
0.0527473782998379
0.0498622927468144
0.0518706418941875
0.0471418616497059
0.0538928804567286
0.051294716246379
0.0576092372799559
0.0456086746266017
0.0512566043250856
0.0506334207228442
0.0543264963950828
0.0507576952729355
0.0564288961550525
0.0470083618488144
0.062327150320149
0.0456917198253414
0.052289580268591
0.0470174562308372
0.0490515601346075
0.0331045609920769
0.0512322999737283
0.040950088761192
0.0532877100588819
0.041549095493545
0.0574350796911086
0.0351068973505492
0.0618221590046984
0.0496625957256087
0.0673864635477888
0.0358303327682283
0.0660389973769197
0.0345234820188629
0.0693185219448352
0.0437869210486004
0.0718136440810663
0.032932863212307
0.0615221823652482
0.0232504549624497
0.0610689456412203
0.0324732486652376
0.0695622003531122
0.0323005823004572
0.0577396873448219
0.0308818784114343
0.0686822989803332
0.0456605007934993
0.0528315888725888
0.0383583660089782
0.0536095627696526
0.0480009016768108
0.0367017152732647
0.0537547303442641
0.0387177970415467
0.0610761460171605
0.0243602555559773
0.066024432101919
0.0271610388864786
0.060201570804384
0.0303490835351446
0.0596286760446616
0.0339760562359467
0.0545942832836034
0.0396423795523131
0.0485240858804008
0.0399020677277749
0.0440278183049863
0.045575468792252
0.0438127068554743
0.0397630399473244
0.0439473622772811
0.0375648323266062
0.0463343949175691
0.0403766044924824
0.0469479257640773
0.0408791378162652
0.0465753130877055
0.0398629981615796
0.0448248634186939
0.0386823494587367
0.0433427816179672
0.0407252303882651
0.0436769713621409
0.0383909546269414
0.040212267422873
0.0386457990440595
0.0457776777399172
0.0384670702186062
0.0424867603620619
0.0386090414880325
0.0427720546126096
0.0397345043904352
0.0458493559597591
0.0389352659688823
0.0445083352178489
0.039577131893664
0.0423158195292527
0.0402025054476087
0.043279124854137
0.038200649671788
0.0434839460277931
0.0402637460358387
0.0424278684828949
0.0376863677123468
0.0431948443956242
0.0419909070627761
0.043692135451169
0.0365264454327563
0.0412288633866946
0.0376636635817815
0.0449134648358259
0.039412115226246
0.0416176938957807
0.0386260190585394
0.0435664783980735
0.0413177545339022
0.0425217408314529
0.0415545656817232
0.0426603427042259
0.0408807529877951
0.0409428416976236
0.0388698411706082
0.040002955036147
0.0384253097425062
0.0415418887695225
0.0413932798774796
0.042309419921811
0.0393584555474058
0.0426653147799855
0.0378543667387183
0.0410970646671055
0.0392579044877662
0.0392066741638431
0.0377054007890918
0.0404222999293169
0.0398512174867466
0.0407649195702167
0.0407782692638741
0.0449502932652919
0.0401535344586552
0.041209887126804
0.0388604109157128
0.042467924558425
0.0402549108275613
0.0446151753989045
0.0411536627395537
0.0429322834856349
0.042334758755394
0.0418873912060804
0.0359171628147447
0.0416218666281168
0.042174722489452
0.0401129858502798
0.0404592279308442
0.0449669831233647
0.0395359147944302
0.0442762371696048
0.0399330806569942
0.0422296444049797
0.0442576221896438
0.0449144444898463
0.0425369580404115
0.040972694200368
0.0390995973281046
0.0412317311153765
0.0410961711177548
0.0384967310450607
0.0418569240193188
0.0442147511944265
0.0395975707793205
0.041764730520828
0.0423410222631705
0.0425519906973328
0.0405137827654857
0.0433438403071381
0.0404043492826325
0.0408677520779961
0.041154499655895
0.0426903121570118
0.0434720670387316
0.0431347569969594
0.0406848651850896
0.0460208665148633
0.0414833592422603
0.0417896902377233
0.0447363781465504
0.0453162983689787
0.0408451419480028
0.041410380800252
0.0411785821528087
0.0433716440845576
0.0418211236360573
0.0409627827508997
0.0407618578242596
0.0447557323169693
0.0420771369096148
0.04095486515195
0.0397553903384881
0.044279982034672
0.0432517231067151
0.0435553241153664
0.0450106130094093
0.0448897033138979
0.0430453646153271
0.0431111875809055
0.0458608189301747
0.0423878500367027
0.0448349636887369
0.0436043633964075
0.0405930603085058
0.0420430834141171
0.0446609649945269
0.0440184106219816
0.0447037813301273
0.0440516256207922
0.0437737569680684
0.0432768074633612
0.0451566698423994
0.0448204092347101
0.0438661902401684
0.0455638937044349
0.0423691121687319
0.0439678932182241
0.0463503216575752
0.0453479037540671
0.0447050972065976
0.046591739305955
0.0466360869941936
0.0464309364676227
0.0452655801292549
0.0445793515725078
0.0421731131221169
0.0422398872536469
0.0449921883285131
0.0460315816291495
0.0458527652085245
0.0467219507999233
0.0471765439235582
0.0438868602696416
0.0427817305243389
0.0427904071364093
0.041943112546672
0.0421701586135867
0.0451508036548645
0.0467983776388484
0.0471186506478684
0.0447593989719343
0.0454258603677032
0.043647363522719
0.0446556987359163
0.0438868729609512
0.0431369308122924
0.0419955318227859
0.0431737827250586
0.041312895460016
0.041544573979287
0.0419563548579614
0.0438023335689767
0.043407073187041
0.0435094437436752
0.0439026674473097
0.0393987879284833
0.0422285378563457
0.0412874020409863
0.0406285315457608
0.0430975252209238
0.0409617783822199
0.0435890516708107
0.0417883978662443
0.0422315223694169
0.0419533157072473
0.0424884470107381
0.0433946637288043
0.0453233439507833
0.0391153681365253
0.0397573783022411
0.0401337223187703
0.0397335093631416
0.0414033858543943
0.0420523323667987
0.0428356381831286
0.0411427556310396
0.0403011368084133
0.0406712555297797
0.0414867972604459
0.0411698338242492
0.0420426142406232
0.0434583236633149
0.0398484432712079
0.042636766406046
0.0420710708957052
0.0403744038869673
0.0394537449632931
0.0374003824860287
0.0406111923816712
0.0398297622943802
0.0402453763413619
0.0391046123046247
0.0393694231507542
0.0369514473756504
0.0409258026125592
0.0429157909630837
0.0410570172671765
0.0405508113256062
0.0421292493874457
0.0411897446083009
0.0431605854761761
0.0413984489689193
0.0401980907141133
0.040526781758396
0.0416316908552988
0.0388060783828447
0.0392244041469371
0.0417481390072103
0.0423349161645245
0.0439006003734467
0.0413704896316353
0.041141504474861
0.0421650705080958
0.0405826925515688
0.0397157160010845
0.0395011295985619
0.0383026895504759
0.0434927667327967
0.0393860619843163
0.041787865375049
0.0417603897364117
0.0382458713338657
0.0394900226297838
0.0383786734462855
0.0403188422169363
0.0358218866497651
0.0391094107683501
0.0395256483406912
0.0403207075727097
0.0403928647571227
0.0406511923191181
0.041128766388625
0.0418687990247426
0.0426717571974679
0.0407119306731783
0.0386331101292604
0.0385289429418744
0.0411170854868034
0.0399882285638421
0.0399193099602776
0.0368210925456719
0.0391513033272579
0.0415352799146897
0.0408686782138723
0.04017715946503
0.0423782956546086
0.0393692438294024
0.0404089350491375
0.0380752799600248
0.0359387937457824
0.0370263838509365
0.0399425292473947
0.0391555203964015
0.0358410655770101
0.0352123776681327
0.0391539431046856
0.0357021946826306
0.0397220159439079
0.0384268494697688
0.0357142968772396
0.0355923944069204
0.0351187763076858
0.0381112945072688
0.0389528808915083
0.0357869665457251
0.0359510647788311
0.0358563232886457
0.0384429664668248
0.034032429129025
0.0416658740298547
0.033835723304825
0.0394346157438936
0.0337310536444732
0.032461398526223
0.0333425759765646
0.0348053718493038
0.0354075410090882
0.0384069881644876
0.0334384551226303
0.0365416321896105
0.0358689135237059
0.0384844541156586
0.0322492671641499
0.0352490741516962
0.0316261316663791
0.0372078670059332
0.0318700458449881
0.0354839759648421
0.0331915217158918
0.0332914195318851
0.0315525353209889
0.0353342619350831
0.0277978431384271
0.0347005012048765
0.0312212755397117
0.0321608039776206
0.0324354434283138
0.0349644452470796
0.0329214260327808
0.0339225769949677
0.038260928773564
0.0318682125726864
0.032893516860883
0.0313234392525514
0.0297414363177887
0.0335019268867023
0.031654272778891
0.0314118891867808
0.0341281975690092
0.0316951833944521
0.0314141237946497
0.0317529319860103
0.0300891611789279
0.0319353782878138
0.0312331717677803
0.0319874376077791
0.0296242596256836
0.0292839061426937
0.0326269896574234
0.0320254285202883
0.0295437157548545
0.0284850098886098
0.0349046031537817
0.0341388597342385
0.0343190767552785
0.0295812774702867
0.0342297832782245
0.0315921484444899
0.031662506215581
0.0346717654678482
0.0311162613548642
0.0315943470883098
0.0310896524053592
0.032337965304035
0.0281270734741105
0.0269248382451081
0.0319684633301052
0.0318398688460416
0.0333992695585098
0.0280528339981488
0.0308516246462536
0.0287205577633045
0.0304160355048443
0.0285434999687934
0.0317455062228335
0.0271393959917808
0.0336566584550205
0.0263495249163436
0.0243438740331944
0.0416032326856351
0.0287384121643636
0.0347825089607196
0.0262625122703851
0.0333307540975718
0.0272259802770021
0.0315942082443225
0.0274418919201603
0.0283662257776205
0.0280345297027621
0.0292948702207559
0.024242719631583
0.0289871914747489
0.0257185598969757
0.0316171399684418
0.0260243936443997
0.0335224433120463
0.0263230353096302
0.0313516367814747
0.0243252912567137
0.0308475309851224
0.0327065232611047
0.031466526219341
0.0281196359187746
0.0356511429204969
0.0100646271208245
0.0436271234184835
0.030644037574428
0.0346002320003457
0.0252117069220188
0.0336408879320909
0.0256068817651558
0.0312323832423456
0.0271709120038374
0.028506782404615
0.0324215665537931
0.0257293427695417
0.0320374986860508
0.0298034291056827
0.0273553360419728
0.0276959994561446
0.0272717988455685
0.0282235608284006
0.0279814472957825
0.029903155236445
0.0281810134007496
0.0292247597066154
0.0237809424613016
0.0326818372043264
0.0236299638079512
0.024642329032371
0.0300500808369859
0.0321334844851658
0.0262646085508929
0.0314583731091787
0.024449744443579
0.0230698642406736
0.0430016252278787
0.0251484668909703
0.0349970739144246
0.0262546577996409
0.0305582692190723
0.0277984157367205
0.026514336741065
0.0254482953392312
0.029649477070198
0.027940735414189
0.0274913285686586
0.0272780720988469
0.0296298904972903
0.029718234337849
0.0286808894439227
0.0307061980220392
0.0269084807345323
0.0299239914688572
0.0249928707551012
0.0356092538069624
0.0196171147671028
0.0298617456543083
0.037012270563044
0.0319484528405889
0.0329181318713275
0.0287158405969507
0.0316731131610888
0.0264243553212326
0.0317373746013819
0.0268859119036139
0.031310688444926
0.0278450247225102
0.0327950103230131
0.0271502305824009
0.0326203863023943
0.023652792133985
0.0349758326194598
0.0251059878090109
0.0294623440321204
0.0237318332368098
0.0324334437610636
0.0199727695201483
0.033668405528503
0.0170683828411734
0.036956702428417
0.0253629817123869
0.0383673168130488
-0.00027689389729127
0.0397524893148863
0.0479797238521212
0.0268125389602456
0.0418637154449269
0.0237631844907834
0.0332487651561815
0.0257974482082804
0.0293941221241657
0.0353237593254272
0.0332066017307888
0.0266931832652197
0.0280255549290561
0.0298087685576764
0.0361427457504198
0.0210744117309706
0.0186889308263269
0.0526830005414608
0.0302186522053169
0.0362581315283518
0.0296144648271452
0.0129092082202376
0.0528724706324265
0.0259830165421415
0.0353207187262438
0.0309418305445857
0.0340482822859821
0.0307463524068561
0.0349476893849755
0.0267593955002695
0.0364292844575428
0.0340270487226878
0.0255028704508703
0.0312544196377643
0.025964457846868
0.0331037252405851
0.0271827128678524
0.029561835233012
0.0411986129470996
0.0305437479058639
0.0361439657694095
0.0350117659110804
0.0336703965657808
0.0323173819700315
0.0354901670705021
0.0271545663635579
0.0286072254613795
0.0420071016089326
0.0244288651521924
0.0355021432980008
0.0433361437561843
0.0301598661863362
0.0357505992634161
0.0266617889087798
0.0432318127400947
0.0281315768588799
0.0130891752656272
0.058478453179491
0.0226082974371607
0.0620989854386549
0.0257203582669793
0.0440449962709263
0.0227278209764989
0.0482802438649337
0.0130239781811924
0.0544377348187352
0.0304356922365765
0.0448851378312105
0.0279832760142354
0.0316028307269793
0.0415945835979913
0.0381811255712567
0.0398574370630609
0.0368783079099727
0.0289000717043102
0.0400311842857018
0.0465445709509669
0.00762957015203256
0.0545131438060481
0.0408934712449851
0.0515653353308404
0.0498439100958215
0.0103734496457433
0.0684845219669598
0.0392957858801727
0.0461280392750131
0.0354079527852099
0.0414033524925642
0.0406309752017879
0.0169608592007685
0.0611166506432367
0.0460524801362605
0.0359790257535799
0.055268160922347
0.0212862306439736
0.0562139780773525
0.0497933262222625
0.0459656481643949
0.0374017524132884
0.0541214077580147
0.0117955587222961
0.0533841397686491
0.0632683521696367
0.0300780524209972
0.0710161986053984
0.0399870491416861
0.061587958622763
0.0476420960394949
0.0529955160069264
0.038314384182896
0.0638315875252419
0.0491625251790681
0.0453113063427662
0.0330782124980276
0.086576659187706
0.0409576110179555
0.068460246728302
0.0476781137663102
0.0356635501833524
0.0365413671492101
0.100534094439459
0.0690158030209274
0.0734259805740384
0.041255492305791
0.0761132433537742
0.0594182368049282
0.0654686549048575
0.0616592522317037
0.0601544159756421
0.0638987057765227
0.0559791220170288
0.0694274387281497
0.0655219988038353
0.062763842903523
0.0746625331880926
0.0469775690907491
0.0658149334513533
0.0654657789268693
0.112014436920388
0.0533890622786828
0.0943905325785623
0.0822738476768977
0.0827386943801256
0.0766010138164136
0.0711395339621023
0.081741261997678
0.0818250546339617
0.0833016900366959
0.066381563526512
0.0859367690813705
0.0963543237122156
0.0664053645028595
0.119527709582408
0.0732973525825937
0.099333218948113
-0.014964646660471
0.239183396334421
0.111612294757107
0.106970442539446
0.101986068062047
0.0534603311392769
0.176975504250048
0.126674261923884
0.119244173360592
0.130095569206379
0.125637592430244
0.123686324630668
0.140776783813229
0.136139075918501
0.149727177724732
0.154563607554231
0.133865305912813
0.127579850503988
0.189018463995343
0.19225856552933
0.19781752846488
0.166628071493865
0.186096920357582
0.201777257552786
0.188654521755146
0.195574145603911
0.20636306029148
0.15800887552076
0.281662205104766
0.20862438957469
0.23545886528857
0.202013935309882
0.26131848567591
0.217641386813056
0.258728099221701
0.282294030297747
0.245904801542781
0.270704652046509
0.250289107177814
0.284804080907102
0.245277823734088
0.304103484331292
0.29574159501365
0.283369499744055
0.297050324532661
0.296001253531256
0.305020549457446
0.299195029399856
0.306210701032849
0.284660936522279
0.320241223049569
0.277333649150119
0.371929606604958
0.354994198064104
0.29864032877226
0.328788959838465
0.279884093572731
0.347656867089309
0.310756299669751
0.331791427544441
0.354354528471627
0.308835812950845
0.325816217540081
0.316711579408848
0.326934349711438
0.314814122673468
0.32669234988926
0.308584663597548
0.324875668746451
0.326937743776461
0.250246046804563
0.409214935838793
0.320575982759559
0.327752769498724
0.314589964608418
0.323955719333573
0.309218848155629
0.330822916195951
0.293579945342137
0.348630098322441
0.307646464214681
0.329071811879919
0.29420595918913
0.309888421356727
0.33874472570213
0.299787170982027
0.303783732258264
0.298261060784297
0.297809765566673
0.294907008822388
0.237721380632872
0.364399874323473
0.29311932023652
0.295623362063508
0.282215986953152
0.284697073998957
0.283520222561464
0.287935274041755
0.282707312080102
0.299024833711417
0.277925351695015
0.291445655776187
0.278904631617029
0.284149163774268
0.277338561173745
0.284158637227964
0.283281336894486
0.281554941938177
0.278733100540222
0.27799367419011
0.28533997109988
0.279533185654473
0.281346347049068
0.282675433896702
0.275944414625897
0.283097279541049
0.275357806168204
0.278804151135223
0.277058120450869
0.274703834642355
0.278487106519243
0.27802659026279
0.274106106120382
0.273683848427272
0.278547353240698
0.27226343043485
0.276660870368504
0.272933673824317
0.274528125071816
0.267554412131052
0.27365031141705
0.262851611188488
0.270961092796835
0.241878106850452
0.272921720005843
0.304200647401176
0.251482670056446
0.277701631660908
0.244942509268074
0.26931577062323
0.230334943501537
0.271816088357244
0.278076262213568
0.246223586790762
0.250078766764489
0.24378204937822
0.239291911239358
0.2660874898901
0.227960401323827
0.237794256016477
0.219418842399773
0.213891744185439
0.296520932271206
0.175108434243321
0.306611118621157
0.240669068066534
0.233406802798645
0.190779779082201
0.271827600889513
0.220914491922678
0.224718571807581
0.219779608721921
0.219007619225723
0.246627819519444
0.210181228575867
0.228216567408961
0.206105278524955
0.208700999419812
0.243832235304777
0.21086275053436
0.183445698782078
0.245553741424001
0.208479157472956
0.19808084490164
0.246990354806178
0.241138487881076
0.207101158430059
0.19982029228582
0.208007609787342
0.179076046572524
0.228669009349789
0.213673420748354
0.190956541270597
0.207618373958657
0.181491311101173
0.198448014885738
0.182061717166869
0.208802338154853
0.150707591038492
0.21564579283872
0.188038867023215
0.164790037004397
0.194948894215703
0.170130944193068
0.223614808562515
0.185342572902316
0.17478269460893
0.152520068259697
0.216911851417382
0.173703130315584
0.18436148621289
0.178086371566419
0.147823097208206
0.190504795318259
0.171060315577204
0.151346525780057
0.183068872763253
0.146865020012823
0.183139506956836
0.175037991084692
0.190137885096707
0.18085310633983
0.157065426432322
0.16150196638932
0.160426924641443
0.165145223362544
0.159064877333488
0.133676261752788
0.192759160906595
0.12468400450735
0.191050357502358
0.179297848377462
0.163262103475473
0.16718344834233
0.168724996691794
0.161420950682362
0.180702464666614
0.18509755611545
0.191963647888859
0.1526450074375
0.201304833897727
0.181141901308436
0.189099876362926
0.181891613432935
0.19192996263414
0.185055649490232
0.201588518574758
0.202374897696429
0.201707814508977
0.201052641866508
0.219407921573477
0.196230489319124
0.256306983913526
0.212182575994585
0.221526567522328
0.255263680325606
0.235347283836525
0.275409880118283
0.243227134649491
0.259743321928596
0.255019525278101
0.261693621867757
0.266055543022387
0.244912477129146
0.305442413099022
0.283563138953275
0.273836147979801
0.28576643015273
0.285249680637724
0.289502386600561
0.28568263448328
0.319165024253804
0.271425612097758
0.349469749721649
0.297570333311603
0.322048043218321
0.303349607371271
0.307022621196711
0.318185908212184
0.309820178439647
0.315304532459591
0.297952384419037
0.326630885000107
0.330363103562339
0.314651448700944
0.33030184911303
0.320846350280101
0.327411875007831
0.323753901052638
0.327433879839698
0.330335181901227
0.32747580742239
0.338174794747709
0.315066820422406
0.372857925311539
0.376524102542783
0.335755072085573
0.364055962781128
0.345385531238452
0.363038272182138
0.349219864804136
0.364777123385473
0.377197766398987
0.369615292141965
0.372996242676204
0.372139732137976
0.379438460627064
0.38035563943123
0.395849766376612
0.394251984039068
0.371340109992565
0.395308849322636
0.337624731447781
0.444143325057865
0.389017439947734
0.409309777279662
0.397394264214867
0.396236866965862
0.398339204811588
0.40288361087311
0.401071978501106
0.405968535598274
0.406332300473292
0.407740065513312
0.406230068995509
0.401998068359222
0.410268222806234
0.402191533880139
0.412453741244516
0.414061474933904
0.394297193196529
0.404959695348091
0.402657938541054
0.402742249517661
0.400586317270269
0.427857261195865
0.398334987490449
0.404277397238418
0.395910779886943
0.423789876864899
0.41802311702348
0.405933203115152
0.405228530911987
0.415747605199705
0.399348058873045
0.407584952907905
0.385226238475546
0.426763210711673
0.417986450388619
0.411593667904259
0.411085923220276
0.415884379505656
0.418145446682557
0.419545491331311
0.414303832612098
0.418024257879236
0.423569409626508
0.420015475358413
0.420044101725253
0.420931694888558
0.430190070992236
0.422077421624118
0.424540817446563
0.424363476783286
0.418571003495357
0.42100781871767
0.413503376718099
0.423085827187423
0.411003309325937
0.408575736124532
0.398743342964945
0.395245684914604
0.40054744300416
0.405414501591648
0.400723702018762
0.378771581531087
0.400020664462289
0.377201604512996
0.383126481421301
0.374069898281705
0.376973294110237
0.371265614287725
0.374103933264817
0.368319120531296
0.369997375640128
0.361051789661817
0.359677537622607
0.363229158841641
0.357837756088964
0.359565511369376
0.357151253476507
0.354811512060411
0.354643470946843
0.359412359750677
0.354416049492116
0.353220408546897
0.358369085806617
0.350076919168323
0.364411536528575
0.35523254933471
0.358896740271843
0.350358804045614
0.361098257749687
0.351558688755313
0.350690766615269
0.353081083971181
0.349883111756529
0.351020078881659
0.350604658144425
0.357159330277508
0.350664774654457
0.3535914850307
0.349647815664675
0.351140658925465
0.352143922014678
0.352957945239396
0.351083425756321
0.351413499077325
0.344739239045776
0.351956418751658
0.345971693419269
0.351895584282092
0.350299063900911
0.352966863931395
0.348844441384907
0.346531758474502
0.349035917063669
0.352523323163295
0.351413131298028
0.346259304091827
0.349950841685077
0.34847732233377
0.345467043238576
0.349572753385713
0.346129588811922
0.347387510607435
0.34431945367764
0.343422787509636
0.339581333135064
0.339532193484455
0.33509577422773
0.338205504818036
0.332874423085397
0.328255475540025
0.322896903876381
0.327348099173597
0.322013381650864
0.314439862408515
0.310979724994512
0.312591627832652
0.308926213034985
0.309469503796353
0.307243399589849
0.304989723869214
0.306864260939749
0.304234541521352
0.306125198985754
0.301335063656844
0.299738457734488
0.301163938344309
0.302957265563167
0.297909776590134
0.300046439736785
0.301282727771994
0.299614623393962
0.300131104965942
0.298313093443489
0.301535047341446
0.303627964300764
0.303047606696189
0.304531288048963
0.306302048297217
0.306977845804993
0.307298945298172
0.310642681042333
0.309987083330556
0.315043169121305
0.313317107379273
0.31340000217608
0.315983260445578
0.317980829002002
0.315523831234601
0.317726594889629
0.3210611624407
0.319892072181968
0.321717580808916
0.31829604642129
0.318683411555718
0.319527715915279
0.322240567664088
0.318843799285516
0.316461826068931
0.318699179488484
0.316389759765552
0.318209257513181
0.31607277003225
0.316315435208607
0.313898790462547
0.313921075353958
0.31330985603541
0.310193313838729
0.312228647990466
0.314096857156007
0.310897401460591
0.309177629020506
0.308789917794982
0.304191420321441
0.304990087275682
0.302126993358635
0.298280740771874
0.304481824036746
0.301867443362795
0.297529132994625
0.300138824355918
0.299402808680442
0.294876688020043
0.296475313723276
0.294327565404594
0.293618403825949
0.293645103153493
0.292787559072275
0.290610202076711
0.289681787613149
0.290167786125761
0.287260746169137
0.288465416394101
0.286262791111684
0.287230944909193
0.284110450464571
0.281372420655182
0.282281139084164
0.279369494980748
0.276144206422966
0.273810477483859
0.270494049399328
0.269020457507575
0.268185855879262
0.264184277643317
0.264540228309068
0.260674729815338
0.259103894937645
0.257080149984059
0.258849118369843
0.258758000844927
0.257378063439
0.257346124201705
0.257079529457214
0.252238793389236
0.252506822981031
0.254645358973247
0.251076049659264
0.252029447208879
0.24907658608088
0.250128201274784
0.247754227746462
0.244959191391311
0.243002530591956
0.240510297092372
0.234805638255199
0.233068229850283
0.230617189152822
0.22976910356866
0.226040059783161
0.226743296509271
0.227214030372222
0.229555940965731
0.23222487845732
0.239194532598896
0.245286803146621
0.249854692615119
0.255413590597741
0.263689919824156
0.273685895986671
0.280089549278487
0.295126025582192
0.307145119570208
0.316096556122094
0.326585187302524
0.34282079815371
0.357198458788508
0.365206610257675
0.376085619035071
0.388604741479335
0.399464261464
0.410955829640508
0.420128193503767
0.433187525063081
0.441108561072742
0.453827633759507
0.458250123959022
0.469787436284303
0.474523561355455
0.476725156849
0.489899822922341
0.492717543402042
0.503331786485505
0.503144216139878
0.515152262121553
0.51377363837535
0.519624483706262
0.526151258924435
0.530284050140715
0.530105885198515
0.533893676174656
0.531011925301825
0.534991923359445
0.530914318151272
0.533593441366229
0.534170566460374
0.538788545627051
0.53669373905834
0.537329306951255
0.54562810401861
0.549214799434664
0.545530242016252
0.545512043642005
0.551870806740397
0.559072011872723
0.560488388235075
0.569248620183594
0.569851206340176
0.573629793427159
0.582108466418034
0.584777202193772
0.59392142521546
0.596056346075947
0.605972795751904
0.610694138226906
0.618140425528209
0.625674369120285
0.636492233446815
0.647961604658763
0.651420560452269
0.658560549776335
0.670673296790765
0.672841695275862
0.675715967185048
0.68108772740774
0.686992341127962
0.692642934253908
0.685564835543912
0.695687406330081
0.696591873276779
0.694190546990775
0.692324519798704
0.684707969167973
0.68365539579473
0.683054548528409
0.689029419579463
0.689481794361717
0.681938606613867
0.692704955201806
0.699829472240413
0.7174709317265
0.722958816922797
0.736763899175211
0.73875834937893
0.75344226761855
0.762170641875515
0.775319383559381
0.792628293329555
0.790232330096689
0.81573736100121
0.829635485759407
0.839220141594387
0.850176210430787
0.852113414382424
0.857869499898163
0.87578716703396
0.895531363750734
0.913337150601085
0.920559098469449
0.94737331316183
0.948419114952864
0.962096128683
0.994692343210879
0.994452485621536
1.01760567286714
1.03867532900414
1.05933926485884
1.05807905557699
1.08627753003249
1.1037334450716
1.11802359946705
1.13880195704157
1.14752057301411
1.13549977051538
1.14935401288925
1.17692939576745
1.22003611367964
1.1752351178795
1.18337643593289
1.18482809266696
1.17935396176646
1.1702505075177
1.17001570874841
1.18564172195957
1.17841955727298
1.18628062155242
1.17121108607129
1.17808723401868
1.14909282963941
1.15847424270458
1.17694105580254
1.20170518506511
1.21173018306937
1.21898970151728
1.19113414093694
1.23513822569909
1.22522223313642
1.25721927647826
1.24055438278951
1.24141137601339
1.25554331468882
1.23277364723825
1.30347673203449
1.31984289934716
1.31324986159591
1.31357481388393
1.31932241283834
1.35133731601561
1.31723330612855
1.31308621913301
1.34343131102622
1.37055590787124
1.33350325769266
1.38193375686293
1.4113935241847
1.40410049431385
1.39069525218537
1.39977594200972
1.35763014672243
1.42288354137432
1.35230684541505
1.37243849685763
1.35911794045648
1.35366065211563
1.40082233770213
1.40187091366244
1.37403334164146
1.41716115515763
1.38815152439244
1.37312388526422
1.37191599257481
1.37957425652072
1.3356542814208
1.3093173459059
1.29658555198393
1.32615348150427
1.30112331644834
1.2164865318027
1.18705394908253
1.14098010905712
1.10305925637474
1.04758380399886
0.987389085405462
0.957725896131029
0.966948203030836
0.896043488477642
0.891267652687966
0.871780697904065
0.843766119525954
0.830705347860259
0.816159634897507
0.811922563733206
0.803910684699351
0.800236570903502
0.785143135881857
0.781811537269564
0.7813460760636
0.762930458343113
0.748656339041641
0.743988337698456
0.730392679140575
0.70876446498745
0.706677459431307
0.694718171258261
0.677228395172328
0.663645215189934
0.644647262117946
0.626354195850087
0.605664862298219
0.576899664298244
0.568202415392874
0.538763086187482
0.515267964076421
0.505457379130917
0.476296965940062
0.449565991760815
0.430455791338369
0.410051222022104
0.385000630821069
0.364597712144438
0.35105898677133
0.327369943873268
0.318350218257367
0.304665659653317
0.29943757414933
0.281428538845296
0.273359425019199
0.265369223957657
0.255983285911319
0.247991216844752
0.243090474596821
0.235214581106611
0.23439228518514
0.229923008377914
0.227178638706002
0.227225138258409
0.223487748682322
0.219193187350153
0.220613393251192
0.222225829225569
0.220772354791205
0.224011068043593
0.228400508499949
0.226402184497624
0.229185540874372
0.232529778513533
0.23279822160297
0.230131644422764
0.235113902137603
0.229117546793817
0.228549799754408
0.226210755197473
0.22274052636196
0.222015087558666
0.224451509954553
0.21790722503245
0.216384632956654
0.217186312848064
0.215336255922763
0.208926600164798
0.209360712491048
0.206615822489845
0.210485594046074
0.211589294867564
0.209183901549796
0.213030825370217
0.213083737969847
0.214696301015795
0.221788052547278
0.227911985086584
0.217491005289514
0.225196841437638
0.226383379908089
0.228499101303277
0.230217808903288
0.234523062673079
0.235913573248361
0.236827046248593
0.239383014421822
0.238694357390713
0.237823118029234
0.249871622302529
0.248369709938889
0.247530411745263
0.243541077169266
0.243179228071641
0.24653547961988
0.246843640227001
0.251820498788059
0.255447513875287
0.255520987467006
0.264441431838277
0.265135251378874
0.274585020769343
0.279742462921644
0.280144370866025
0.290549247165925
0.294586421220494
0.30910522551394
0.315783151111113
0.320655913538587
0.332809658654612
0.330324323217157
0.345133803035285
0.345915904486883
0.346791537389545
0.342746228375922
0.336056234443941
0.338082637887085
0.330749453202919
0.319552325570093
0.323676246473096
0.311794108686266
0.298736514880365
0.306931891938779
0.302961738570844
0.29579513908293
0.294832390437738
0.306919067084991
0.299231392437325
0.303282568750751
0.297248226016369
0.300126754031458
0.292462837816887
0.293542496303674
0.296028067145689
0.288822479382404
0.284769382229899
0.29247106444428
0.278395010519128
0.27860095533459
0.274633755334998
0.271471588146888
0.269299616753462
0.268868311480658
0.260635489631991
0.26875088841572
0.263639800758855
0.254264554495279
0.250082196762363
0.249695824943904
0.259359123806268
0.247952108810576
0.244509763746535
0.250735847623588
0.243331889327433
0.248791269314809
0.242910666361554
0.23882244104721
0.235362001515835
0.235775146480819
0.235509259940012
0.232908545678025
0.226438832497552
0.234687603007766
0.22616795588347
0.218789112438514
0.230923478926662
0.226834863390428
0.218597441908372
0.225191895445828
0.222730338067962
0.222081986511667
0.213087225405396
0.214305160959587
0.208134692251665
0.216983437222766
0.219942579687614
0.20725249192084
0.200447477497405
0.205435391083293
0.207978363329471
0.209260362577586
0.205370213365294
0.211878646781076
0.201686036889466
0.20333009176188
0.196146963321141
0.209314120221795
0.213861134903835
0.208616497255909
0.21250555458143
0.198651568043554
0.204997479252841
0.222558629706812
0.210077928698449
0.215815704652008
0.218366084462873
0.213397633662059
0.21687381376967
0.228300889116823
0.221939762148228
0.224635051847813
0.236366646990704
0.214917139147095
0.224838192132176
0.23199201411236
0.223547122263784
0.245483407289746
0.257844274137987
0.24639187541936
0.241164134982663
0.251758960813441
0.271151408084891
0.257797804103643
0.274360825028394
0.287929559192155
0.284975160860511
0.298729004833989
0.32421350559378
0.323145225568141
0.325739904942618
0.339316236925844
0.358757289174733
0.334159980897959
0.366799327200981
0.375233747745003
0.365815837017233
0.4033712208477
0.377876238104639
0.398168881576518
0.398213791390033
0.423940154708165
0.418028093278367
0.41009606666062
0.398960795235863
0.397458931361877
0.412067759202628
0.4131022851098
0.397739038824263
0.391579499667319
0.382165618168124
0.381523422572447
0.391692749631605
0.37831856738997
0.377368385011854
0.388958929422408
0.39260389395302
0.380609420285985
0.397579096210229
0.396168251121515
0.367186035608994
0.356523707603914
0.345709315875988
0.376948353126598
0.34135650887478
0.365667595591632
0.347592990339618
0.359763572841119
0.341962579395001
0.346429646953946
0.326535188611122
0.334910653507384
0.328909411909749
0.319889323545902
0.320629505830022
0.332302851999534
0.328985682065302
0.329473438559507
0.30888090085302
0.356853656999743
0.331083814323275
0.355173202871554
0.31287532602512
0.349644895818187
0.321836571989363
0.344961977131101
0.335448094667645
0.340918700873767
0.327151819193874
0.325248186517382
0.329995061239442
0.378841991128466
0.349160486307022
0.33389746597686
0.35811646903411
0.350210554801327
0.347139213222653
0.361180009959603
0.323310501409643
0.351286193960855
0.38247162337802
0.377601420712473
0.370630772136129
0.360972471863384
0.335664038858432
0.346506061332974
0.340782708042976
0.364197884507508
0.373542026894135
0.378968316091067
0.366055565706891
0.4140850249711
0.431742410278015
0.348173654942774
0.375371529768068
0.465058075694987
0.437729868048545
0.425502743610257
0.429444792053087
0.427923820723156
0.432981207812602
0.444314220738399
0.439317886754572
0.587271931292856
0.48552528644898
0.486201626953311
0.486665025094375
0.525931804330827
0.520336884995138
0.487380796509611
0.464547316182601
0.458458540999918
0.424943902164884
0.462439659192027
0.446516224958279
0.470159648277252
0.488327226655703
0.4697977058076
0.409149858010884
0.462969691333175
0.434903366463017
0.421986691668614
0.477883034720192
0.525156151436484
0.486553567375164
0.486866471231269
0.3873346212238
0.462877233007814
0.418744312076805
0.471725492538148
0.458086031561613
0.513470886140169
0.461125314759857
0.461429709080384
0.593783475117942
0.628087934734424
0.489992415265832
0.502632527923636
0.334914613827386
0.438316250168329
0.455007440678179
0.385849492552961
0.441407968886044
0.604928709873021
0.408148030616456
0.367650047783539
0.387579448548028
0.591330334844334
0.482012417581239
0.260933254554959
0.305112588010527
0.680906149100796
0.591762828258172
0.761891986203637
0.52154264489385
0.554876831866846
0.851168721676277
0.857696090226569
0.805095919854452
0.334453275018222
0.347488000269409
0.977388378047874
0.538478440694855
0.609048744411763
0.409547023909237
