3596
4000.36533379555
650.420452594757
1
2
2
0.0704102013241399
0.0520861053819101
0.0690523713914384
0.0472676864636539
0.0791544889646393
0.0509752436170938
0.0843411432324865
0.0559345677131812
0.0660747578212685
0.0592564457442182
0.0674240495397427
0.0584906029219753
0.082063852557198
0.0426578333857683
0.0651946956121282
0.0519882938050728
0.0623240797928594
0.0450529640678175
0.0698104110821848
0.0513000028163726
0.076063414218889
0.0654915198808852
0.0747865346168222
0.0537922913003316
0.0695621626472844
0.072951839001123
0.0666429627850907
0.0470734811143522
0.0862399225360955
0.0548371122248267
0.0743161491704853
0.0518229188078673
0.0745167790664028
0.0503825040152628
0.0795880230155811
0.0530934118333119
0.0799548136010776
0.0468281311561885
0.0791235528816633
0.0511179488506588
0.0823784688428215
0.0537172181734901
0.0718467714336351
0.0601859249300524
0.0750734065368787
0.0514376860240931
0.0712070634109207
0.0533218446580835
0.0657166560161888
0.0490933826138404
0.0812991877779374
0.0418457449074209
0.0764093727404225
0.0552527151799051
0.0644846767231248
0.0647346343351673
0.0714016778535364
0.0545633352724228
0.0743999864848458
0.0222493622381746
0.0838059091845259
0.0620437028963865
0.0623531893601664
0.0534175333768929
0.0674164639775166
0.0563082570639903
0.0567502615629694
0.0515937619988829
0.0614680445653837
0.0533291336433792
0.0549420834586301
0.0646131719636977
0.0904164269402501
0.0520411207637304
0.0700645888433531
0.0493518572867443
0.0650769827516679
0.052040220637279
0.0451690565652865
0.0528226586932017
0.0629743195406934
0.0551345952518011
0.0677304563454374
0.0506283314258291
0.0605914027052726
0.0697855032422479
0.0606681596459117
0.0295812425175865
0.0876787704770006
0.0640316227438971
0.0611337409067404
0.0485220956658083
0.0626057092666351
0.0450356908644885
0.0530734420033357
0.0457085133598463
0.0635712091895642
0.0582457945326049
0.0559508688913422
0.0464483829394418
0.0648450012956275
0.0131535662333455
0.116809581688658
0.0172703830965139
0.127535278548605
0.0523672566848049
0.0288370266141845
0.0739782688401275
0.0804407390169588
0.056013348202487
0.0563546598116377
0.0561440130629033
0.0567957035727165
0.0563015117409781
0.0389701216550954
0.0520958482256686
0.0909847707706175
0.0633652012718155
0.0554501959142141
0.0390452041494455
0.0224709084049833
0.036982361327332
0.0959950264993708
0.0446365488231641
0.0701514074719495
0.0436899712492547
0.0273100298355642
0.0619655705225588
0.103564518250612
0.0529282341572935
0.0557658227611189
0.035639740816117
0.0634790453050486
-0.00160894145846724
0.0990798420028953
0.0502295467786024
0.0598513583888607
0.00610768436678453
0.0669982359880673
0.104650001833404
0.0738057272161258
0.0458264716961307
0.0395551655965971
0.012351956350664
0.111711281245187
0.0519198917626117
0.0373466162722729
0.0462202104931084
0.082615374997879
0.0341242432740511
0.0604228294983674
0.021204844820553
0.0716347517863899
0.0459181020925418
-0.00505395248941052
0.0527601788388677
0.133900510004379
0.0142643387413883
0.133728697206503
0.0319584619930418
0.083311014616461
0.0456810203319765
0.062413710737813
0.023256232008145
0.0623715408259868
0.0299590056651804
0.0430838308971412
0.0669630916376937
0.0423460810393984
0.0225585498871573
0.0858505551974868
0.0434972336818842
0.0235971045257008
0.116052539901434
0.0709460663120252
0.00434488465367447
0.0875927711735319
0.0609563063018347
0.0442128917438819
0.0366522759394466
0.100233948934409
0.0460890807542024
0.0553478789953393
0.0349166625669132
0.0492505579750365
0.0412168642343023
0.0738762475535092
0.0421992962761289
0.068127744830465
-0.0112402050928804
0.0498538429142645
0.0694036818494286
0.100972264023271
0.0400610189989889
0.0630826313565755
-0.0267956307238469
0.0820398515627272
0.0696194854074618
0.0646900538951356
0.0435188276826277
0.0566795198829194
0.0323016769386735
0.053069742740035
0.040980907921663
0.0517951694190961
-0.011785503985348
0.109815886294284
0.0627070782426575
0.0634494481912818
0.0298108054362779
0.0538431601298087
-0.00562468127401772
0.098815267792133
0.0793173600215484
0.0524154899350359
0.0521775574295397
0.0309218747585344
0.0405939849211702
0.0874848161231968
0.0441087741103528
0.0631978641319515
0.0463144749158245
0.0681454754195967
0.0461932914519058
0.0610541029703836
0.0469508925038813
0.0529072351446955
0.0398697251066082
0.0516544799809649
0.0422402914453593
0.076321523625368
0.056568095665874
0.0609204898690351
0.0506950896398395
0.0382956721944602
0.031929216358951
0.0900423317858015
0.0533804654342114
0.0656985230265883
0.0380354381939779
0.0599695194418831
0.0422482700062584
0.0626638619818314
0.037902813283496
0.0610817269590358
-6.46424153867228E-05
0.106833769447981
0.0456485109779229
0.0648027480568837
0.0163538692661329
0.0722475520327318
0.0655970617550361
0.0633430150675331
0.0467514832839458
0.0667282864046344
0.0351504796843229
0.0351349118001214
0.0691675753549241
0.0682117535299972
0.0365377283253828
0.0676840093341266
0.0521586881035671
0.056825840152151
0.0309768718821577
0.000432406057656316
0.10604296394889
0.0716647412834173
0.00470492945965927
0.125049643015121
0.0703191141668636
0.0788412766723346
0.0386306588155378
-0.0388509124064755
0.100774472141262
0.119398786515655
0.0560662957095659
0.0505416916117503
0.0574057132795249
0.059372156397834
0.0380572633698385
0.0639990732073737
0.0341910446825028
0.0896403055161013
0.064231269259606
0.138861748694673
0.0193155341025782
0.0753428746648898
0.076723616981623
0.060486593368058
0.0550745120949092
0.0619686969960649
0.0428578329424015
0.0742008832782008
0.0616344295129894
0.0697171226857358
0.0620190390126086
0.0630026219385165
0.0886809131049855
0.073620847941905
0.0473978124449562
0.0590877589037285
0.0643728048571034
0.0654942168920489
0.0667678684727238
0.0618843008078143
0.0625147230039795
0.0497430243014054
0.0116750455582203
0.131117557622955
0.0687063077116168
0.0482092226928457
0.0884834324001977
0.0791316606778473
0.0638326051028697
0.0729548642590646
0.0632483042165534
0.0717109453800045
0.0516108611316237
0.0511470207495551
0.0916086708866534
0.0869179170117888
0.0629440667787758
0.0731789409277595
0.0621947838711522
0.0783242394284503
0.0675185247866756
0.0699762908414757
0.0603878564709601
0.0791045843793253
0.0500496996016394
0.0836010353635981
0.0862206619356252
0.0583165365571056
0.0724296493397473
0.116126299598071
0.0702504261201001
0.0874866724082327
0.0705431916145684
0.0892060371036635
0.0736744811727768
0.0886798626462946
0.0705307911531108
0.0829509435996442
0.0928793107503745
0.0971784197328782
0.0526261093969151
0.0684047088282643
0.096133812339039
0.149773557908579
0.099723619027473
0.092977496962145
0.0429329093468456
0.0940576411794938
0.11730757259931
0.101902469590193
0.117260608195598
0.101942753800427
0.100428103467692
0.102699916871261
0.0903430191178296
0.111793703040954
0.102058641555552
0.106360279968173
0.101724047452784
0.106837493451213
0.107949491394309
0.112909217204607
0.0749817122046234
0.150085994593238
0.122330835844241
0.122496506343898
0.119978141215392
0.106809780829503
0.112549207746729
0.159658033157359
0.122447324843971
0.149977375688367
0.114361507112007
0.181888808310952
0.130572833198449
0.143294230530616
0.126839843217219
0.149305260724758
0.136236208695082
0.151783278232549
0.143496093779384
0.152416512343064
0.143487622972722
0.166350383151491
0.139470846449596
0.153377277183344
0.141027909930742
0.187752237413109
0.160749626192646
0.160634091834252
0.141663771374878
0.158892790772289
0.203904420583419
0.231762740507615
0.185462134873453
0.185858191384768
0.186113003906017
0.194227328863002
0.195177245802268
0.185062244449566
0.182357308280913
0.184895570793897
0.197883948884523
0.224342859846318
0.200665311810322
0.233601277777693
0.192388477967871
0.2137869624241
0.212512665625326
0.218079547018181
0.237660959542792
0.242470031612747
0.211994696158059
0.260656273398573
0.264705270492716
0.231634584913005
0.25450251455535
0.25491679738692
0.244364010255544
0.255532101277582
0.244773804879752
0.263639944689173
0.251509397925115
0.283358041454723
0.249675523634208
0.270013772185517
0.277168301226305
0.287681165427092
0.269295226717854
0.300383627350979
0.279936084474126
0.31349399636856
0.289032558320183
0.291404521080802
0.277073058326587
0.299950190573496
0.309872569047279
0.309251755731406
0.346776288689753
0.333254809289972
0.313361562076045
0.340105544422574
0.335081278192016
0.357975722200475
0.33229433077827
0.353524554978688
0.332200916419537
0.344422030600906
0.339382032785233
0.371951017679462
0.359939306583825
0.369557345968173
0.362448525594644
0.368252465011941
0.366095043278445
0.371807995807488
0.371533517327833
0.399707378107902
0.397657571766152
0.415345494399583
0.424029871282192
0.41889480294311
0.407229507059696
0.411525336423504
0.428686146725918
0.432551270594561
0.427493621746383
0.440147380542172
0.449646204955318
0.453647981327216
0.442526232823379
0.440632312608372
0.446992369346268
0.467805326388422
0.470439213537846
0.477501086377558
0.463455585476046
0.487272799183589
0.473951623038293
0.481655343963651
0.46348335645115
0.495867205059175
0.47648675016305
0.514112366217991
0.487990115117327
0.52218328542194
0.519099897565855
0.5265167160343
0.497561371779449
0.513798317845919
0.511294134678191
0.537883355604364
0.542729928088289
0.559273714507508
0.579016000119491
0.576516928509577
0.535095465330811
0.584470512211319
0.555393262374947
0.572356132150877
0.599742977426818
0.594568706700906
0.59281331819853
0.597984340873434
0.569426031192161
0.61126219573712
0.590275932532289
0.593410067874268
0.631561135231192
0.649857395804539
0.636547825620815
0.629979909206143
0.65712341399622
0.676869542147502
0.608034926009232
0.644300192326654
0.684309110311768
0.684728630015161
0.680011308171829
0.691732258866358
0.663494433827914
0.680152732958227
0.673087344684149
0.683986964810547
0.683768454775081
0.723779399328617
0.723275527721236
0.708019838778851
0.724488290927972
0.726395283248614
0.731028657538823
0.793408171448936
0.735811826406033
0.779453768301748
0.805428872639367
0.75448378715163
0.796716784600059
0.820010841005756
0.773807042332051
0.773996938948018
0.766472233281274
0.802455047247674
0.807649953024874
0.789371854995511
0.849235573873218
0.818231891194383
0.795745250479032
0.844309340780096
0.833432312583032
0.847601146998172
0.882473030912422
0.844248669770607
0.79634850413833
0.857692341558475
0.846274981556053
0.81129594959502
0.809327703950243
0.876539541340267
0.924306638407465
0.921905959030777
0.978431089670607
0.884452504178617
0.804317718989162
0.853436024564517
0.880682141881624
0.883640593050792
0.921152051436326
0.966720183105752
0.918674917047633
0.923157817089176
0.920496115437731
0.923971133881082
0.934882359099804
0.960364408274459
0.931663578047915
0.952337632969101
0.99798260831625
0.954522044424797
1.00777229707842
1.01305671556585
0.995647099449739
0.952404962443539
1.00709999242302
1.05998520479805
1.01366862148962
0.992858662961846
1.03506396490657
1.08660767310682
1.06377367079817
0.977734288414372
1.02016161139612
1.04055236173698
1.04483899054706
1.04785014624219
1.03576612154952
1.06671864794625
1.06655606901283
1.03809874233598
1.10233775168265
1.07974450652288
1.06067138531416
1.13209670020345
1.18825553878919
1.06094207968769
1.09568960469929
1.07178668982425
1.121757598663
1.10440178298299
1.14700182771796
1.16288266087685
1.18632667183393
1.16277601339205
1.13577059520164
1.13786773317864
1.18415795718314
1.22940837088844
1.13926430774492
1.14551097642519
1.20458146697383
1.18210159102665
1.15101453846088
1.12155490123473
1.19016481247079
1.09929679267431
1.20974581356233
1.1287076614744
1.13035190637677
1.26048457146301
1.21435070568884
1.15165987819213
1.21966051392858
1.33105022386744
1.29443480303571
1.264726470803
1.24374966461786
1.16116420323589
1.23648450766765
1.23544578962909
1.20662484332037
1.20005402802627
1.28079929413072
1.29561068494938
1.3666296498874
1.21812266296189
1.17528036560025
1.26749477895358
1.23363660011379
1.18467407823309
1.26828994699028
1.33857297592495
1.30016010369464
1.25442163559842
1.36543211943379
1.28892388412209
1.3533029094047
1.30114181413823
1.34986433311618
1.34339463871955
1.34117035490092
1.28640011849224
1.53579079212183
1.3757461037493
1.31937364985973
1.32380460431651
1.39982868830731
1.25820971090689
1.38438021679099
1.39828151551705
1.36706789555761
1.29766519375779
1.36926687367375
1.30259828424661
1.38197292861193
1.33452939104508
1.38799991904932
1.3751906964788
1.37741569367086
1.3239310591753
1.37020078482906
1.3097927790717
1.34487546023659
1.35502519703444
1.57864827731988
1.31356971061022
1.43394887244908
1.38697524777726
1.47953902685538
1.40911721699341
1.369560911656
1.25190405281158
1.38625015724403
1.34985807857937
1.32393234122048
1.36194272543609
1.44674827062642
1.40294906245988
1.50824544823444
1.26912942435938
1.57033735095085
1.42486416504903
1.44866599380522
1.36070141973001
1.39247236128489
1.37122040150774
1.33865591983734
1.2910862260147
1.38658470456932
1.41991443873885
1.48642625452845
1.4173145376301
1.41308351585353
1.31278876513609
1.44190893063449
1.51346943348359
1.51044186387892
1.42240702641492
1.52570991336184
1.35769627702173
1.47271660972568
1.34502207218332
1.49499448576098
1.3527874181915
1.32239889799045
1.44671006594249
1.36563001676682
1.38390176939784
1.47525913013917
1.39259235767272
1.57905741803045
1.52018942141395
1.36109676453026
1.36260266804336
1.67284906499971
1.36025212979335
1.41367135522319
1.36635421099213
1.47009759165876
1.38322049772744
1.46952175805035
1.5119974434961
1.53480075289591
1.40225252377486
1.58282936097467
1.37314100804288
1.3994211450823
1.48154737166565
1.51593386308006
1.2895484042752
1.34317898143584
1.56235741223117
1.38850305270847
1.23004607745116
1.43115985549616
1.49192979938509
1.52022536486852
1.45424372632223
1.41853822112263
1.40018574079324
1.51367440738022
1.33469204044558
1.4870898261306
1.33322391337115
1.45623900258947
1.38619293515077
1.57055145220237
1.43950120547518
1.43693775309345
1.39993334694668
1.39387193471557
1.38311966426927
1.47691612603958
1.28972329863944
1.46643842646083
1.42139126972736
1.45872077644092
1.3960887835086
1.45989109147139
1.3383128207867
1.46083209249747
1.36660386019167
1.46432588088078
1.35167927848784
1.46837021093598
1.40334502245387
1.49744433758849
1.53004348854727
1.41836607047626
1.37041731215222
1.53687307896437
1.52420196397946
1.35508479958316
1.25784886142434
1.60601271697168
1.43530475273969
1.36740900378539
1.3091116853013
1.5414409641306
1.30850926631784
1.39534437597735
1.25784160693992
1.29157451916679
1.38182302408245
1.35416175831781
1.34390324685564
1.37801069017213
1.30846303652517
1.43328753600849
1.33313216882635
1.34092042940937
1.38474279347356
1.45443891643668
1.27922041356705
1.35812575633524
1.34948237242589
1.45485054616991
1.31897628058561
1.48514454370226
1.33099884152027
1.35362075532091
1.28130245088277
1.31746242094677
1.36574982841597
1.37327211283719
1.27455352467242
1.34560411892451
1.28627764154813
1.38958857149865
1.26268428322956
1.35916315827909
1.31974481404746
1.35006735897519
1.22757133042306
1.43074495957534
1.30223604976089
1.28433342247437
1.27862212553386
1.3464901664803
1.34276413457795
1.36822163168114
1.33563792452028
1.27255388719876
1.29567260973502
1.38132129371375
1.24352776772413
1.42653053892844
1.22228732708281
1.24654600428099
1.20376852698221
1.31848172668335
1.20217924462631
1.26623027184982
1.23431600058344
1.25908906952232
1.22202943291419
1.25021786869084
1.12814395675159
1.26343564098482
1.16715681860442
1.24718897814874
1.22020577539975
1.16872449304117
1.1151586624094
1.26065859049995
1.19534654231226
1.170894273995
1.20795099616934
1.19487972750551
1.16619395358705
1.2267959921988
1.16280329439382
1.19126337006231
1.13492325176328
1.14377034872602
1.11085653952676
1.17368360365075
1.07427385922474
1.18292411045354
1.13870544305388
1.09036038603647
1.10683681661724
1.12052500102158
1.04788568249141
1.12399171583084
1.09701605735435
1.15568974564028
1.0786768991718
1.05197777656953
1.06363115249895
1.09342315431897
1.0416263956325
1.070821398859
1.015680887733
1.094869025237
1.02414313895985
1.08060372656492
1.03731599814406
1.09795890826947
1.0169559941767
1.08833105544837
1.00702165699183
1.00380485435154
1.00164159931834
0.997172806282425
1.01924724170438
0.989548129451808
0.982632993743075
0.99924272010089
0.968069536892142
1.02132401356086
0.979088716422328
1.05182860159282
0.956323309459485
0.989841975786253
0.948504219165691
0.995096861874025
0.906006633221576
0.955734762949597
0.935338387195826
0.933269919191802
0.892822998212981
0.949390459046878
0.906548023989663
0.948501001656667
0.88958871101333
0.887706947797374
0.892213770710409
0.950463475115316
0.882680051646557
0.950967239510319
0.879960984555194
0.909033757548932
0.873241058026677
0.89554417472909
0.85365338427074
0.901045322212503
0.860606127519581
0.853835596567786
0.864883814246056
0.885134717074846
0.839700960004283
0.876161649373
0.808118774684341
0.839832921102405
0.825042510545468
0.833887293014066
0.798146380417567
0.812699532172738
0.789215892385117
0.823476441268592
0.791197924549543
0.801171535873607
0.779197839036965
0.772615424267261
0.801291521127038
0.789830127911257
0.7610350646179
0.797991421507794
0.748416162954944
0.774748343940223
0.750915714266961
0.768911012899798
0.765677015110063
0.785146955976119
0.753729227999392
0.786105222071942
0.726346062300304
0.735656379086886
0.717411879741507
0.747612410732448
0.718824195587184
0.727132738483454
0.720270150786328
0.737148816139618
0.686860014633903
0.72042149599274
0.696221696955042
0.707524531884832
0.691931000445455
0.709332671601761
0.67876925693185
0.699849414929614
0.678322193209086
0.694171176017951
0.691470125804309
0.695274019785195
0.662107892699142
0.679819890158541
0.662071714776913
0.666985777003841
0.662133050679563
0.683067479983643
0.642192489981986
0.654680949978729
0.660572728965318
0.659130192869743
0.63943856187838
0.644766050215687
0.634112831334487
0.646078084468653
0.617053718432119
0.650289251687849
0.607919671405028
0.634202054633754
0.600981425406546
0.633599225346174
0.591421703646713
0.600662128679533
0.595930613487797
0.615831182041375
0.598955128508208
0.609397977658893
0.571401509142293
0.613159818673847
0.563838223524344
0.607065349250046
0.578334257729403
0.586674208782881
0.574551933909721
0.581246671522215
0.557650911155719
0.564900101627935
0.55025955065834
0.556603908324669
0.552093093216372
0.55710639316072
0.54211749726356
0.573761670938762
0.546386661095867
0.566004013941808
0.535712860483549
0.550747173560655
0.52058114207969
0.539234060739721
0.535593900984185
0.528161857279774
0.513436395264627
0.532446013770175
0.519333141534088
0.528381683648964
0.503768132136463
0.519435812145513
0.50307666881146
0.528042420427593
0.50131303222964
0.522385997904471
0.501456153052185
0.508797952713814
0.489990683732298
0.505739222347476
0.484938297878494
0.510746302950436
0.48494894401019
0.490965194769445
0.479878240260171
0.493941474517153
0.485803465675026
0.497951412200845
0.456326920281498
0.483920839601869
0.475603363204078
0.493153923208072
0.465725539367693
0.496639439428013
0.454586129901887
0.480302789541026
0.476024029352689
0.472478007565726
0.460992622379676
0.473649064881163
0.46029301458046
0.465491298623419
0.45328281310594
0.467817999346476
0.462586947137739
0.480953213904539
0.477298586299338
0.467712070056805
0.45482143752436
0.481434664967665
0.459824296742071
0.491620160469412
0.455512958159582
0.483284434401609
0.455232323150258
0.478669994241925
0.473550708905195
0.476417621889547
0.462328667633681
0.486334650961575
0.481073283357089
0.495129324713906
0.474670672679435
0.485552336777058
0.478267046460366
0.480890298000169
0.478863363413113
0.501436136655682
0.478537239331133
0.504934304467446
0.481208197672546
0.492675811557025
0.494177740173599
0.506763505049338
0.492509385530694
0.508417853184047
0.495666145127584
0.507895734892031
0.509036064358938
0.516297074432881
0.504075267923111
0.513074720566833
0.506168140991382
0.537573705541773
0.515186055241266
0.536079230386587
0.520465962290118
0.542118432631914
0.519835441823765
0.535562027337252
0.516497554061511
0.54975935488653
0.534116089839944
0.571128696208134
0.554745208012859
0.571047675678732
0.545949466717105
0.576031293334609
0.559879833141736
0.584590099400641
0.567315571389619
0.585331364382601
0.58412318792003
0.591579602991495
0.572960865480711
0.59851782051709
0.58159551354267
0.612072389409976
0.601417457147733
0.599328976749376
0.599263949233027
0.62462966661227
0.59197169815986
0.624395786946963
0.604538439334932
0.630455803417246
0.597494087431014
0.611341262250403
0.610852507417576
0.622128211290002
0.609469002177589
0.613466766849651
0.621998811922333
0.643267504169139
0.617354435668309
0.612591089077732
0.613154171846985
0.627080865077512
0.598112717696853
0.621408084376001
0.594132081651394
0.623162787435292
0.586517965912669
0.606097892952469
0.589914971857501
0.618826070021093
0.588075666999145
0.59739058843399
0.594765499234573
0.625200596232191
0.601168260120972
0.612330021198149
0.593331211539133
0.615847219431713
0.592275141283204
0.635512879653141
0.597035282441939
0.637636629389415
0.611377869680662
0.627926393671071
0.595515219433123
0.614769547267909
0.610031839794431
0.626402825568452
0.604907140284873
0.625019988631205
0.583019382101005
0.619900648279687
0.599826479342824
0.630522130181103
0.611282444211909
0.616128585037885
0.606214659986593
0.61572088090455
0.607791151205211
0.614376270851125
0.600486809006985
0.613799819709301
0.607447187602807
0.60445074661881
0.594079715521636
0.620181771070895
0.600221511161058
0.612635189261519
0.580872005975687
0.609470618899283
0.570820745838334
0.581117522924446
0.577823533307252
0.584196645554361
0.579820157058374
0.582392983001631
0.577141810932922
0.578244244551977
0.563681082699867
0.563080259778815
0.541487837411428
0.557394368778192
0.552595758010201
0.55554778129131
0.540251863690246
0.551486786658583
0.535436414926634
0.546640449055908
0.531475889035267
0.515511683784735
0.521318731849798
0.522001222365788
0.518581074364005
0.512447680420278
0.509008427372152
0.501023787735169
0.493756765170863
0.508722493538578
0.485428094646239
0.496163231127743
0.482132934313164
0.497845350787835
0.469892172175698
0.478205844048559
0.467473977576013
0.477070044410064
0.45988316471065
0.479774801710388
0.453358357754802
0.4713914434356
0.449548250434125
0.455621377291578
0.444329150068235
0.452799532670635
0.448613175272509
0.456091028947045
0.438657744513562
0.435453292697581
0.432710304469736
0.443547347051343
0.434413813845319
0.439481116913514
0.422642664624434
0.430159890673291
0.419954604622702
0.437385683209074
0.419434562111641
0.42212313190595
0.411389596447734
0.421175445672222
0.413763318182669
0.417238187233596
0.403168639182617
0.419064416336319
0.409464995569877
0.419747338708239
0.407106492805205
0.419218207118497
0.402205753079527
0.415615420509764
0.393233037833519
0.393492707194036
0.402478508105433
0.397391177742383
0.387464635557458
0.400725724446987
0.387951215119687
0.404843598564583
0.38337263644525
0.386609614352949
0.380160002815789
0.390353485234444
0.373150203162711
0.392670888439464
0.370732829306279
0.387377793995973
0.372687347106332
0.388026934661451
0.375447061290193
0.378185055483292
0.362618599078008
0.383701810971278
0.370962048963334
0.37339128970342
0.366890048615128
0.373515891301949
0.360242573715175
0.375668875201152
0.362727882438929
0.372053949095245
0.36061895945237
0.37232670307508
0.370332835355431
0.369684077195785
0.349955902119971
0.369657157329215
0.34874316380263
0.364031066472216
0.3489695934228
0.355695264931288
0.35737770893016
0.354420923002274
0.343499152916767
0.354773969437203
0.345788202163258
0.353069886746602
0.346079585637492
0.3579210462092
0.349528628884757
0.350625893224342
0.340071590824143
0.350570163784659
0.334533429434626
0.344275260167841
0.334576003906351
0.34467760362734
0.341414724302675
0.343009768231727
0.335033422937253
0.341706670990358
0.328034906353458
0.337069121818377
0.336362283090225
0.347842420588383
0.33924567383707
0.346639936318642
0.333380743478729
0.33625241600478
0.327655879838407
0.336027490955329
0.332150499918443
0.327678392575463
0.332463476280153
0.335540428529816
0.330366733877808
0.335307680528646
0.321004769323432
0.328082021987757
0.332875775267919
0.33455797897661
0.331677989072417
0.33534215966631
0.318424885132357
0.329744284583764
0.325383947970082
0.327964201763884
0.317922715034467
0.330681835746459
0.32063433681845
0.337422629927817
0.326031797796571
0.328952003120166
0.318790494294162
0.331605393403538
0.323880769747476
0.329031084715246
0.320323942886765
0.327225264012583
0.314946138763649
0.32058795048928
0.318931426809742
0.321460885047887
0.309421673610998
0.323442758733678
0.317048224323804
0.322727799399832
0.315248742482248
0.323421312144177
0.31080573580946
0.316612665135781
0.313193085415573
0.319199065531206
0.308850379302579
0.316977575883071
0.308929195023674
0.309953269391174
0.308093117229448
0.312189456736078
0.303574693720034
0.312036695921542
0.304521893164756
0.307623191593132
0.304953293426214
0.305994016161422
0.296442380064023
0.30481571467478
0.295374914850323
0.31002629160559
0.298528205158397
0.307342360818152
0.295014031486772
0.308868876148562
0.30075616857724
0.298704789013088
0.290970297577415
0.296917156705475
0.293310320378302
0.301162349958032
0.298230775916711
0.301462076434109
0.293463126384605
0.296898768289103
0.293450647633149
0.301550964468667
0.288062616051585
0.293610806150636
0.290114058202356
0.290006699499798
0.286915531984536
0.291187188634518
0.283314077102434
0.288983327150048
0.280598797951495
0.293428984127132
0.286831871640551
0.288134884678019
0.282923539943819
0.281776232983891
0.280287123198878
0.286521725886018
0.274289531832843
0.28203428150677
0.275302677284144
0.277558585473503
0.275358930555844
0.27916359788487
0.274955176293103
0.274105644677398
0.265275796846631
0.273629119293158
0.272695762107814
0.267833469949928
0.265611820395624
0.269620856524011
0.265496359057625
0.274134722817638
0.262486907709139
0.265404203449728
0.258092535822288
0.26688374943708
0.261453402615783
0.265502194696248
0.257594023408272
0.26305672277959
0.257531326731851
0.263022510167362
0.251384102779174
0.263296980475962
0.257235489703715
0.257197174019912
0.252220198185181
0.261645703886989
0.253944155121213
0.255309376263472
0.248756785699529
0.255123360472341
0.247660606380272
0.256309810181383
0.252267697348212
0.250520267153355
0.245690034316884
0.249151672952589
0.246378923617654
0.244065652442278
0.238143944744971
0.249529443809696
0.24414579358907
0.243204957551691
0.244350446708571
0.244008326227871
0.238987459208482
0.24597610451876
0.242086239141364
0.244778671553055
0.239244257205814
0.240316416358672
0.235139474399466
0.242495103705036
0.233398034453282
0.236792789548918
0.234651138281176
0.242584943319343
0.237122938895819
0.234006086428371
0.235086289906973
0.23232771290988
0.23020956104868
0.23593597284608
0.232956884070035
0.235576531258759
0.226173780585418
0.228710041226093
0.230419758001098
0.234093769733395
0.224513695057345
0.226153820949575
0.22574407007914
0.233222420396619
0.228018901695223
0.226250223103424
0.22695566938976
0.22647693828496
0.220217684724557
0.227296211440819
0.223361839513473
0.222223555467543
0.219918937767846
0.219737045245518
0.22232867446426
0.226172817418199
0.216611117855669
0.21898830964569
0.220107964138079
0.223401282073409
0.217414131980157
0.220968479968591
0.22409575964527
0.220576008842298
0.216808676319433
0.223169750840806
0.222272526909676
0.220611633075159
0.215439042521195
0.222287721870586
0.217298227874524
0.216735109125372
0.214720067717262
0.216528138231389
0.218873926816762
0.220231477053399
0.214843544376078
0.215133991645133
0.211938532599143
0.215216342327262
0.214097587725325
0.21332653898636
0.214677901572051
0.214670056964758
0.211097781124019
0.214958022040886
0.210319578597585
0.213997058225711
0.20956940223479
0.207930668897964
0.209238402984928
0.209543498554236
0.208446276987792
0.211512992038553
0.208347262674268
0.210335045225001
0.207117120015181
0.212102415314338
0.204135542196287
0.212186279618338
0.205695065114927
0.204202209801243
0.201893261339424
0.204186935950697
0.208381305621766
0.203227854488746
0.199500900871854
0.203765797864455
0.201458635953279
0.2026594521908
0.200318170249188
0.203615738389399
0.204639187876311
0.20394514362254
0.201210727742789
0.20069533516404
0.201196115740349
0.199512984469746
0.197709302746741
0.204574926042686
0.200694675121372
0.199829909856697
0.196065622480824
0.196669234447257
0.196438860063246
0.194463643171195
0.198185690753689
0.197438360114393
0.195193539397426
0.201701555701063
0.196074439785173
0.198597498153478
0.198190577426336
0.200036281392451
0.196993819102415
0.197330054680329
0.194056154229412
0.193658758035574
0.193779780740514
0.196945859630681
0.189577581711628
0.193904844162675
0.192863353277499
0.192341218614064
0.193733061765746
0.194200477022004
0.193944543157242
0.190464664280553
0.1917271400647
0.190008020996609
0.189932746453239
0.189388089676807
0.188870491159997
0.190892005959601
0.183523657535346
0.183783640546046
0.187079078741797
0.188534288774427
0.183596829676181
0.183157289954794
0.184407625403513
0.183283515759716
0.181178932112178
0.180904528052882
0.180064996859251
0.184336525120372
0.181440947234121
0.181614290288757
0.176696626751251
0.175117656725981
0.180534132977729
0.176739720608813
0.178957043073512
0.179769528005274
0.177256067403485
0.175382281851125
0.179819180262178
0.177632349891287
0.17528821382211
0.17582818155262
0.17036579046142
0.175841622196781
0.174224253036635
0.177505446799684
0.172157034924027
0.171022035227235
0.175576912245104
0.17344629399603
0.170734121446708
0.172809977527707
0.171852304214431
0.169534417824106
0.166942910737527
0.164952464550512
0.167059464792695
0.166435708058415
0.168833092780334
0.16794970530997
0.166996242713578
0.163547623115997
0.164164111714111
0.165739248639897
0.164020974275171
0.162905973095405
0.166605917467982
0.16134617969079
0.160100601444323
0.160130211603562
0.161374828957693
0.161657560896183
0.161978431402837
0.162979089376238
0.160402313852056
0.159653482724966
0.158049000484578
0.160587477109972
0.157847690926103
0.159291414732057
0.158528829082228
0.153848877818418
0.158150351255984
0.153219758528335
0.151366785441397
0.15206108531612
0.155072448434604
0.154040671740341
0.153162755541021
0.153158771728441
0.154314272014008
0.149362642542105
0.148898452639411
0.151876806682936
0.150741599915422
0.148089447406166
0.154146216346881
0.150499470630231
0.148777618087804
0.147963078186028
0.149400545253796
0.144656519207789
0.146184236081119
0.14572126567803
0.147451976323781
0.146771005208782
0.146717300325177
0.14230589439508
0.147249162979599
0.14241061019729
0.145242271731365
0.147935307938724
0.147091968300899
0.142059697618216
0.147615583569441
0.142814037448446
0.145977884894438
0.145503106572271
0.14290516244063
0.139422867437034
0.142261719892128
0.143628345848928
0.146530750902718
0.140088695628053
0.142510511164666
0.1388082459798
0.145829160115089
0.140701597460066
0.140482209181751
0.139242041578752
0.1434746030166
0.140363659454408
0.140559360692898
0.139787579662602
0.140885852054433
0.134694897854478
0.143130147289306
0.141281955673848
0.146023498071132
0.13502163683183
0.140697514059262
0.128883198243476
0.138023085920669
0.137624952790429
0.140286309311649
0.134667592445863
0.139197759101942
0.132448286199817
0.146096383618328
0.137231927570722
0.142397289911723
0.141031229705707
0.142809172437625
0.129548898610273
0.138212658672709
0.13133891346168
0.149327670958755
0.135707454829701
0.147019880759932
0.133652008271135
0.134399261090576
0.117023392311714
0.13726291017143
0.123501727579383
0.140697202923727
0.128665945911181
0.140563729086688
0.121539805821553
0.147830392620052
0.127398553204095
0.147232947260741
0.116641913496347
0.146572320866551
0.119826883595334
0.1544300724832
0.121087958234312
0.152641920499617
0.117626778896944
0.149714411598893
0.11351959011169
0.148475177857464
0.116251409567461
0.151910500335733
0.113564892679223
0.142886008803781
0.113062143687873
0.149661169827688
0.127053543009773
0.138558669029253
0.120693991570413
0.138302043301955
0.133911996713536
0.122395023521065
0.139442313225474
0.122645007535474
0.143597859902857
0.109590208726893
0.151558809083659
0.112951368000458
0.14869411362493
0.113365294089405
0.14295722800552
0.117790284152693
0.134490877778975
0.122169348707405
0.130985299102517
0.122274824048822
0.129826944356486
0.129377254497862
0.12787266772972
0.121601734620284
0.127907639068747
0.122560455932455
0.129398092665874
0.12079154685421
0.128228540678392
0.122152166392862
0.126547034417725
0.120922093339047
0.128347972329745
0.120176529380461
0.126159777196776
0.123895868261506
0.125160437582586
0.120255907029303
0.123330344590437
0.124028777462632
0.127906625158578
0.122766258423608
0.126704521540083
0.120865968697371
0.126659555380536
0.126013856701072
0.125595753843839
0.121475102821075
0.128266067225124
0.122558404981214
0.124516445491333
0.126165135059506
0.129592692785641
0.122972600886107
0.126942322353054
0.124400414383727
0.126396446797134
0.120446490764818
0.125274048965697
0.126329492031428
0.126585517098042
0.119863447857819
0.123287112501077
0.122146149927224
0.125357450848054
0.119365292161081
0.127045375334379
0.122304491364484
0.1258482238409
0.125202197888346
0.122584022412155
0.120733505504835
0.123658488224132
0.125366051084213
0.125367501464558
0.12052067184798
0.123798747044146
0.120878491289208
0.12351758959908
0.121616537370207
0.123533016968598
0.122586416783288
0.124204898211248
0.122971057212273
0.124874495502015
0.122681654711829
0.122484129114867
0.119942269088179
0.124776415422019
0.12171313390748
0.122358327147915
0.119800196270498
0.124188280728634
0.124440936099972
0.122878666055351
0.120008494440952
0.122464806094186
0.122137182580203
0.127574967536119
0.123213686277991
0.124882223674567
0.123594472172192
0.124487760691728
0.12089030165714
0.125946356416318
0.124084748528597
0.123623158950906
0.125021526465061
0.125831976966095
0.11996453916391
0.125038715376315
0.12274658511393
0.125108652489863
0.125178630871898
0.127016019970398
0.125705786501841
0.126343320875128
0.123944918593892
0.12270231049239
0.125503180458059
0.12531850850459
0.124724572970378
0.12677408726358
0.124818687616765
0.128147184448185
0.126124477557408
0.13075141549509
0.124463081930581
0.126064387506606
0.12405077048861
0.122687753647134
0.126068687759439
0.125880811744803
0.127440120929809
0.126941430789213
0.126326337882371
0.131965406758187
0.127264975259535
0.12574997330585
0.128689179394203
0.12949176760374
0.129676869040429
0.128634069922588
0.124989253725951
0.127060495714385
0.125046380478111
0.124127123775288
0.124368251505436
0.128750770521314
0.129973195376121
0.127825994538619
0.123537872752316
0.128107643334123
0.128701328444985
0.128267803023775
0.127551690676753
0.128432225719804
0.130062680087985
0.12691670761855
0.12760409041615
0.129560516475275
0.128066854958085
0.129893321445836
0.127835263361853
0.129230126109601
0.13017929339123
0.131163963123492
0.131803254207791
0.12982926532371
0.128044613518294
0.128711410690712
0.133352242789616
0.130563909853856
0.131043822655245
0.130048961088958
0.128089235072947
0.13252187378069
0.135855142396763
0.1320397601182
0.131364232489999
0.132858329205504
0.132393655228878
0.129962824096083
0.12888009787806
0.129842313952793
0.130834983442153
0.132058847997337
0.1312996036086
0.132090268748105
0.130088778738242
0.134182524435568
0.132427096388544
0.12992921236153
0.127498901761269
0.128229468450511
0.130089470686282
0.128409333451313
0.130330063424964
0.128153264955217
0.131431587836283
0.131667367750312
0.131820905768907
0.129441954208946
0.130237436851768
0.129051897459143
0.128097566512785
0.127290651835939
0.127076782342102
0.123801674074239
0.125008117043288
0.126473615545227
0.129303736629523
0.127223815214755
0.126686820756888
0.126885100873366
0.126317360210738
0.125714814298189
0.127828046635361
0.126054445246382
0.124187560610058
0.125665747277403
0.12510334402736
0.126417689779865
0.125933423652948
0.126650481533087
0.122835902820974
0.126414795268724
0.125069874201123
0.124071100052907
0.122330364595825
0.12283431694177
0.122890478322743
0.124858952615511
0.126722979836796
0.123837628439895
0.125286381719761
0.122642323670193
0.124740483388352
0.122570543353704
0.125541915054672
0.123145537107784
0.12365900177625
0.122893169690884
0.126911368511869
0.12242468354966
0.120716520463861
0.123661506225847
0.120646884827052
0.120469466374222
0.123596841197269
0.124463259242909
0.121273253435092
0.122477005671009
0.120581534811538
0.12161281581264
0.122682742539984
0.120150093266848
0.119310745925164
0.119681951572127
0.120714856333957
0.121798512815943
0.121809707767823
0.123645414436389
0.120220509934943
0.121806176798004
0.118260934608266
0.119072654893724
0.122101069058987
0.121927960872372
0.12285721960764
0.11910677856092
0.118926881044014
0.121998568780655
0.118500153092444
0.117191742823879
0.119783788067394
0.116757665086615
0.123899502911361
0.119044868130231
0.121781837746344
0.118353834716772
0.119499459723302
0.118346362290226
0.119649279773444
0.117319906859145
0.116318574928176
0.116776577612904
0.119894518252885
0.117292698028749
0.120363156385824
0.119444741718306
0.121004704331906
0.117869422628535
0.119073995362489
0.119101648761799
0.116560073460455
0.114603960125896
0.116398925324403
0.117657373758489
0.115635816359838
0.115297452029946
0.115712513142236
0.117775846430927
0.115140483213589
0.116166930449666
0.11904102991742
0.115098472606536
0.113405121393059
0.111978916969814
0.113371957795189
0.112419844330328
0.116141565734255
0.110848800786081
0.111329927866358
0.113219491189767
0.11148670311616
0.108152603045186
0.110919622139038
0.110879841846426
0.112542798805317
0.109436045825786
0.109361830609586
0.111493245019043
0.109591509353168
0.110185867344245
0.108674172037137
0.107252155918182
0.109313553173902
0.103118580721051
0.113139886030493
0.106183645943053
0.109199333164788
0.105180222557098
0.110429451644446
0.102927223439664
0.106477508996918
0.10387607852318
0.107546440284282
0.101711614785242
0.108320244626141
0.102784177821645
0.106227436945165
0.101282857402487
0.103919294192951
0.102292661838613
0.103302434765973
0.100263475790901
0.104448803677607
0.100868185939621
0.102054732142059
0.0987061021672266
0.103870722454069
0.0988509781357516
0.103391428698334
0.0961113720351199
0.100247130909633
0.0977981194521896
0.0996476527389943
0.0988162919761231
0.100442775994935
0.101385499686006
0.0988898793949182
0.096811484797796
0.0962436019734655
0.100287401479296
0.0984430701492173
0.0953209704797508
0.0956686588322963
0.0973289456514426
0.0976147222911244
0.0973677851144019
0.0985318992760585
0.0976112895903773
0.0964632425734269
0.0974818228659651
0.0936288119297488
0.0942323232147419
0.0967877403726456
0.094384385467406
0.0969079967685341
0.093489810346402
0.0909104251737524
0.0985712819941167
0.0991513338759989
0.0950228455620854
0.0934224278398021
0.0951597063962278
0.0905038040871035
0.0938523292041769
0.0964624278439983
0.0943500023940292
0.0939060670655391
0.0918135444432171
0.0931574237650315
0.0916744469721289
0.0909953759691731
0.089138076279805
0.0926584938621145
0.0934745048055126
0.0908971317730954
0.0925989845728748
0.0870808841544238
0.0900288416000822
0.0870656527655971
0.0891881189745181
0.0868493146312887
0.0945617558988994
0.0851407071609687
0.0824905698927667
0.10314560111779
0.0869232379221877
0.0915326544967081
0.0832535631919304
0.0901428873930077
0.0828721908910181
0.0905976363590593
0.0848797468565926
0.0893985739859362
0.0844193183522734
0.0904860962048692
0.0851928424545601
0.0895037306334803
0.085900740576249
0.0878189238480668
0.0856439341995481
0.090956360369951
0.0807824690609604
0.0899471633731282
0.0827458294611331
0.0862584230482069
0.0897955309106066
0.0888434621243754
0.0839812322432144
0.0926484049875921
0.0685116873184192
0.103155047629712
0.0862343038144087
0.0920385659323587
0.0809651007139811
0.0882024345089783
0.0831435937512383
0.0903862236136405
0.0820543582869619
0.0868906425476064
0.0888791087102518
0.0826937810393081
0.0875314033475523
0.082727413681558
0.0807923751091652
0.0834650324302684
0.0839660075171097
0.0831501267461786
0.0853048703455642
0.0848817261435227
0.0832811154934782
0.0856553856765887
0.0788406380403376
0.0861775369075009
0.076176900926083
0.0825699040481364
0.0865192813353215
0.0855014122336821
0.0808186256057667
0.0861987972195812
0.0810940726688979
0.0774623486893259
0.0976206896073061
0.0791275036809035
0.0907233805291314
0.0810281783995161
0.0851392380465549
0.0814621922201776
0.0840239373502555
0.08048984968897
0.0849851582784326
0.0809991058660377
0.081286709655138
0.0804813661116625
0.0807323806586155
0.0839001701270336
0.0797973876167833
0.0845235168875474
0.0814560203520283
0.0838115161780251
0.0778582361348133
0.0891267813666139
0.0718864047813329
0.0803308753314916
0.0891106654136437
0.0851788835894529
0.0872225476628731
0.0825778910852705
0.0821680712054143
0.0825473170051288
0.0854395578553268
0.077978483238193
0.0815957464419238
0.0800065984990913
0.0834088433415947
0.0799638832735633
0.0852112608971724
0.0790741916617135
0.0851605942936667
0.0755379725158705
0.0854118639348808
0.0753043242966614
0.0851432815335809
0.0739996735245699
0.0876979511627298
0.0695096703794811
0.0892041501244865
0.0765535982898889
0.0923319954364046
0.0555298234038681
0.0985964260945604
0.0993382552795096
0.0766952610436342
0.0910220252066681
0.0775672718585984
0.0860335270725006
0.0778862951886075
0.0785400425617997
0.084449186536462
0.0836002055479647
0.0784682797514701
0.0816176269840445
0.0814601429486092
0.086619910879909
0.0739295590759858
0.0719606527488019
0.106312219615682
0.0832675141332503
0.091284512611988
0.0817206285468422
0.0672510469691132
0.10565406279171
0.0791832550105277
0.08860950063919
0.0811755149315777
0.0857081919272885
0.0844554672843529
0.0884448155351407
0.0780872254385866
0.0888659233340992
0.0855343129085775
0.0787466761019968
0.0837219526285451
0.0805636946526812
0.0857785414663265
0.0822756372614741
0.0858112730336325
0.0975805650341787
0.0820965863295654
0.0895658528713022
0.0892200102800487
0.0862611284424242
0.0885859656957641
0.0906626648611296
0.0808639507360089
0.0823863037237126
0.0991304413534288
0.0781832604236096
0.0916220539884327
0.0965880872378823
0.0813263628274608
0.0905214158471996
0.085409465614473
0.0983802025638835
0.0833728965584628
0.0737768000166917
0.112176525990291
0.0754128359183131
0.116330603043964
0.0799785917714711
0.101129759811654
0.0797529434367958
0.103479257344063
0.0703002604344433
0.113050614202403
0.0851372365292067
0.0985416467651778
0.0848369118990396
0.0919234410888902
0.0946545521299837
0.0942924637874569
0.0996680428421313
0.0923777464003054
0.0856369998074996
0.0972225015672645
0.102203114070725
0.0663632650232555
0.116362631973009
0.100796779187158
0.10904124689149
0.108826679504573
0.0715196778963635
0.131795037302501
0.0978436317939184
0.103388360652888
0.0960485396336029
0.0990356667957539
0.100571139178151
0.0793838142215106
0.122782366039614
0.105619416639381
0.0935560858598657
0.114222853293891
0.0839371977687451
0.116392564590081
0.110699337366792
0.107438263241164
0.0993591607133061
0.117334888456442
0.0796542298470821
0.126214698709483
0.123282306954569
0.0935546200423337
0.133670005053661
0.105765706964358
0.130184568531954
0.111209456763159
0.120652336569989
0.106616760897639
0.131801450756005
0.116961125711474
0.114222046430259
0.106258432374523
0.155391797710792
0.112028010644734
0.139947433846081
0.120715074072558
0.111751718146942
0.10651497893747
0.169558159085648
0.14526256422793
0.145904123155243
0.116795627159747
0.150658101698853
0.135242647345169
0.141485260661269
0.14037969312618
0.137796064309738
0.143992510824832
0.141856276174917
0.150446754604374
0.146995055807917
0.146894891077683
0.157099942688183
0.133564447248703
0.15766913008887
0.150408226466482
0.19991409943222
0.140368815378354
0.185393246719734
0.169794602016362
0.167631611706971
0.170437548192944
0.164480596038734
0.175241600798651
0.174074581912376
0.177445609160519
0.166644154395016
0.185470963784726
0.193137209838056
0.165195184110847
0.224394572786213
0.17516857847202
0.201133218274819
0.0928103198228673
0.352141286594338
0.216011155363265
0.215818519082671
0.212000457599528
0.164770004725996
0.288902887391476
0.242852662663001
0.237011329638535
0.249025990201522
0.247781891889478
0.251569606178486
0.272280868424107
0.26767221626175
0.281436006030289
0.290503587214333
0.273185804306111
0.261186863436198
0.333258946004589
0.331722098862207
0.343749955986015
0.320164493663448
0.335025544318111
0.358361025907521
0.347744198885542
0.358025359680594
0.364933780556344
0.320480757630394
0.458927518942626
0.388317132534368
0.411922408842632
0.380043907522142
0.446114419478546
0.396895681961181
0.440902128655707
0.490002444477998
0.445424718197173
0.473931344095936
0.454395391835409
0.487948771294086
0.449503451897278
0.525636803943998
0.515041702303068
0.507444425409293
0.517995894958477
0.528595045111604
0.534709219100356
0.522789962890694
0.544126068168566
0.53415184143414
0.560012956132691
0.530908077826673
0.659279943170823
0.61119798130472
0.543434530750104
0.580339973431005
0.531239006590217
0.610479623818731
0.567090764375413
0.572374403891855
0.615495314318475
0.579184194635111
0.576154292372213
0.578383685104233
0.609984941992575
0.580180963725989
0.592691925637287
0.57542553834923
0.586982915100431
0.592064590860496
0.520704052237235
0.718803141780559
0.589393567552116
0.610647373126822
0.577763474757676
0.580694940819265
0.574395691070607
0.585428774336428
0.541316208953669
0.617487897477248
0.569851662421018
0.599020643394738
0.56309252624695
0.58697221913328
0.606063814301077
0.557118423209041
0.547936351990182
0.550061147580721
0.542049982411026
0.536113640882674
0.467220135703772
0.609579699983503
0.534637042043433
0.541346093429887
0.528793496353003
0.522625921894393
0.514286004805451
0.522861452717234
0.517698861900312
0.520909742195044
0.493268795083112
0.521105120637355
0.514823580513301
0.516722627450201
0.502702051611206
0.506646822905227
0.514005818238857
0.504660389112596
0.507859602119315
0.502934936189168
0.502276088974893
0.4984547918229
0.491474519225558
0.493835740032813
0.501713692870324
0.519704185998759
0.497156049804872
0.49819263450168
0.499295904846435
0.499945312024567
0.499873059336436
0.493675174107081
0.4926725916994
0.494405004967663
0.49282382911022
0.493523609767659
0.492644781303427
0.487285981579281
0.504214304602021
0.495046878017694
0.489825370106046
0.484488795412665
0.486036461775388
0.446800290114435
0.498177117626681
0.529433519437102
0.464053311884628
0.495788335431203
0.463604405731838
0.489236063308076
0.442348805387655
0.470505818765813
0.496177016397419
0.463508650223631
0.45632572889502
0.439340441975437
0.438587510573448
0.469472993014885
0.435707272599795
0.447839679515971
0.418468829615744
0.408910909791286
0.495157517873798
0.390232913690355
0.535311689098493
0.435495065637802
0.420980478216625
0.384282231039358
0.462746988972096
0.415835840257827
0.425198326698728
0.414085126611996
0.405428917805138
0.433310437592352
0.397317828648283
0.41584414156457
0.394426831091294
0.392765386838543
0.425254194888308
0.397739154344042
0.369685009741006
0.423485511756955
0.380514252784745
0.371217478059128
0.432107789712662
0.410783555088835
0.378688146345054
0.374537453626526
0.377115716342206
0.346007951225536
0.403884658961344
0.386894153859839
0.359580114851971
0.374380800779044
0.342171945375304
0.365320858605288
0.35168226742834
0.372810488285937
0.317045485401321
0.383843099670983
0.347758215090993
0.324876050291892
0.358778421053435
0.328027952260499
0.389399655239749
0.342042851896841
0.326640101302404
0.313384790277498
0.373956379995679
0.328461624142917
0.339457587099227
0.327370775589694
0.307072131271107
0.343915072656428
0.319410806863989
0.30151617060001
0.328174837135685
0.294810639968621
0.326015233801116
0.323118545298842
0.335833160963672
0.322201120416352
0.300950629000184
0.306038182635444
0.306500560745608
0.306313412914834
0.30027925943909
0.280223260749703
0.340137102083036
0.268721359763151
0.335482322128342
0.325604779435646
0.306957366345872
0.316796718818657
0.320345874822341
0.307337654143713
0.326177361639198
0.335258399813868
0.347604379896318
0.309177999628526
0.351631508276246
0.336406865264785
0.34978480165309
0.340168384549529
0.350489094793834
0.341986055944
0.363697975762851
0.369263075465662
0.366367319623148
0.372038413639766
0.390183891386705
0.36681907161935
0.433263414803488
0.387974083667888
0.399407134769492
0.442558691062667
0.426663307459147
0.465845522472675
0.434607075948025
0.448194282394688
0.449549033321844
0.465548521491845
0.469061120303079
0.44146232172742
0.510423735761663
0.488818483232029
0.483332621944326
0.497370796667382
0.498816808241993
0.502600876962977
0.499899283748683
0.513377376924904
0.475922242308471
0.575583804842649
0.515308735394446
0.552130830964567
0.529655207645583
0.53094565613722
0.540983110362442
0.535895930568818
0.54117311460966
0.516353622706223
0.561514741725322
0.565807766822915
0.542978852184931
0.563320271085516
0.555227126092119
0.564070529644348
0.561882970064785
0.562194834188299
0.568314949489118
0.561399126043972
0.573153908618361
0.551818351251387
0.608462800644915
0.614133949905339
0.573939436676296
0.6100709286377
0.59618107919742
0.612441411994373
0.601636469422068
0.619780178323598
0.633495830059177
0.62239386540794
0.621566383525214
0.620871992460987
0.63463498227543
0.634109106893994
0.654694094131245
0.663167385818613
0.643532005800083
0.651830215769166
0.581863873213721
0.714837826568985
0.65370434490898
0.685750178183468
0.679040932704128
0.677010915369796
0.679965271125881
0.682613741828489
0.684208204984696
0.683227299446203
0.678546625987724
0.687072988839562
0.684188312824031
0.682439177291022
0.685181668786188
0.675128959952963
0.697756289664698
0.691586379744491
0.681518886108369
0.689705068715037
0.676686011640944
0.681013406128377
0.666672532307753
0.697866037210045
0.677350819934105
0.673657479709852
0.668383139048155
0.709580236232916
0.707310656693199
0.687470609514998
0.687132081948793
0.688383063923774
0.677394568309241
0.683257748585839
0.664888812798424
0.718936598667585
0.697645072536473
0.705295760691846
0.711600569035513
0.702071149606499
0.697193085675693
0.70379197035527
0.716290137139124
0.714915551111886
0.72047808986873
0.721523576184022
0.717597446302251
0.715344202225407
0.730434418792271
0.727062739804039
0.739213809328384
0.735127900964422
0.720159883011606
0.729085192603586
0.716603012252253
0.719886520893127
0.713592776249143
0.703783065647029
0.702284601931817
0.706442016612913
0.695834840245248
0.703720008317294
0.690940746161861
0.678634194974277
0.695656472996379
0.667505563512297
0.671631409254503
0.665862822913964
0.663569919583444
0.649945730011373
0.652759563852406
0.644055719564719
0.647310076625617
0.641312742707922
0.649082398257974
0.651370323201951
0.637688198320258
0.632556677328497
0.643574000653855
0.635463958148102
0.625060539157712
0.635302712656237
0.633630603445617
0.630624816048726
0.632903797383144
0.627723388695189
0.644375674445421
0.6358678988776
0.641848567380831
0.641933205449713
0.646262526370249
0.633017058329137
0.638200148336298
0.634959765393592
0.624427961410116
0.62942932088009
0.632489495570166
0.634809128093912
0.624703027991726
0.635702096074442
0.625500382674829
0.628669458864058
0.626153452647177
0.628440025340553
0.629306950604556
0.623895148416169
0.622830954292181
0.629476791376823
0.627675525069288
0.636714399850577
0.623289945859215
0.623537742365623
0.63121939294118
0.632595825681537
0.620856376162738
0.627151303620392
0.630005073108432
0.618821396946749
0.625277761548917
0.623487529162076
0.622909912534193
0.629622532320857
0.627224766105186
0.629345067448218
0.615685667803651
0.61734273835975
0.618885624181249
0.617333742896684
0.611741951218461
0.608424060381501
0.604601336796686
0.602890077729793
0.592558393368685
0.585136670321645
0.586482482738971
0.583119789199609
0.574348647565121
0.571275905330573
0.566174149444942
0.562748053070099
0.561292110506629
0.563567530159032
0.557637472924399
0.553193570718654
0.557599947737423
0.558625664571544
0.548002349389799
0.548108449390266
0.555565708405304
0.547354584989308
0.545019139940115
0.547493232976338
0.546256588061263
0.546644689327248
0.546690439973279
0.548895503789036
0.558819690122319
0.553902638178507
0.553352819359906
0.555849151981107
0.555722593068484
0.559669436609423
0.558564677185349
0.569856760486053
0.561571125384361
0.566835755297698
0.57575746768517
0.572812352650133
0.580664372046047
0.574018274928186
0.570200211469011
0.582425141610096
0.587831039171725
0.582914874629454
0.582365201968373
0.586616727748295
0.582659053236591
0.578072496569132
0.581908962728319
0.584510799816801
0.573993927938491
0.575257542450155
0.578128229299048
0.577252559716291
0.573614172434239
0.573109985262463
0.565660999724485
0.566591010828747
0.56629718720623
0.564344997049722
0.561606560370083
0.563376797116021
0.562053024634407
0.554519638619429
0.554389078265173
0.556714770025836
0.552765472150007
0.550800742811865
0.556232818109238
0.548291986993313
0.544390867807371
0.546525695883546
0.547057194437071
0.539618519679798
0.539082629982149
0.537154502784946
0.539585415225986
0.533410499970949
0.53543388865152
0.53299943028566
0.532959606784379
0.531120638530182
0.52797339891308
0.524394167273834
0.524464089714039
0.518866933988589
0.517559999100851
0.516574271540676
0.514422606561412
0.512799790038792
0.503621219711763
0.503297745551459
0.497853741307904
0.498597337955669
0.493017359724254
0.49004161567443
0.488889911287457
0.479867746384121
0.474379782809236
0.475594707908686
0.476148137346404
0.471291504189437
0.472163229802889
0.47384498654973
0.471323694654132
0.468519795628815
0.466009317423429
0.464327708129448
0.463733754490675
0.457140544708374
0.454857642289958
0.453367718650956
0.449954119996164
0.444892296454152
0.438730922340868
0.434951826093814
0.430185948105671
0.423526159075757
0.414820232053076
0.414473441245089
0.412391817709087
0.41213596058782
0.408787262507586
0.410585992615506
0.410623304225088
0.421389205338455
0.424356785998702
0.434925896284794
0.443931000598562
0.456156978909122
0.470665220527034
0.484754767412254
0.498583263746886
0.516243277342961
0.532157223970074
0.546999314709761
0.565449236316113
0.587414496803837
0.598198591958788
0.61994078130328
0.639815906121797
0.65195285912297
0.677341973486972
0.690001218659468
0.697113092013045
0.713541466185433
0.745363782130784
0.746219845964124
0.761783427128081
0.777941782531171
0.783308136696507
0.799070480237225
0.813643775943004
0.822621484570377
0.824879138447654
0.840049766894354
0.840312255621923
0.851617339085106
0.861491251068509
0.85683345003525
0.867860192087137
0.864767389028322
0.868455626601117
0.870284432477658
0.872795352563804
0.872732201901014
0.877246705887774
0.881455826652993
0.884066171673064
0.874753617312222
0.878126736621597
0.887344003683635
0.887677856986686
0.893958280538018
0.896276298672994
0.900413691185371
0.899687201758399
0.904096578116075
0.910172130633016
0.920587831210305
0.933122883361808
0.938902266948587
0.947231555787676
0.948193841519335
0.961504117603713
0.974122657274079
0.979870969884375
1.00193734890576
1.01948629505043
1.0111574160577
1.03784443304817
1.055835079411
1.06460656540885
1.05817191854377
1.07012140639095
1.10007123403293
1.0999249478878
1.10049205695162
1.10340920009243
1.11993049084059
1.09200574461733
1.10533432769086
1.10144347235979
1.10161799269934
1.09614702122859
1.08093645510849
1.08330166938249
1.08273093503308
1.07068325436396
1.10018722526409
1.07756401600552
1.11950929148574
1.12263642827694
1.12803988797436
1.13569936927807
1.16937596160944
1.19022868719872
1.20114839065231
1.18451235872619
1.19881364656566
1.22964065859439
1.24468197860881
1.26647669024544
1.27105832150449
1.29258047138365
1.2908100995043
1.33054752994687
1.35502837543881
1.40166431571917
1.4112219895656
1.38922626463454
1.45259037131191
1.45031826249941
1.42603814668464
1.49610367686717
1.51580594078504
1.52347378440738
1.60177358197387
1.58616556500707
1.56888367638498
1.58064604446091
1.6377880102612
1.64171379003017
1.76056618310076
1.65563389911774
1.73957974467287
1.68719104654927
1.78779468386145
1.74970086176906
1.75514882648217
1.74853756172204
1.75996454539122
1.70466052668523
1.74611248880532
1.67295350344446
1.85071834691548
1.76265650972964
1.81204228350422
1.70875151410138
1.73802338341878
1.75097714773918
1.79638000026512
1.74154259303709
1.80424739298779
1.75581210857696
1.79676017718162
1.7919714487424
1.77769365015471
1.87713695323716
1.85197633272614
1.90967403517963
1.969660651641
1.8632620624648
1.79973553125648
1.84512498989522
1.81943415706304
1.91000587164235
1.86003378162077
1.78371779837666
2.05992496919498
1.89076350409931
2.21432480128577
1.94449191916345
1.96208205861953
2.04167984404135
2.048958084707
2.06026250026854
2.22801386717585
2.07246027831901
2.11314663981711
1.99316993537332
2.11574925123062
1.9124161563214
2.15098334752771
1.86934738571267
2.08870955255731
1.99904482895609
2.26347161422533
1.95963117607661
2.01864082564741
2.03004174551169
2.07080917436203
2.04928098401836
2.21258654955002
1.84765583521385
2.04908688737168
1.96067756457885
1.92902611353131
1.88467534930333
1.90179634496382
1.83243426073026
1.9972703403229
1.820866119281
1.83127721976651
1.74641591874372
1.95758500116949
1.60479166588645
1.84605888106507
1.64005939240324
1.68883492940587
1.6456243577277
1.70202586226752
1.51382029300356
1.63624883228339
1.61685735822505
1.57436562941132
1.52544582990793
1.65354441774449
1.47491089750121
1.54369047397227
1.45488110832674
1.52965232413511
1.48000974896883
1.6182252447621
1.48758066159536
1.46474404469416
1.39423227783958
1.45967692159917
1.36123910779134
1.38276422639916
1.40971705721454
1.42755501392444
1.31036573854933
1.3047125301374
1.22269151674397
1.28299346457255
1.2000691155472
1.20466044981612
1.12407439635672
1.09738177678722
1.04254179683772
1.02947321899108
0.967727124229273
0.955271995859072
0.912283154752601
0.896603941206501
0.848021289093007
0.831519672489603
0.796903511325001
0.77971680232204
0.751145933570393
0.741475043265546
0.719794372518698
0.710980546840779
0.684068308713817
0.674465585954465
0.666663493886665
0.674076622894599
0.66444350178598
0.655110057997977
0.6559808723487
0.65302543185771
0.64825459360659
0.649125964270138
0.657066816994671
0.663110383765208
0.647994889990447
0.665899655071004
0.652913580636734
0.649159974005865
0.64673329996041
0.649624290363353
0.650558333991359
0.645825195452253
0.638616115874349
0.629544785497852
0.614153902676799
0.625964320912074
0.611456626738146
0.618584178531264
0.593807875586699
0.604670771441496
0.596745668171364
0.595494201061935
0.599513592662396
0.600093001984161
0.597530372001792
0.599950328870157
0.597363633065223
0.603514173095204
0.600173886252044
0.611175100761518
0.607675079153068
0.622066034231789
0.618187951388381
0.633225910360128
0.630053303628537
0.633118630159514
0.625125173543586
0.643002543811739
0.636344342422651
0.640037958979525
0.644267291817274
0.633231627332748
0.64763392481175
0.648949236461554
0.6399326648051
0.640985296546911
0.6329586301663
0.644319036601757
0.637976700114923
0.654857523030457
0.648587791726631
0.662968315729726
0.667127626478029
0.691898148979455
0.684930039683032
0.710124351827414
0.719235965028879
0.741866686911693
0.752508048601222
0.744251210890569
0.812843434498326
0.811442657786111
0.800212202832543
0.824735858325499
0.846862164115754
0.83890598685755
0.807644146757257
0.826833408555053
0.807090780402804
0.80799073507164
0.784769607891082
0.77303556289273
0.759110164053101
0.750157053649606
0.744386341709202
0.76138021960729
0.739659367797064
0.724420501701635
0.747878755630796
0.756072765345064
0.747628021109774
0.780758600172312
0.756418939953028
0.760738219601877
0.763765881695608
0.743682818111897
0.741949395106489
0.733484926698692
0.720338440230613
0.723011447974207
0.724918925455834
0.71698167510719
0.719395092821773
0.723287831470769
0.698859873289397
0.709330147216026
0.68444683952361
0.691056793086442
0.694359722286579
0.697941779143138
0.681075384924511
0.673544296507468
0.661244802368762
0.677520126734427
0.672404314316889
0.658268063286593
0.659841272901272
0.671862727064934
0.647223422071519
0.664287685557776
0.665753174657603
0.658255468875994
0.619396881662269
0.662721714924154
0.634290784771991
0.650308148514141
0.623588906251238
0.633396730562897
0.617184211275244
0.646810028178535
0.615647337687736
0.623055172885027
0.60429013979497
0.636614317470653
0.615925569881429
0.607153312584764
0.610812416617017
0.61944714530025
0.619583682940765
0.598107315090831
0.600522985699995
0.606515465951437
0.579992782866064
0.6223186974182
0.613738751536915
0.602519541296582
0.584466415832218
0.60829914283009
0.615955653374423
0.612032197670726
0.600251344906885
0.609744424080283
0.615269736365808
0.610533161327067
0.594223871311525
0.618224783872297
0.609473768865547
0.650609829613683
0.609360742307024
0.637646783903943
0.631877596793512
0.654589813415074
0.611389833892231
0.641252467157666
0.601491173752345
0.632973329338779
0.652982728068768
0.680742556770452
0.644798466011712
0.676126459631547
0.682365091194194
0.718402177726591
0.668204934133984
0.7067616340635
0.689342620050772
0.775031266806876
0.739898559412044
0.790038105228766
0.750060177608485
0.777775492027408
0.798520588549304
0.818710816015448
0.805371204854565
0.852133961907406
0.868431789281934
0.91812044508603
0.886884306095917
0.969915185163694
0.883394553483246
0.949482241318086
0.92743649817884
0.984467710583036
0.925178716399117
1.05542994475696
0.94160601970547
1.02230545714569
0.934241507090166
0.940591046564648
0.985297223133976
0.97354131644933
0.951227350129648
0.990588924742286
0.893145004346331
1.01459255525632
1.03713490230103
0.977790531150858
0.892303989743192
0.902678677932126
1.0299437940515
0.916739055873619
0.949823601727152
1.01046441756298
0.89207128184224
0.90847201181495
0.885315215971748
0.893857592304274
0.883194663466438
0.94973665117048
0.914271761797507
0.998363250947781
0.877562864656602
0.935784714211653
0.850985337755127
0.905844361598279
0.83281538350611
0.893387617579309
0.901525898852345
0.860280046121727
0.814961669794595
0.87418527227822
0.803337238107278
0.917303277316812
0.857093898904948
0.940981739855179
0.806880456334252
0.934668806599077
0.934783277378114
0.950846064252009
0.914073462541684
0.970210084723507
0.863743764433491
0.993224475808359
0.812209404834527
0.971054378615634
0.889137632604821
1.01091738722827
0.89064224845629
0.991658455408313
0.806243943568561
1.08151281007285
0.926868804964769
0.883691782390109
0.92247331575019
0.964508211928011
0.867591252385706
0.95939497271512
0.890143755723006
0.975970540723004
1.15488084857748
1.02249823218328
0.927197211485196
1.02395106347581
0.943361536644024
1.06139702340618
1.02984450956058
0.852496676888972
0.940190933913366
1.21563209378343
1.01345950208134
1.17125939841595
1.03117950958876
1.28918088760656
1.32052189156864
1.31329336192883
1.1158740445986
1.41252571466428
1.25309520830984
1.4303019222013
1.20930265884265
1.06983178528609
1.15145295493041
1.07861277320112
1.2418646431932
1.68942166645997
0.984394038056849
1.09702974642145
1.17537822876082
1.351820345506
1.08446765380761
1.22417796571098
1.01317001768465
1.14473605511461
1.09263868268747
2.33593777689541
1.37877278781474
2.3089844149065
1.07194966470072
2.70381277455127
0.932192206742165
1.35025357884835
1.04895829775675
1.29219815256352
1.02408707642083
1.96981387070735
0.939284380956791
2.25719065952405
1.13274765968213
1.0864604402549
5
3.03471042736824
0.845449551503177
1.16418516521279
2.16181940485684
5
0.720438559721846
5
1.17468463854171
0.961342261215059
0.777366374176745
1.87330286619845
0.996078431169783
5
0.766340084802165
0.640795225470604
5
1.86358387304555
5
5
0.92452441383789
1.01275390309924
0.609405933356271
5
0.495916402913769
0.773406643087261
0.748031722609948
