3596
4000.36533379555
650.420452594757
1
2
2
0.0537432617694494
0.0359426192186854
0.0552012915069503
0.0247577829934962
0.0595468453364695
0.0363354832698698
0.0569415790049829
0.0306885776925159
0.0535056556263016
0.0379245169647393
0.0608084677411157
0.0376130599856274
0.0624773846362612
0.0276356960541434
0.0492008495481739
0.033175322760613
0.0530844690304964
0.0247461769222515
0.0557855547217869
0.0316576470436701
0.0494225120460595
0.0356294153983582
0.0616515992071754
0.0290229953787903
0.0480318670614593
0.0427987742039488
0.0511852578732792
0.0313720039415601
0.0600157562513699
0.0343888726111664
0.0529936873346502
0.0267396021554597
0.0456427764571379
0.0401309596640631
0.0562204940962801
0.0348853479553335
0.0592325885907653
0.0302909391177991
0.0529311366225308
0.0321145634950291
0.0564691301248557
0.030637297158348
0.061202768918559
0.0333552416467362
0.0554574955001065
0.0319084118567742
0.0445924592113928
0.0313191762370908
0.0562668201817985
0.0371746489943355
0.0594287744822488
0.0307549803770809
0.0622312337182433
0.0376099114928543
0.0488201272985667
0.0447615625465982
0.0467738110663922
0.0380929492799639
0.046710171779218
0.00454984854283467
0.0521837176125299
0.0461929835856663
0.050007050665167
0.0361071937932918
0.0508046444815083
0.0346641949706885
0.0432044584397149
0.0273575619591519
0.0360698667249109
0.029293694068756
0.0293194579356296
0.0502208764216364
0.0606620820765456
0.0398747278271286
0.0404535017557211
0.0358735691570004
0.0540488753768097
0.0338335986191147
0.0352156759835232
0.0342413044971355
0.0521729114187482
0.0460498606653895
0.0517929114605904
0.0261204769130768
0.0403934437354532
0.0607005859462114
0.0379099912194458
-0.00110648658427933
0.0705971345171152
0.0392623248140238
0.0466344221787078
0.0325453993077508
0.0408105923372768
0.025785586568945
0.0365770397506106
0.0390006695882398
0.0471316274389859
0.0308455364794765
0.0353496711701231
0.034972787723284
0.0459070123086202
-0.0128453579393911
0.101368884416507
-0.00913948147128913
0.110360406864956
0.0450898400335165
0.0168364597884098
0.0584924244635532
0.0650080520571824
0.0364865888886432
0.0356663138468627
0.0322071188676847
0.0421309082676105
0.0381105066471604
0.0195798451188284
0.0361347326703544
0.0862434544456435
0.0426423163947737
0.0435204068294404
0.022737189862323
-0.00958175881919037
0.0239448979449468
0.0849508633391157
0.0245743904150003
0.057812064965721
0.0330181985598883
0.0117500081234514
0.0412473729351629
0.079094124617015
0.0301117825008719
0.0475064610344639
0.017239952516591
0.0398203806272353
-0.0176416200069062
0.0868106547660389
0.0300063717570693
0.0433609943720525
-0.00276151938518378
0.0436683094727069
0.0749073402770518
0.0507537285533926
0.0384187537711039
0.0218292150272869
0.00048274998576724
0.0965084999862573
0.0423533525852302
0.0314458469213403
0.0274770880382536
0.0770465049772025
0.0230059772011671
0.0485429990158922
0.00882574340547447
0.0602857567718013
0.0292273014231729
-0.0229985546804133
0.0184654085196885
0.118524576126237
-0.00175463609382581
0.122542614440248
0.0181731647364845
0.0659012517257448
0.0351029367984235
0.0485697315054874
0.0131772728674486
0.0432525917323973
0.01223916219315
0.0304819599354976
0.0519420845714972
0.0261831586155204
0.015252224246451
0.0778376626905984
0.0253545784299915
0.00094573971436211
0.104256235403153
0.0600635916242258
-0.00118128905077757
0.0743392538520838
0.0456944192926106
0.0276904859969019
0.00565478298231499
0.0848247021922816
0.0288118232756639
0.0451797978089084
0.0233894012915843
0.0288295920916647
0.03153598395099
0.0583738913670002
0.0309786589870904
0.04327367985503
-0.0125682832697669
0.0194699427531542
0.0777696648485413
0.0946811545704865
0.0279686276932427
0.0519908450343344
-0.0390503353409813
0.0705191857889641
0.0519974243151979
0.0524857700375719
0.0339562200118234
0.0406923125665304
0.0194154809823383
0.0367589422612417
0.0287927461239846
0.0399730146773803
-0.0393923844147645
0.0850947591796732
0.0531757409636515
0.0440350211846588
0.0112342545593935
0.0376500105538116
-0.0262825704302596
0.110526578234369
0.0623108701149208
0.0414298381125127
0.0342214502479383
0.00839949218360185
0.0218644725857292
0.0733451677995364
0.0293196299547729
0.0420863044783434
0.0294260225919492
0.0474119691861302
0.0273556541887642
0.04671796733134
0.027508762715277
0.0404223077063881
0.0284978170525432
0.0406850029990106
0.0309521728697371
0.0669993665527788
0.0349777674490851
0.0470440374422947
0.0343585824484115
0.0273643941028928
0.0142050571356643
0.0777479352840726
0.0311385202100174
0.0513770203298966
0.0235412958625622
0.0338949486134294
0.0199483778788285
0.0455976488358401
0.023911579352084
0.0446023111996287
-0.00530326157064879
0.0966740001399543
0.0345659338371422
0.0524678507567366
0.00117008885349798
0.0528874376770589
0.0435144793388083
0.0478115887723849
0.029092420820519
0.0493522389558498
0.0194721878347004
0.0192731290613356
0.0539882743603696
0.0513438231106132
0.0151081596087905
0.0492081291814973
0.0436585786247691
0.0426570718721184
0.0180123226438112
-0.0189623627379168
0.0972939895212909
0.0573442164437174
-0.0268171088599339
0.113898520405393
0.0549135504893374
0.0599339948403685
0.022499818026481
-0.066962571925657
0.0963013406465824
0.104170079237164
0.0347795214004307
0.0386252812715166
0.0524607465181978
0.0432013510255699
0.0256833284410099
0.0453420563738343
0.0204008837346441
0.0791830654633719
0.0469505132173252
0.123480412245824
-0.0057235380805737
0.066948621218349
0.0631623538371499
0.0479497021134022
0.0365396536847115
0.0454983588338768
0.0218423621044167
0.0495204930830347
0.0501816639380168
0.0483414631816592
0.0421983252516176
0.0438296605906845
0.0696456994157152
0.0547866060488255
0.0305848544347888
0.045784030816315
0.0464329759062957
0.0464902452176062
0.0433858358990982
0.0347295885520868
0.0449452407658918
0.0305797217970222
-0.00251674858108119
0.112272642090998
0.0463222219464383
0.0338953763221551
0.0759276499926934
0.0597786178215708
0.0423852295014388
0.0497366154382407
0.0431521894394826
0.0469491963370123
0.028361287435595
0.0280703556177512
0.0687618894557164
0.0640739863240153
0.0450276273252495
0.0551622546302657
0.0415892430574303
0.0539673439799227
0.04606580868254
0.0455429971909923
0.0401038135067521
0.05630398616235
0.0196889492343867
0.0587480235923336
0.0630769831193292
0.0252038550132368
0.0464793549728017
0.105593068874851
0.046865693784007
0.0668580510743367
0.0454353358120384
0.0671352582292185
0.044465988797905
0.0630089731799613
0.0467299685695745
0.0501550061630154
0.0735771412857856
0.0769431720979308
0.0185481258454327
0.0385193382894668
0.0745733994595843
0.134175122261587
0.0711705324403286
0.0695733422738869
0.0140780317306978
0.0671011521741199
0.0857092838781372
0.0612089647448113
0.0925461721036197
0.0693197969361397
0.0689558547627353
0.0689649829184616
0.0588254850136384
0.0725360567015269
0.064656849283075
0.0739680921117332
0.067171238675102
0.0766932886375484
0.0740035900071217
0.0706607720710391
0.0451722047341233
0.123656546988472
0.0818243393466683
0.0842021906581749
0.077489301482968
0.0673133634415436
0.0810646581532283
0.118983953480297
0.0881336626675779
0.117857033434546
0.0652972842816733
0.136436121053589
0.0916510635992176
0.105145537672641
0.083348757286665
0.099237262545798
0.0946739649559962
0.106329997654571
0.0904677968523373
0.101839242793657
0.0935003078841851
0.114565571028792
0.0934900552782606
0.111079183552815
0.0891423164405227
0.134810470481197
0.107261759854724
0.109515311457217
0.0751500212585304
0.0921992567303666
0.127769173544773
0.185340175995802
0.13660067897769
0.127614030142522
0.129072764102282
0.136872784315833
0.138534732164501
0.122461902531083
0.132813898844413
0.127654394760193
0.145887820229767
0.173285666571838
0.139900856252468
0.174918140775593
0.128896741484375
0.158102832524592
0.139715298104669
0.144705387536364
0.183881232384404
0.172379975038095
0.135683721413158
0.173412832848956
0.18818762071361
0.152050777628534
0.188154062969152
0.180285390488522
0.171144428074445
0.179808368094698
0.163700677835544
0.192281925829306
0.179868990244919
0.199242697956941
0.18486469114624
0.19930985352401
0.179951565260604
0.179967535001729
0.181178020254198
0.22076464379712
0.192712733475695
0.219292781974513
0.207325772511741
0.213247538632542
0.187911414846078
0.217663874285868
0.234712636037564
0.220110439039427
0.254968180147384
0.242183589968501
0.228775367131654
0.252138932769189
0.225908365711945
0.25440928786894
0.254182599982073
0.261739891097106
0.252613524100051
0.268930067459347
0.249993970741948
0.260210177560094
0.258601469514047
0.27685209335896
0.260402592234083
0.283653803659007
0.272089762501808
0.281772743373759
0.261932344804294
0.308382133780483
0.321277657118732
0.318651468206531
0.314955119017802
0.295951413216433
0.294244893444159
0.314797370900953
0.309436026393396
0.31284624489574
0.32394975400193
0.338889502363715
0.323411365927982
0.346589476045294
0.341397544649023
0.347698778169149
0.338704074298878
0.37309362081551
0.339647142826909
0.371447394099475
0.363480035255145
0.367795375136339
0.360982758923799
0.393528710786919
0.371071889708217
0.386627890531284
0.397773928159017
0.395893162148982
0.367077854133012
0.419715987836122
0.40421797343279
0.408535462629264
0.395570566349751
0.427206014576862
0.419289997465144
0.434789519904212
0.422606420773588
0.453975656465384
0.459834629266649
0.445819196170988
0.425909988961625
0.468307041009722
0.456211862044289
0.468451109587415
0.462067353666511
0.495561844896943
0.473050588371694
0.499123563667874
0.489644074600602
0.478274616416456
0.508811937773568
0.525616820457532
0.510089516827419
0.514981559955026
0.512755526085827
0.50193717724646
0.52157466589556
0.524842070517782
0.482183171062531
0.538931023447961
0.533058637719958
0.543443827414761
0.566206116923928
0.597376062061874
0.555040689110608
0.588864050537614
0.574189814571205
0.589818956699767
0.553506676221086
0.588196791746566
0.564604726797123
0.61290461933009
0.635866413059638
0.596121860287314
0.612658261640384
0.60551123817775
0.595267031554302
0.649760611754427
0.640417287151926
0.625331091899431
0.622350511322031
0.644647420492811
0.666783612904803
0.681894888776385
0.670110996444657
0.661884285132451
0.65035014503941
0.691577885094884
0.678565156419609
0.700182710548768
0.700138101428888
0.718110371302161
0.686660552328792
0.701833326841761
0.681891898972203
0.698004057537425
0.721914525125945
0.751936668497899
0.728014058946496
0.729652997015543
0.75514408856912
0.758454942864845
0.722861237590417
0.760322535472233
0.77003311140663
0.758324323492713
0.756393819744522
0.745332637394194
0.745287995075064
0.772704129040452
0.765131765643816
0.847472150798353
0.836394330785695
0.794518983372039
0.817544248300379
0.830007961331194
0.797374707971693
0.799146931579326
0.856281904744807
0.902166678681964
0.828122200693618
0.813435142891
0.832356710835555
0.832110572312361
0.870327668164013
0.875012772485051
0.848113786380059
0.87739057044164
0.827017902344626
0.857023704568772
0.895519741874931
0.896151298718778
0.881197506560886
0.864095394674447
0.902231138230657
0.918672031781636
0.903252745442498
0.926866844210966
0.904879791474901
0.903828983336844
0.971157536226604
0.960610841015883
0.937369741210017
0.975032317791833
0.913955220298199
0.923515420837068
1.01802083555583
0.936033619550064
0.968686130188927
1.01708368938819
0.995515247252724
0.950902657061269
0.99229650805839
0.997574724491385
0.975141783304051
0.9948916394434
1.02638870107034
1.02719254744711
1.03329411648834
1.04190811737538
1.03054236966109
0.986699927560747
1.03084698411531
1.01551023871316
1.05588106995163
1.02714631854127
1.00719390808172
1.09046311131946
1.04044665116743
0.985922036122162
1.04768630005646
1.08797043133806
1.0710158394778
1.05826240205088
1.08422566177929
1.05755184012355
1.03406373436354
1.01565540992866
1.05309359181541
1.06313694606689
1.05955727000689
1.08465327167742
1.13119674057959
1.1327243387823
1.121741370995
1.12619503148726
1.16992712598671
1.14297855195204
1.1411027693358
1.08147812137051
1.10041666373902
1.09691841549807
1.14990692329795
1.12203585960151
1.09719058555905
1.16520560882714
1.14930982674394
1.11263761505169
1.2129093645695
1.1779384775332
1.16616083847376
1.05139338423216
1.15835639077899
1.14260884514327
1.20136709340846
1.24208920141921
1.15277974844137
1.11842624329203
1.15267770119765
1.17144263028337
1.13326966755469
1.19221536974025
1.246458165428
1.12873828607597
1.18166805311244
1.1837160548752
1.13728976947038
1.1341341591518
1.25479869200166
1.1223207746256
1.25933144143879
1.22055916799098
1.15047491218983
1.1661146980331
1.21645166051707
1.26145706977603
1.46260742597915
1.25724052864418
1.22605074608067
1.14592848720806
1.18816334363251
1.19277752253644
1.2475717206719
1.21859550237344
1.25349516451641
1.20621211029258
1.25099885410451
1.19526629721164
1.30809506914208
1.23902328589674
1.26581622435789
1.23172211802312
1.30859690832994
1.19385306370167
1.30093330984431
1.22550363440498
1.23307846519404
1.1677947445798
1.18585708242324
1.1778604073646
1.24224041584661
1.27068527505375
1.23672416528843
1.27564622915045
1.42127955771212
1.27242692798625
1.31312921819782
1.20676196676495
1.26224713724033
1.28376364824931
1.31069815647778
1.17133241740144
1.26522771842844
1.25098780977276
1.31282528386672
1.26632151634636
1.23935173538056
1.21638411855252
1.26087867356187
1.19158190827267
1.33862319856054
1.25372429729962
1.27315641640829
1.22484619080452
1.23338253737299
1.19138109274807
1.28364920038784
1.27247960698703
1.29769787307374
1.19284760095445
1.20536098207678
1.20207302386578
1.18331184030963
1.18247848955376
1.2792159652095
1.30416914768122
1.30285830439222
1.28414816493725
1.18595891192782
1.1519115091019
1.38628428057192
1.29612762646992
1.17278891372401
1.25431749163704
1.28407925649205
1.28891973667383
1.31995201838578
1.13470844182748
1.28879200063939
1.23891779133183
1.19425230643769
1.21310742130353
1.3179072451862
1.2140341760709
1.27704853811538
1.20700135761101
1.25475954834596
1.20424294661553
1.38932473592357
1.21799596269254
1.27438451945543
1.11485715938748
1.26360770339864
1.29033537345942
1.17162920591401
1.27535823551765
1.24985848883657
1.08092642078385
1.16006045535137
1.07673215252529
1.20053403869183
1.24414738031908
1.17523536455397
1.27968967977377
1.22620319316043
1.1177364382966
1.20338668373312
1.13567152960902
1.15580477077185
1.20178434405646
1.25282582245121
1.1836674322324
1.2089179606425
1.13014953132244
1.21813036738527
1.09177922890882
1.23504248137799
1.15529892978673
1.14346783496481
1.12541326405077
1.20940848936486
1.12465878932669
1.13320698576116
1.18820801528079
1.22435162457244
1.0914212634328
1.13445633130497
1.13174619989418
1.19536180536336
1.11100859147133
1.18761299795225
1.13454260061727
1.12558339204845
1.05938600830241
1.14974825690343
1.11791298665606
1.1471719314183
1.02860237973676
1.07790081528482
1.09192287838515
1.1121622073825
1.11001655674502
1.14830930362128
1.06727114299686
1.17386950143237
1.06124648114656
1.15214725962263
1.13143867773254
1.14554102806115
1.03760182374774
1.13635806393498
1.07406263293729
1.06594786669986
1.01749858055269
1.09491634147227
1.05698309702277
1.10212518855455
1.05366959834441
1.06925897147148
0.965995876447739
1.07939757333753
0.987899844034388
1.0525769513614
1.04204092316629
1.03353551031468
0.974303369534816
1.04261069323405
1.05061503330467
1.0663262898521
0.971978256639156
0.964828066223542
0.972353683234318
1.02264169334627
0.966958251680413
1.02205118091751
0.984594019766845
0.999623559028557
1.01182372634791
1.02432082528474
0.949973146184315
0.990825433737658
0.973283974268246
1.02021663860076
0.968645266766138
0.963010335247515
0.961076445305446
0.96948322035759
0.927576684608191
0.942451842779269
0.908393942693759
0.938412929564014
0.932843259593105
0.967727386090322
0.903713755196237
0.933644905513059
0.902784112101419
0.89327548700526
0.900309588985839
0.922929077888061
0.862057911198526
0.899178557422288
0.88415615784012
0.91949643382654
0.848276174255676
0.920094854447491
0.855730774931801
0.839067002233739
0.872396334676517
0.877929206863658
0.867255219217412
0.845073810685836
0.825005670284091
0.841526259307631
0.836584438348786
0.87483298970068
0.817598518771769
0.838608667754033
0.826688140601808
0.844412931133752
0.819478970846368
0.844318806096898
0.800917595534412
0.81235813831047
0.79223046364231
0.81992045259241
0.775959749550184
0.803628921114129
0.76202159120372
0.768795097658062
0.776698564645002
0.824131196603936
0.778579377223203
0.785099725714728
0.766092937651177
0.804918588930118
0.746124950299517
0.754565918783517
0.730915785821282
0.751320270990109
0.727835678983071
0.747084644724134
0.706354424932981
0.742086171372917
0.726633801002997
0.752047327785683
0.72062484432965
0.743571097495573
0.701857771892908
0.733948922227345
0.718589990778796
0.730631497200546
0.686536169109815
0.709593537959757
0.680791244331853
0.699921160280478
0.669733904628504
0.689050217853766
0.662098752519
0.677088294154763
0.660897370342088
0.648254271446819
0.655335705116783
0.682737534390191
0.668143520122248
0.667218304298011
0.636142830740703
0.662314111011164
0.626361639957554
0.656645688945095
0.629958450927224
0.646375121856476
0.634753196129539
0.654539508272692
0.61316750430141
0.650217047849016
0.614924914028264
0.610588458169738
0.606343631537937
0.641736545513609
0.59735675958035
0.603388525745999
0.60518325039255
0.608190764695543
0.587723447767933
0.607352775670581
0.56748152137141
0.605447446184364
0.571924691411693
0.582332829891917
0.587426969259867
0.582434292042949
0.563581495043526
0.586123929728293
0.565334375904203
0.565565996173975
0.56826880835107
0.581799974218729
0.556380042713796
0.569277165827595
0.539598049590337
0.561939062178009
0.534939837341912
0.545709690572392
0.533655415645338
0.542673530398694
0.526316504575084
0.521571437618523
0.527013609854158
0.530132189437383
0.530693315659224
0.546327762157796
0.514082186775834
0.533384086882195
0.517278422083535
0.522901462346601
0.508626283933123
0.514011399425417
0.502979528412262
0.507681830109876
0.492565503929135
0.508737949028109
0.497092244377171
0.501129721752588
0.486895213780437
0.509062923819991
0.472473368692924
0.499779913300903
0.470522588390561
0.481990791748251
0.468579933319292
0.486310737754399
0.470728725548211
0.473713462603227
0.461575559959104
0.461913241743058
0.452684282321889
0.467557298778558
0.451130863767796
0.454880155363096
0.432549907914594
0.462036599127969
0.439477024803154
0.439407819269825
0.454775847253379
0.449551296171675
0.434713638202175
0.451515280063568
0.430810683475506
0.442993964104796
0.432629582716836
0.441921176843152
0.434178132348104
0.431335881669208
0.418743028773559
0.429788133322462
0.413359393550892
0.420595177188458
0.42647983573242
0.412517487831327
0.412467209886879
0.425723980229619
0.400037824138237
0.428708985902044
0.400602243236616
0.407894036291197
0.40634804995156
0.417423393534264
0.394078003716109
0.416562914276791
0.388403192752618
0.401581180889193
0.391036515919351
0.391644715687136
0.380622552161062
0.39328613146282
0.379786007067501
0.39532922281707
0.376971602037614
0.402269124310394
0.374830650353482
0.396943890171001
0.37052975235195
0.388210786388705
0.375083436482111
0.387117217105077
0.373390880323479
0.387702061168243
0.364639482514416
0.381145606869453
0.359330102125336
0.377259105445816
0.363443218759392
0.381977266848344
0.36148898266992
0.372107970223088
0.360688537169991
0.380405169016112
0.360000748634577
0.381713176126594
0.372812924844097
0.37619582085188
0.371572602632497
0.376772581890592
0.363092245607614
0.385989691648792
0.363019804037703
0.370903238302886
0.370923904230801
0.390161597719625
0.375427026539864
0.390747871610437
0.373945461835311
0.387551643955722
0.382094176874868
0.381970254042374
0.398617756018846
0.392359306798754
0.373114761501097
0.389367518374521
0.395453554987444
0.403914581259576
0.387265404477608
0.408948274139826
0.401561781150139
0.400291466561201
0.39234667261225
0.41412091090014
0.406127123892261
0.436221461484772
0.396005227262093
0.430816793800774
0.40798156609608
0.428137624202713
0.419776203291666
0.426927190520322
0.421805552065657
0.442020354076694
0.424210952830062
0.446598473421244
0.437513263102988
0.433436602673199
0.423723416648906
0.441526096014776
0.442625950984786
0.449159858978821
0.437741265564537
0.457750205939741
0.434123498530974
0.462187679922809
0.454593952819697
0.484343582754953
0.470301203383694
0.495204102841553
0.473156457643253
0.491203041249223
0.471793146634136
0.489359552291933
0.481600430360788
0.499303030914513
0.48880783333719
0.501300246863136
0.500686525542871
0.512445962291657
0.491969629653482
0.518775458586363
0.502402471557778
0.511561884816769
0.507599557733591
0.529906561415247
0.495445114578125
0.518252060690516
0.504824126527332
0.518039128867348
0.520167049816236
0.530679640787859
0.507060912149077
0.50930956574511
0.517793315377285
0.524489984198552
0.51045353830187
0.535736633882978
0.503076830290276
0.518037915582771
0.498137493872921
0.527961351403984
0.501352435775383
0.525603711966688
0.5010192768608
0.515678571349617
0.506156639192088
0.508309292228803
0.5039783383081
0.520767558415965
0.500544182723263
0.524476018890503
0.513635926713211
0.530819766816104
0.499603387972349
0.521081981202493
0.499345741161299
0.516996447130675
0.51059779323487
0.521157651762605
0.498635868538653
0.517610528602171
0.51263649506778
0.516216423305113
0.50408071119402
0.513869904606935
0.505459029593758
0.520524517019746
0.496885316796718
0.518880476116307
0.502062872857359
0.514772683913137
0.509493482428775
0.514530648968222
0.507279710965679
0.520447431911102
0.493094016467324
0.51193479589461
0.493054502874767
0.508884317126292
0.499739488472718
0.498072840857509
0.503712674411855
0.507576863794981
0.480750778752421
0.503489305386903
0.487750825348449
0.500782450011636
0.484382440409026
0.488659250460854
0.473547449127841
0.487171228217172
0.46831202573788
0.478704852759787
0.463573025312752
0.48352780187108
0.459406108660573
0.471064690916951
0.444537594245112
0.460692508132444
0.449419654221326
0.454431069279243
0.441329148028413
0.446034933041474
0.426860583450189
0.441859668060106
0.422238459242602
0.434274432556214
0.412392744684032
0.429062576929046
0.405165875276063
0.417244689589157
0.40555020266997
0.405618194056308
0.397241595531994
0.414495689767542
0.388748797665504
0.401810577693752
0.390475551013743
0.399954991444867
0.381041217863665
0.391968273607124
0.366428800030103
0.389620805923042
0.370401673804345
0.375646534035187
0.367024510973516
0.377681136361012
0.363354101525999
0.367248173796418
0.359324752668573
0.371876287369271
0.364705305479075
0.363222331793848
0.349986701263286
0.360771044387578
0.35144051693055
0.359191382204768
0.348039350617787
0.356558264107241
0.339860034712097
0.356581993263051
0.347635846302923
0.351102354260865
0.333463512190286
0.341741576385632
0.332513740315971
0.345646126679609
0.326221395519539
0.336761320170625
0.32801780608557
0.33754077675244
0.318679675502578
0.341572475540999
0.317112657985072
0.333479383831141
0.315224738616138
0.319367205440075
0.320903092388435
0.327085174989105
0.311632942121578
0.325800386432169
0.310504491268327
0.321637486539647
0.314244961832103
0.305666666965794
0.305757386662436
0.312633426222649
0.303888296145688
0.312924422215964
0.305588702198227
0.307379120809625
0.29763729792364
0.311923371898733
0.304056203908674
0.307200730034802
0.298861368957638
0.309539264080114
0.2952527879705
0.303447554903871
0.296816930039179
0.301479989870753
0.28605172379581
0.300113761226272
0.281852953825541
0.297237546479888
0.294249669212229
0.296533061507656
0.279890296715407
0.291981172971906
0.280594813404278
0.293342668633989
0.282877904259815
0.292385372431739
0.289531411806843
0.293069783355829
0.288405500800857
0.284905110632955
0.281815026790025
0.28521971810267
0.276484800391041
0.276598713587472
0.277153595541774
0.283087922153318
0.2706326348565
0.275589530639953
0.269607098610702
0.275989687012133
0.275424008249598
0.278582619841259
0.274468580395724
0.276635420118528
0.270026731165205
0.280651695268017
0.268677730391277
0.272889461646949
0.268607553602845
0.274086560720423
0.266602665962131
0.269344032663154
0.261625185506182
0.27439134667265
0.262909462710058
0.270579182998617
0.25805827834695
0.271549369550745
0.261610044157329
0.270440564013134
0.271317547163618
0.273116897282227
0.266980903227008
0.268688768079514
0.262566118434682
0.265105934274049
0.258729112078522
0.267904592448653
0.260940126515986
0.264342652984725
0.262346919353195
0.26182224696965
0.257847793219769
0.265931822241793
0.25530988807572
0.267065048091649
0.249699102704705
0.259660596232647
0.257462109059945
0.260359906333331
0.248082139604611
0.261960250256366
0.250907026726487
0.265628194511053
0.25120932472286
0.263299672579324
0.256496784260604
0.263927216901189
0.251473070442905
0.260638425438483
0.245165869015469
0.25144747601285
0.251981541645867
0.256465581168937
0.247043962753853
0.250913583671767
0.240768638345556
0.254528374895358
0.242199960351516
0.252855215431985
0.248216152703137
0.251371174679922
0.241582603940246
0.24777129960952
0.241843578507477
0.242215654268225
0.23576872265962
0.242768724157618
0.243330567823534
0.243599212852251
0.239663572850827
0.24770083230975
0.236156201561098
0.242931882980282
0.234700121722923
0.244119367830966
0.231182170059652
0.242513423939068
0.231281954329381
0.242836436301075
0.234114372763861
0.237535189438006
0.230750141387001
0.23276176907852
0.222394139248761
0.234056306661089
0.231201396797798
0.239809183782828
0.231793736678641
0.237883200669885
0.224208459343052
0.233883120873465
0.223772147341039
0.227168928877408
0.222971515275164
0.227727372309351
0.21877560445311
0.228571658011687
0.220639138841714
0.224017817112954
0.223343043035607
0.222054221064475
0.21621716679741
0.228168568969723
0.216437798216367
0.220420108311872
0.215735943212969
0.216421667761752
0.209952764110837
0.216678795118847
0.214449047714008
0.215322647299382
0.211827112431313
0.209304400893179
0.211678211678632
0.211200376847946
0.205908986552321
0.213449511476325
0.210908861013503
0.202066526608371
0.207938836784844
0.208116281766345
0.20290937064344
0.209250453029513
0.199982715695358
0.201598370958577
0.197316571316897
0.201730155722841
0.194976317838652
0.200648018328462
0.191208836921166
0.197235769677638
0.190756705490032
0.196194119686976
0.191018897582391
0.197714360510361
0.19240000836401
0.192891671311503
0.189798528262358
0.197929600420292
0.183240347057455
0.191626690675481
0.18256418168803
0.192567874388991
0.186926233074305
0.189540368316589
0.186719143279536
0.187324023923799
0.1815444898167
0.182273475589544
0.18035864032644
0.183379059576474
0.17838598437104
0.18334653521082
0.179710975073435
0.17999977364806
0.181537408958252
0.174893381328882
0.17168834119004
0.180527398596412
0.176141432168564
0.181585370291646
0.172512788294908
0.178167234227677
0.170367067535731
0.176678700832311
0.170746567793822
0.173430841302345
0.170353436656929
0.174803134687805
0.171465993629468
0.168994391088166
0.167206515111713
0.170849065310675
0.168395414478276
0.171623988197811
0.160580429529548
0.168062978422445
0.164630501189559
0.169658214849634
0.162452903125821
0.167171413444825
0.160780260639396
0.162719431343513
0.160248955274877
0.162128286011296
0.159638681731702
0.159940555217342
0.159479192724377
0.162150009813344
0.158009094927219
0.161409085485152
0.155044840563657
0.156179058966007
0.155583724015014
0.160111614506404
0.156505214230694
0.158144279479047
0.154198983975317
0.154754951440678
0.155143184135729
0.155481305275265
0.154488752039503
0.155748834913677
0.150586517746443
0.151719066145255
0.148175471027031
0.155381596742199
0.154922681885995
0.151920198149494
0.149761446388586
0.154797490942463
0.151241929271511
0.152173029270468
0.145958750545269
0.149807757539741
0.147775097947387
0.146671557663144
0.147886776090634
0.147601015626974
0.144200448924592
0.148239752744294
0.146834801204435
0.146925733859569
0.144319828552698
0.147406747572308
0.14640704448605
0.146547543997126
0.144379773775666
0.14842190114525
0.143196504590743
0.142275948738507
0.140429325459387
0.141051712974847
0.143689179176034
0.146105466966237
0.139348431941144
0.144611056221232
0.140812571458844
0.141081207516924
0.137985007672923
0.143855083324785
0.140213120827373
0.140277109919932
0.136414133504458
0.139824188728346
0.139603256810521
0.137532024165062
0.134390531256488
0.139068609704028
0.133114448418966
0.136901368773663
0.136671384399298
0.13398732106121
0.133024824812485
0.132724341350254
0.132047302835308
0.133851906623727
0.130881805150026
0.133098021830989
0.129628065263691
0.128927938847424
0.130568038746944
0.132215664273616
0.13171965756097
0.1313801084702
0.131250882117026
0.131602905231482
0.127997113297518
0.127380110832526
0.128333136706682
0.133050190098683
0.129158228004422
0.133043330509329
0.126505617463503
0.129753791480871
0.127727126304376
0.130586547783331
0.128581124509545
0.125265181638117
0.125545160403295
0.128894269279338
0.122289531282885
0.127656192321983
0.124951158584899
0.125458482541746
0.125925676534029
0.125122548436171
0.124436575054668
0.117672482017271
0.121543428197209
0.123280282138878
0.121905823750024
0.123115346748047
0.119973886823344
0.123422515203313
0.119304353409917
0.116853681348704
0.116960404150713
0.118333853605153
0.116784744042769
0.114368365324005
0.115335646439286
0.119306567408457
0.114493760496419
0.114618095076763
0.114589706433137
0.117880080199407
0.114526228831707
0.114560502717523
0.111568138983065
0.109785614551651
0.111113409702573
0.108680426922532
0.109627046228128
0.110437555720019
0.107430094629251
0.107559714859275
0.111505874212787
0.108183644709651
0.105751708900243
0.107415707661102
0.101024277370666
0.103893443112648
0.107630819691645
0.106507306841299
0.101858260944948
0.106039919975671
0.105171521324732
0.105452580756319
0.104575804520705
0.103625528552023
0.100958923699872
0.100556898976902
0.0987564345150395
0.0993778826271602
0.103242145008826
0.0998032286349863
0.0983016786460652
0.0976006119105917
0.096931987174526
0.0985380978250871
0.0976098842635924
0.0929102554322879
0.0947865586295206
0.0959394921905144
0.0983316357502816
0.0954604244465755
0.0938772139900925
0.0936764718236307
0.0919208091689254
0.0925660521382631
0.0913679058480938
0.0923552059858801
0.0934742462098316
0.0929563503748836
0.0895482835769871
0.0918221942061076
0.0890652731141588
0.0920660735132445
0.0915724711746636
0.0899631093662373
0.0912446612342027
0.0862905172149928
0.085038380250974
0.085189471259735
0.0845140875587589
0.087890754851781
0.0882949853604427
0.0842499223875885
0.086655807004527
0.0852241188227882
0.0841565301488416
0.0820469098937766
0.082420209748364
0.0816621429426321
0.0836468747113217
0.0805984665285319
0.0815794869690774
0.0813893508896329
0.0826009548635732
0.0796690951615738
0.0817629155088584
0.0777095977511665
0.0782621656209135
0.0764472957782963
0.0759653155165288
0.0778742111203259
0.0792558702986231
0.0761167662033615
0.0775811595715534
0.0766850135224204
0.0759599958416715
0.0748930196383075
0.0818878899193436
0.076320759368575
0.0776231719786827
0.0771838944333411
0.0766731396401878
0.0769261830173173
0.0774617969556756
0.0774794173572683
0.0783046703930935
0.0756447332091637
0.0776187644525453
0.0734118302923572
0.0815708683559712
0.075481198764914
0.0762888380188772
0.0753517137576104
0.0770342454381191
0.0760961071768584
0.0738487141378289
0.0719822558540616
0.0720837050667261
0.0683541627349525
0.076134863770616
0.0761844522156023
0.0786964700676004
0.0693279020167924
0.0766858584568575
0.0661467255660991
0.0738852320013595
0.0739623122228502
0.0775488473131569
0.070778500115458
0.0785810469562225
0.0740914725171013
0.0826261685792396
0.0717662578651514
0.0736124834058316
0.0755467437435431
0.0747725661123692
0.0729283110945322
0.0773915561637459
0.0639816348937229
0.0799823359433808
0.0706171387647982
0.0801977400092979
0.0696718999165623
0.0737071849126151
0.0589641236607681
0.0738231195031902
0.0616920345161373
0.0736954620207399
0.0669422654847174
0.0820968944729403
0.0565530922326886
0.0815444059304152
0.0628620560113376
0.0867247502592048
0.0528633864982079
0.0836622563725992
0.05230903823341
0.0888475993008664
0.0625621385751223
0.0886139442154112
0.0512618249877075
0.0857706405309583
0.0476808668710219
0.082549590827271
0.0520534532799209
0.089539456528055
0.052222354827474
0.0786834387744639
0.0467204497935467
0.0873130765412957
0.0609904514146598
0.0744214460749252
0.053819560139653
0.0776097477059854
0.070019378168711
0.0594178689509438
0.07381846033377
0.0579853399801974
0.079311448538636
0.0464779472018943
0.0863315109020899
0.0504971556528881
0.0820390178330345
0.0482178529547722
0.0787736664103484
0.0514027046849823
0.0741915037198438
0.0592708208640071
0.0685680568693126
0.0611288094427965
0.0617601431854666
0.0625932172437842
0.0664143065574401
0.0599047484862836
0.0636025740750695
0.0586584808784022
0.0650306034992302
0.0563180233019805
0.0638856263165802
0.0587510052343917
0.0638568410908202
0.056812715789761
0.0636397330517401
0.0574178401420346
0.0613981020036053
0.0589210648654731
0.0638144504896549
0.0586260543600634
0.059274190341673
0.0597109318984072
0.0645090391418107
0.0584206703283067
0.062491007898975
0.057307316094606
0.0622053220164623
0.0599202111852135
0.0646057689637057
0.0571469356550376
0.0590502893824445
0.058452063073307
0.0617938632108857
0.0593372160116511
0.0629957517984452
0.0576048829642888
0.059845265688809
0.0583212216875622
0.0612022459124446
0.0582262417607262
0.0614894406305885
0.0597620889544409
0.0643787073554912
0.056547814157628
0.0604934471774739
0.0585532088620983
0.0635577742131189
0.0558262195638468
0.0607331895714298
0.0567841878642436
0.0606775762803666
0.060361130691365
0.0612301232069397
0.0581920298033088
0.0614111723287806
0.0616521923532742
0.061157708747014
0.0573329044139401
0.0591211543233471
0.055585773144314
0.0591316261121778
0.0593994370089286
0.0570766182233155
0.0578394988612056
0.0613290290895783
0.0588526388512417
0.0585568978975345
0.0588535814580905
0.0596958935224769
0.053295821253078
0.060432880321788
0.0576956439535282
0.0603971759097366
0.0568204092277569
0.0600193522592562
0.0598911299947262
0.0587383477796908
0.055357919581447
0.0581578866490091
0.0568651243173236
0.0626001456927738
0.0595292135752512
0.0620116812781508
0.059763182119342
0.0578657143603793
0.0552735528342067
0.061957118607816
0.0601873800465683
0.0597608061023477
0.0598662850623989
0.0604208845042514
0.0576751538567391
0.0605540942490173
0.0578515729406227
0.0579156918597802
0.0598470314157534
0.0631531419027184
0.0601380524419921
0.061756167614846
0.0581360501095091
0.0590402738547311
0.0565665664908494
0.0601222113810697
0.0599489363595776
0.0616466633542869
0.0585204811705573
0.0615332729666275
0.0604402831543551
0.061158580060078
0.0610148429867251
0.0627142865635087
0.0579086329742926
0.0581616379015814
0.0594077150822165
0.0629144093479442
0.0606229804129661
0.0602137898246134
0.0605081476019264
0.0640046419755954
0.0614104729141485
0.0597277553080684
0.0609919832819701
0.0621354690156564
0.0617966479088221
0.0594039906353637
0.0596347922402181
0.0628054459981585
0.0606109590204016
0.0607453780731572
0.0600999066098022
0.0633630262114826
0.0614982148684294
0.0612052966934142
0.0569105326261205
0.061776955181596
0.0609053040773777
0.0602162738743655
0.0618249303509955
0.063067515310828
0.0623264925613929
0.0627824251116206
0.0631350626054208
0.061405134748207
0.063006944074886
0.0629156505380295
0.0608405342261035
0.0623984707886938
0.0638218194435006
0.0631032534628769
0.0633580304502549
0.065049596483131
0.0612720083649283
0.0613141515835666
0.0643754304477292
0.063348048790677
0.0650514587879998
0.0652651317347039
0.0610219253834388
0.0670372815193921
0.0669118170151398
0.0630068642098944
0.0621596746182037
0.066562897384928
0.0632100275029592
0.0635550396870412
0.0633997302652454
0.0630061943353357
0.062245361605698
0.0636345763563835
0.0643836209367855
0.0639099426960255
0.0628551483442131
0.0686159293322022
0.0643074642411305
0.0649577321654303
0.0604736974023447
0.0618198330285551
0.0596597628086828
0.0630789765258436
0.0618819941715719
0.0609261767794965
0.0654556307793687
0.064609875721215
0.0612231506841451
0.0596576763469093
0.0613460681449083
0.0613005306834363
0.0625236511717269
0.0583402356457359
0.0605758090561624
0.0600045438555249
0.0606685672289538
0.0612345796223563
0.0606978416668377
0.0608417260643563
0.061131758696995
0.0625072200299848
0.0593555010176504
0.0610823486565508
0.0601499207849605
0.0590289483211408
0.0593102123482306
0.0609001625193653
0.059952105220822
0.0603811088764535
0.0619806475352538
0.061394680684022
0.0607256173968495
0.065159207841288
0.0621493045065265
0.059035023952269
0.0578703802126293
0.0592758757761104
0.0579176357004565
0.0594378953213081
0.0589630311548267
0.0571488847111715
0.0577608125773692
0.0574626061194649
0.0553956916463606
0.0576288237662673
0.0575077767265849
0.0616721830768103
0.0594074121858384
0.058083975030575
0.0614782558072737
0.0587235266884975
0.0585838213475082
0.0601379763660771
0.0533827519710252
0.0576332442170338
0.0582978989681355
0.057438629946375
0.0539236514991683
0.0559328408674885
0.0569655760290951
0.0570632266170109
0.0593211666921111
0.0587595591453143
0.0580134232201362
0.0587436927924719
0.0572716054026228
0.0580832709863797
0.0589936717329028
0.0615242765182788
0.0588838623242274
0.0600315169206664
0.0575899385568692
0.0569215543097278
0.0607583152739984
0.057712146707207
0.0575062118787246
0.0566273574701287
0.0566596931839521
0.0565713826618586
0.0565318447651059
0.0553893914207596
0.0570966454040884
0.0531024836980817
0.0607077017157597
0.0593562371665889
0.0585473187062058
0.0563392011918595
0.0579515504034654
0.0564614622478382
0.0569687537812933
0.0541804721272533
0.0555049375249694
0.0538970667483547
0.0570936181384073
0.0562730374273624
0.0594137573177755
0.0568149353459583
0.0560509855104204
0.0589210378646308
0.0582111999944807
0.0542264091815872
0.0556404993213983
0.0541581290560352
0.0554325346712007
0.0572625118531286
0.0546397431247996
0.0556799420658782
0.0540078847782657
0.0576979860301192
0.0566834038652261
0.0546335590528329
0.0580339323157794
0.0538620187543301
0.0552944507014946
0.0525196479891386
0.0561917454988331
0.0523339012207519
0.055494267844929
0.0555865036074295
0.0515325575752958
0.0503258736302199
0.0554788907397737
0.0540845391563714
0.0545027147430128
0.0512416471449752
0.052298706483697
0.0526284828420945
0.0520622974534501
0.0517387015059648
0.051803459741124
0.0510767399659402
0.0505416888341214
0.0520708126210388
0.0531004089996218
0.0478008383965315
0.0561378195102485
0.0493972653398768
0.0533928239981483
0.0461478605260017
0.0520158918590956
0.0495358776117246
0.0489861468881474
0.0491503822440923
0.0510219914320021
0.0443498244225574
0.050247773653017
0.0474546517609242
0.050916914735242
0.0483672777006767
0.0477999579233714
0.0469331303800528
0.0501018330660254
0.0454092323035812
0.0489520060409502
0.0469440438485742
0.0489938848079258
0.0453008281758279
0.0498744565034179
0.0425304982033564
0.0482102486429538
0.0451225250424983
0.0475661052159362
0.0466137054998098
0.0478997923404032
0.0470257569473076
0.0491833104469483
0.0497543638935604
0.0478058614059723
0.0450177744553353
0.0441275800369139
0.047315025576667
0.0463529707013233
0.0452214426359374
0.0445378723994392
0.0448832098603688
0.0440532183402813
0.0444663794060287
0.0448429600724227
0.0468588658001632
0.0457895431036706
0.0428377192947961
0.0438662342391252
0.0462889773206976
0.0452094210647211
0.0439006956623788
0.0468374922789341
0.0414915003755095
0.040576024881788
0.0479843639474485
0.0463040650261957
0.0465383580893121
0.0429575357054532
0.0454900330458223
0.0427835609816495
0.0463234366337967
0.044360772734131
0.0441604248784124
0.0447662708282882
0.0434184013703233
0.0434215532141242
0.0416501133796686
0.0429188935344072
0.0442648465237374
0.0437126530170127
0.0433376224546131
0.0454356243595324
0.0425749596291852
0.040211764236183
0.0437900166531349
0.0410347735036978
0.0432584031796056
0.0396478411385598
0.0466967141018466
0.0373250683429498
0.0373431875723917
0.0554360819746009
0.038993191995224
0.0450442828296926
0.0396091821010058
0.0454638606861962
0.0363602979720068
0.0442514561908262
0.038332304628197
0.0438172018145498
0.0408485238722415
0.0422318154682478
0.0386173600399123
0.0409892665583045
0.0382524213599751
0.0425706252842562
0.0377845226379125
0.0431243589887059
0.0373502460305188
0.0459585262330926
0.0371260610092948
0.0420632937854719
0.0465038108956363
0.0446452673005655
0.0415567892964897
0.0449560873451942
0.0238183005657906
0.0594806424737844
0.0441993199791337
0.04751956117565
0.0373836328559613
0.0457768404255913
0.0372199546153831
0.0416046939715692
0.0372272077176591
0.0421745859047648
0.045456700945502
0.0391135127530157
0.0448541893336808
0.037742886993775
0.0372276430326053
0.0402784656890779
0.0373462479664498
0.0401651419485165
0.041418885709134
0.0419517142440822
0.0412968181101722
0.0430911644348619
0.0373552230944906
0.0451520774154091
0.0354003699624384
0.0365986851138202
0.0446181689889654
0.0437897192355487
0.0362075129748289
0.0439998826194685
0.0343341343187821
0.0380583570909859
0.0573760718434893
0.0392518222313195
0.049919320670673
0.0365685267114776
0.0418052268961203
0.0404626668749255
0.0401899199689318
0.0385850539403362
0.0416849653234956
0.0411605554742027
0.0401064690617481
0.0404024779931097
0.0408116939130799
0.0409176518832512
0.0403420857141275
0.0426581853344362
0.0410574646797759
0.0446801247799716
0.0391567127301052
0.0479524064122862
0.0307111822582195
0.0400177358140969
0.0483596640553157
0.0454471770937724
0.0466965202691016
0.0418270658569836
0.0402770601766156
0.0396309771132325
0.0447513209608164
0.0366636506694649
0.0436808065507292
0.0396523245858784
0.0458120296444182
0.0407201508942635
0.0434299763508996
0.0381850104939126
0.0451512058767686
0.0376333390696156
0.0439084845308508
0.0343855327324989
0.0445056387651031
0.0329921313426955
0.0459609676266138
0.0291936550370029
0.0512349051180954
0.0384727085598387
0.0543629117660079
0.014596908913969
0.0550860708041991
0.0614287812485069
0.0392581189308454
0.0539140281945987
0.038712765096451
0.0484175747394697
0.0363334007220373
0.0382981595221575
0.0479012804681346
0.0437884876850734
0.038623272889746
0.043728676870836
0.0448089593841956
0.0486612980588388
0.0331707589375021
0.0310270785112049
0.0645199935482971
0.0443072616809207
0.0519515236583006
0.0407599914484189
0.029503294087614
0.068162646724908
0.0391540827701915
0.0515120978800106
0.0439386232220776
0.0468751847331501
0.0437792619990637
0.050620380629517
0.0396955685531104
0.0490772140241887
0.0463723084249703
0.0403078694592931
0.0461504611580878
0.0419524561347487
0.0468888404186885
0.0412509547710026
0.0445948021812575
0.0589143474115385
0.0435681894268855
0.0499208016436426
0.05004618568364
0.0463147936743845
0.0476913833603048
0.051772214948872
0.0408140925124107
0.0423727827446795
0.0569682119875118
0.0391270510951354
0.0522273504966387
0.0565545457345072
0.0464381279583117
0.0524674030533033
0.0474562904972301
0.0615248647389685
0.0436029328394899
0.0326532723040971
0.0755239557659075
0.0373052912181366
0.0745165437084117
0.0414992361697272
0.0615678794296117
0.0395230989307204
0.0646639599268361
0.0317080910443974
0.0700096026579683
0.0464787671068626
0.0592582490037999
0.0463160340679922
0.0482322827874007
0.0546789067390311
0.0571536936654979
0.0572089930941044
0.0522532985437535
0.0463427232541739
0.0600577748359575
0.0640663074710497
0.0232421835907045
0.0769692017109529
0.0560577646113232
0.0682465276449887
0.0660613314121591
0.029676454457056
0.088072075131386
0.0572856052816095
0.0625338876045463
0.0535135857939415
0.0610630814111404
0.0595949128642546
0.0357297829384771
0.0810685642158978
0.0659351352188463
0.0556787054845837
0.0725711493689813
0.0389665703587433
0.0755832777641276
0.0698140823962745
0.0648670389725799
0.0569587320987717
0.0746944913428931
0.0384094670895467
0.0810888112719777
0.0804006642749762
0.0528712273843689
0.0895960508222758
0.0603444434281375
0.083082048753733
0.0665977234243366
0.0791835998172964
0.061325400245025
0.0882691029089033
0.072758577829905
0.0667399664916825
0.0558574935283666
0.107629995344016
0.062608359452894
0.0923359265382906
0.0723946323233199
0.0642532085807832
0.0662429874658251
0.124752867106317
0.0976168540380087
0.0962453086240083
0.0672325856566939
0.103534370593661
0.0883808821305785
0.0896487808038952
0.0898058654487803
0.0881312361437859
0.0908252828101611
0.0876786041244296
0.100226780408454
0.0968327605216035
0.091693596109948
0.102832368111071
0.0787881278050427
0.105133233403366
0.0912674608719118
0.14469743189001
0.0870402384426562
0.126389102859428
0.116911680404517
0.113129791842455
0.109067087887197
0.103595284309832
0.111054657362629
0.114481636607767
0.115463129579845
0.101720121969386
0.124173746948431
0.125728387246757
0.0983582306807634
0.158704317490773
0.111395027037903
0.139613527606353
0.023711055679896
0.294056758137408
0.145481563434275
0.146468426885528
0.14214089013383
0.0973703622494952
0.211742684169751
0.167483855546008
0.159893213475328
0.172343538136558
0.168235823812698
0.16707989729723
0.181721835576948
0.18121466696801
0.192003141838645
0.201361836126247
0.18244286557133
0.184362562035199
0.235456693315509
0.237697630383179
0.244753262910612
0.218281655542142
0.23674360013968
0.253199252104203
0.239143020422406
0.246806716642956
0.25834008876701
0.210939551838013
0.340191523917714
0.265807984856283
0.291148005894409
0.264896137807486
0.320723520000707
0.269696443394417
0.31988199937024
0.343418751228715
0.314741323358804
0.340144560601236
0.317945637690097
0.353089060693351
0.315160848433795
0.370443753206562
0.364012695900284
0.363469730796446
0.369900204278614
0.369704641601053
0.377155271078808
0.369686745752822
0.385616595944169
0.367646019853868
0.401450202870233
0.353814631634953
0.466559253841463
0.437486360948617
0.37900809077696
0.412483874361771
0.367464239734661
0.421430417922871
0.393633805834195
0.41701173435631
0.435121090316746
0.394079081834292
0.406072756242484
0.393768399011073
0.412152474048313
0.396919509360858
0.415493908428864
0.396592712701659
0.416999919430718
0.416467382811803
0.360600715697665
0.502939256831334
0.404925285739323
0.426652105779318
0.402288510187731
0.408525123417353
0.399579506008386
0.426873533224828
0.385913102079092
0.436057148050535
0.384775041382484
0.419616186741541
0.376903415599988
0.391676072541034
0.428948150286689
0.393045504548958
0.399611226590886
0.387561248299451
0.390382861605773
0.379375521510454
0.332097473438446
0.448276236562325
0.369527016559803
0.378864285010608
0.37462027098346
0.375876460957657
0.364966288230576
0.368389374903857
0.368881762774368
0.385561130928377
0.353023862493099
0.377341867361484
0.373064904274322
0.376835588973301
0.368337658172252
0.37026696201728
0.374980315637959
0.368654208813728
0.371696591120822
0.368634677728083
0.366570521528265
0.36685560071033
0.360689353818423
0.368201513821907
0.370637999368071
0.379887107408862
0.369399607810778
0.37264810994393
0.370632102776748
0.370229467804401
0.366871385717184
0.371029923402752
0.369272504154776
0.364270047085646
0.365803348349271
0.367812751295154
0.367510044341224
0.361833068330041
0.363665369413234
0.365088324547313
0.368189086592181
0.349237327102626
0.363870280717112
0.332691356531199
0.368632990515134
0.392966766103461
0.334079436763359
0.369681572741782
0.332674112554171
0.35340719475437
0.323104229665954
0.360111933309538
0.361642657645149
0.332431795615695
0.33788360159784
0.328027168254057
0.316807757884092
0.342403839011293
0.308039862620837
0.326861387540207
0.300524297615862
0.297605338124123
0.371221438363779
0.246960133825175
0.392274991320617
0.313634050131225
0.306895924741605
0.269865473075111
0.34747484573489
0.291685249054541
0.304873728394124
0.294833957382069
0.292970192185387
0.319544142606133
0.281466354487209
0.306114129290242
0.279649818463785
0.278699111026536
0.307434009122564
0.281750185231684
0.263937038352838
0.309818918317931
0.269531395928872
0.282815088196888
0.322971497400641
0.303464828601731
0.273927918794382
0.266559931467641
0.27367504792149
0.241931582367466
0.289166631401257
0.280636210609245
0.253675468866897
0.264744798781984
0.242619618052574
0.264980008669762
0.243972024732569
0.267341043232273
0.215861297957474
0.279263820861645
0.244207432310763
0.226865733813573
0.25453967247642
0.23594959887299
0.288128450929286
0.239736590593637
0.232567000821577
0.211889694606348
0.2696020847201
0.233614062205236
0.239509187898419
0.232750963782479
0.213076062776138
0.249916264101574
0.22760042466991
0.212030137402435
0.238730502286242
0.205840655039275
0.233388813540001
0.235166991976494
0.254095793596313
0.232198937722567
0.212309552726075
0.219339554545698
0.214137484541628
0.216923512784082
0.213636271101974
0.191981071224813
0.248176275873161
0.184448168983714
0.25146538445783
0.231523916304078
0.220585895941229
0.225481491971497
0.226766540042627
0.220741030831547
0.241615464772989
0.246683489595939
0.249520253994129
0.210267388981032
0.263743387117241
0.24014535537946
0.252597092557361
0.247602378582505
0.256630894703048
0.250958890773128
0.265914651257654
0.269142087909635
0.272522837320158
0.269089517144411
0.285696395463778
0.266157187478686
0.32651425962929
0.28454478454953
0.293815684468911
0.329496591577533
0.323035252189587
0.348793031012978
0.316377401497274
0.338646754429026
0.336597114472677
0.343049943546631
0.351165266321679
0.335062466003423
0.384227531665302
0.362341259140874
0.366053680770979
0.368261999942539
0.369209065108226
0.377883569102518
0.371204753728288
0.408790308642644
0.353481463224005
0.441427980793563
0.388124462787227
0.410143132971636
0.393764229722904
0.402483910637853
0.410285919566615
0.398581347662984
0.404666836610624
0.397115335525415
0.430166388190903
0.419355099324444
0.407818566126664
0.424630019821761
0.417231655823066
0.424746125998572
0.426084848939446
0.432257181173183
0.431866946705277
0.431397265604788
0.435261518732437
0.41080993361645
0.471031103706959
0.482376484665848
0.443751602713774
0.467196913253075
0.449087674403285
0.471541846479158
0.464105792272709
0.475730006705005
0.481659787212535
0.470973906801277
0.480649613598952
0.485975221959028
0.485170704872336
0.475884810069448
0.499020293872564
0.510640736499695
0.494142015248683
0.516170319326963
0.473702386928223
0.566865356728118
0.496915989103821
0.522944681271578
0.517457419638098
0.520378789778916
0.51458024634728
0.518292000053592
0.518691566162653
0.529331613919915
0.53151063081611
0.520992303049086
0.523958052250356
0.523967307088947
0.528309856788535
0.523415005331627
0.531198328229507
0.53581364976786
0.521046917829045
0.532568513161473
0.520474346461098
0.518801726521678
0.523591143809663
0.54507903762582
0.518012759841042
0.527462276234671
0.524060782826686
0.540856614620884
0.544037872676115
0.527789444055635
0.518950569896426
0.531055715897423
0.516984207320307
0.531651840286327
0.515720499231491
0.554535546352822
0.537027782156337
0.540500277765118
0.536628245592094
0.538556124734119
0.535742534884965
0.539208777137013
0.542936878280361
0.54605605999306
0.5374172838249
0.54180470715603
0.547872069854706
0.545940319033026
0.546616401241896
0.546272611109947
0.561406349042494
0.552517255625731
0.5444135842822
0.548417527441493
0.540351641815307
0.546263014744945
0.531946385542775
0.530891254587576
0.525122914815288
0.522325204145378
0.517329015301897
0.524501589918545
0.522199848533196
0.507253565550068
0.517018541787734
0.494472479483149
0.504637802330016
0.492868904664421
0.493846190498348
0.486007116167984
0.488257801877147
0.480650229804708
0.482466834336839
0.473952752242523
0.476281684293138
0.480226434945381
0.474479627599204
0.473129323133056
0.470919562995367
0.472637745802818
0.469994359820648
0.472221520992607
0.465500659872888
0.461040684440887
0.467107473031049
0.463395149644288
0.480305378653307
0.468921669527016
0.475341138196088
0.464452854529261
0.47451755128571
0.467654995281896
0.461327020516043
0.463191482971291
0.46181566254335
0.462828003872828
0.464416123645494
0.468887191079958
0.458347263041906
0.462728669280975
0.460483090445293
0.464507697747255
0.455470896084572
0.457405248441972
0.457312306021347
0.463703845641964
0.462987934694265
0.462217330113023
0.463802725333624
0.469420575792505
0.462537426336716
0.461916447390751
0.463949087580217
0.461314213893907
0.46073122942337
0.464511430090048
0.464250779691089
0.457832981390288
0.458083102241416
0.459099008391519
0.458521416617894
0.460368747775381
0.459016326086185
0.461186093485999
0.454861130827928
0.454167573533327
0.453423847447511
0.451135744196026
0.446705252329003
0.445983036683826
0.435988412346384
0.437489152716645
0.43372540961416
0.423711011751356
0.420244395259141
0.421301740800766
0.421134150535958
0.412083574368504
0.412566826278239
0.40684862759238
0.40320879255166
0.402434752014186
0.404584631154547
0.407528024338797
0.398173633890754
0.398730877938496
0.39882133815883
0.398443398832398
0.398533693440547
0.394730534666414
0.39378616356631
0.397440150296445
0.399178802806409
0.402112950915115
0.392078455714976
0.397601560718428
0.403672901170621
0.398723764331718
0.396865404920162
0.405933434863854
0.406075372745594
0.406148118722245
0.411109209040956
0.408754389362991
0.408430779403403
0.411435061291814
0.416417335870073
0.413364442915198
0.415111634460171
0.418360889180074
0.416805776041278
0.417001147336891
0.423919291475754
0.424475796330957
0.423218010372425
0.423323962333023
0.419720889294683
0.423267473604393
0.419914631950816
0.421845792874904
0.422444337868593
0.420715214273475
0.417328125897284
0.417521346320793
0.411284188419151
0.411792496841512
0.413561206012372
0.411130696571945
0.410337526199413
0.406979455301512
0.411625079985289
0.405254638125231
0.402705133851768
0.404767129461501
0.405022779319855
0.400508398113261
0.396574326706275
0.393891187740063
0.397415304473735
0.399085381742015
0.391900793586291
0.394271541951595
0.392843326873114
0.390162398172911
0.390327555597747
0.390937357121467
0.389437641357604
0.388025623994951
0.385769955072048
0.381118951143407
0.38273270536062
0.383699843126019
0.381517933292739
0.378293140778649
0.380530875708965
0.378266445738022
0.374568010460072
0.371029483420557
0.374292482322003
0.3683484562549
0.363533213239421
0.358453198839733
0.357194054986304
0.35836132923403
0.354318993640475
0.3501632871322
0.34811173189655
0.344167610429447
0.345837529761486
0.341970253766745
0.3397647677246
0.33743173499313
0.335899532974321
0.338697429612672
0.338793271802424
0.335258443187454
0.334200420986523
0.33547054228302
0.332765401260759
0.332523268267029
0.327299987906396
0.322196571193787
0.322390495866438
0.320293487457986
0.316511919653215
0.31222186854032
0.310468344148907
0.304712811348789
0.300836364921062
0.299725107700351
0.294730124702403
0.295977649638257
0.297673966619486
0.29932736158925
0.302010514960985
0.311647834891758
0.313353620614638
0.324054891696819
0.332235665898442
0.340876438800761
0.354103101715657
0.364181958974985
0.37909421279024
0.390976281104773
0.406935662918369
0.424706021678196
0.438499666395983
0.449992526826594
0.465346905215364
0.481710159161608
0.49432758090584
0.508469496954081
0.525953166187017
0.536914879855737
0.55380054648238
0.560202015948242
0.577366493397996
0.589505477214294
0.595134878389031
0.60485431039594
0.62005305903803
0.625406111776583
0.63209219299525
0.639197902184671
0.648186913381794
0.652116833342807
0.662409876897179
0.672376772556349
0.672819349736811
0.676199742255354
0.679762611543401
0.672180029883432
0.684262189878098
0.692726045485371
0.678995298888032
0.680793300095594
0.6864256351299
0.687345692545813
0.683556820096733
0.693175373783207
0.686065506553954
0.699454863524636
0.700192686732467
0.697287341416895
0.710863807139537
0.710630588993075
0.720868240769594
0.725966456545996
0.72328836341437
0.724457129023746
0.741921774902168
0.740560284057398
0.753278138729056
0.759461348306696
0.77088062616724
0.781214166493659
0.783877434782906
0.790881631157694
0.809524080863842
0.830496586672661
0.827972455757757
0.83757326745166
0.850283501473679
0.868683351923553
0.86388027359645
0.870232470592478
0.884032958619477
0.873878067958013
0.878882788922592
0.884566144583562
0.880321570317187
0.877238355970106
0.872228809406306
0.86736366509522
0.871523416461829
0.8741395317553
0.857555511450051
0.867184313112653
0.874836825889502
0.886559304934131
0.884195844529786
0.895229282400715
0.922361153844705
0.933534869322003
0.933213550338157
0.951666281867191
0.961152028780483
0.980781378816633
0.989078206683367
0.997492151287497
1.02048081499131
1.02443778634359
1.05573039829431
1.05356452696253
1.07912384102075
1.0815922076208
1.11291572982049
1.12499181723084
1.12296521028648
1.17742907437769
1.14788272020671
1.20337112853214
1.20272566744461
1.21618184512247
1.26233161912508
1.30320138597454
1.26701279376489
1.32688295519919
1.31085844237723
1.36437239349129
1.36073625678891
1.40323667509754
1.39307880353799
1.39896017486025
1.40232155073152
1.46843470020303
1.42809171765338
1.52616336177324
1.49643656420223
1.46908911181194
1.4463931205504
1.46427283225492
1.46734614705513
1.50700817609384
1.44629216564298
1.4770295812077
1.48997383790087
1.54506450635194
1.4564321784557
1.48237587974082
1.42668055372885
1.44269912217418
1.41414659435759
1.48655215012581
1.46729759399834
1.45728972073003
1.52182237040161
1.51054279469468
1.52478489111783
1.56827849378923
1.53106115328163
1.55246222790409
1.58714265831215
1.60100211919603
1.63535131969038
1.53812825607592
1.63680675781937
1.59837518059069
1.66611203243172
1.63266146720694
1.67666330383094
1.75704192434831
1.57395573216991
1.78389056232097
1.81653567401618
1.89933309980763
1.62194197880105
1.69920276778838
1.71230922195359
1.70800082131436
1.59793706552812
1.79067246243125
1.64122622613165
1.77385685887988
1.68065585730851
1.64320341321466
1.64510623424711
1.72867941294486
1.76816006875358
1.79534019435548
1.74105499261023
1.75627759978108
1.74741252161248
1.63421196704992
1.72880995236941
1.61781468901399
1.57543497430069
1.67219778236617
1.61908552729852
1.58188385407936
1.43801194586901
1.46896510480307
1.38482987836338
1.40544435973816
1.34051695293157
1.32885532546767
1.31366211652806
1.25747632150738
1.21114501885564
1.20260081513037
1.14520825604697
1.15045392075894
1.14691094824335
1.16846292839366
1.12738522625369
1.10725947514879
1.11688047073399
1.08739812227826
1.08577482730302
1.07525774307767
1.06054803075071
1.06459916207535
1.04229905100089
1.03604669037896
1.00545826191608
1.01482851261444
0.980584446797394
0.959278110332115
0.937892591885044
0.899630002020322
0.900292080520256
0.850570251086628
0.820658580317196
0.798322631348838
0.762592684954393
0.738183386877728
0.70238459271554
0.679629619973081
0.643282071306129
0.616911029358391
0.584396139460173
0.55583580502391
0.530490120826947
0.508721969438576
0.488954717516054
0.475249276102405
0.461898595881887
0.432649246495524
0.421916793079046
0.411171682837789
0.400681934079079
0.386263039504292
0.383027537737433
0.375900712642001
0.368434868414874
0.363831744979726
0.359235435441995
0.357204588376971
0.354640351918392
0.361294166440165
0.350176577498673
0.35616277674032
0.350443875745405
0.359913013450255
0.359132532110383
0.357753227555006
0.361018197602964
0.361483779588991
0.35893032183574
0.363810304406185
0.359102581528003
0.357136523215889
0.34286909577137
0.355403744087853
0.345478929039428
0.338482317381162
0.338869955454214
0.33348232623034
0.330369298529719
0.3349247962494
0.322697311229741
0.330949700628512
0.327671206960059
0.326636247148324
0.327601625050085
0.322791722025822
0.33107132524333
0.33431705415079
0.328346700005977
0.331859609189415
0.344217019821563
0.344290547914508
0.347728336998288
0.354028730675569
0.354943642861801
0.352583659311452
0.355996926908134
0.356785493979984
0.360707117727991
0.362060982734777
0.366901154211966
0.367492811863625
0.361493254579516
0.376182638752702
0.364640484740022
0.370910824885516
0.35968966986561
0.373858088460573
0.370930392872071
0.369584995235225
0.375298603667249
0.37775294113598
0.384624045078686
0.389018470531133
0.39798072231165
0.403621921628222
0.406075037778364
0.413887884159532
0.429278172167813
0.443740907457964
0.449876175148812
0.464750882745687
0.480242910684276
0.484511788238729
0.489550527158543
0.492992419609769
0.502304709198445
0.500229019144928
0.489465894819459
0.493186359406649
0.480894409665315
0.460625454418987
0.46267976718981
0.458120180133986
0.455080844029817
0.436407555782541
0.439334921741387
0.441258189550524
0.442700350100528
0.4379351008664
0.429643717035483
0.445232457209243
0.442022175492124
0.440792459499709
0.44032198922321
0.441478457367474
0.420089750159657
0.436453598064824
0.413770229387571
0.437406325592031
0.415314353318648
0.407207948295444
0.412627298317157
0.403776814848795
0.405985261299503
0.397726554161596
0.392790167679618
0.400034891437717
0.374239492552605
0.396310810754668
0.384285589176308
0.372876080318504
0.371680257114178
0.376458270229864
0.365475498206964
0.366440464157975
0.358593486295884
0.353672992325846
0.370831548450664
0.367217491651915
0.347893755982729
0.355091519836355
0.367115589966296
0.356088448249719
0.344352220826604
0.35089869598669
0.337765092047365
0.3426012255283
0.353222361466663
0.339182701295234
0.333694042644541
0.337400254565012
0.334341173674476
0.330425849991243
0.325400872749589
0.314626475609127
0.32497328947742
0.327457251485671
0.31372366364918
0.321965845180257
0.31407358125771
0.307278995077869
0.307666782529924
0.314595094760022
0.318123528036108
0.307012091417723
0.314660829837106
0.316604466411071
0.315424091447757
0.32334359510522
0.314026540344565
0.321631342051624
0.318659849240796
0.318868963843701
0.327404615684899
0.316668340767074
0.327431441999558
0.330817047716589
0.315049942924226
0.324205844042458
0.325486006735017
0.34332704371535
0.333707349674124
0.346352272643787
0.338653681788354
0.33327304873621
0.335227409071361
0.352542339220586
0.347808546064315
0.365133250615053
0.353697389765755
0.366729628971034
0.368453521123725
0.375975213443396
0.381241838891181
0.385912312017549
0.398029056839311
0.420117162828394
0.396414358514766
0.442784873106417
0.434254627437387
0.45612770643643
0.477736311878764
0.487450905981898
0.4870366661298
0.485222953621822
0.47436446230458
0.517784984584225
0.521323397981062
0.581638916116484
0.562020633452375
0.591557366478265
0.561064923417075
0.599268071809311
0.576108073902635
0.58477578072342
0.586701582954945
0.572607139598465
0.519932933022476
0.573987498570842
0.57725002684422
0.556387204864021
0.563419830688825
0.549881375094815
0.571272375205216
0.568901059905614
0.575975813915647
0.560146058603896
0.559666186863866
0.529877590243258
0.528393743547919
0.536237733930377
0.550536429463104
0.558266814052351
0.535675814833386
0.519202485889718
0.512051320452876
0.49720064992096
0.488061705086084
0.494659534725859
0.484675223126604
0.481140928154829
0.468094306185582
0.490665790588365
0.485442403178123
0.557079799292478
0.493200680887149
0.482594706925729
0.475187835720331
0.502902216823792
0.468295437409037
0.505291399815633
0.483637702224096
0.475882229679172
0.479928073977461
0.557149350236221
0.489308356394983
0.514607637560507
0.500270771654835
0.498790315476179
0.501707547003716
0.503333948300825
0.453138545434015
0.520053591768592
0.510117875312155
0.460383158323722
0.487569479462867
0.542885522753265
0.497186674369298
0.533455867107885
0.503667958185354
0.491603725417152
0.519181841044545
0.543531181328373
0.536615837575291
0.535069395646776
0.53120248710618
0.528664950085986
0.540163799426661
0.576685174115983
0.561465997472158
0.542068224132722
0.582379415881791
0.602424518756959
0.515269840223186
0.577709886562257
0.586420215194571
0.69206571609381
0.658185148427525
0.643340923035797
0.646783211646422
0.763768432443076
0.606472317085211
0.658693462043576
0.687435919330945
0.605704293659103
0.665650160423398
0.648350208650864
0.676277146468911
0.658677447182489
0.659011210084783
0.708536052964068
0.65565081011947
0.702036327708318
0.625748616245611
0.641706999546725
0.564708812534522
0.72580109514249
0.765135617011871
0.727413853675249
0.824318722874986
0.750368343843084
0.543084549762797
0.599831683046178
0.672768260177018
0.759397921786262
0.550984441865849
0.53911913705625
0.495554688133198
0.649912532645365
0.657600201609974
0.640824226150211
0.670965488703441
0.698265347753453
0.585733105458948
0.646895059964204
0.480138236795175
0.7472946790174
0.726879606513774
0.706116620036801
0.61022813401347
1.03563689404856
0.497809474687513
0.708523717499553
0.634010108039328
0.582740394802796
0.364479107102122
1.5248600984173
0.793170646302472
0.850834695962199
0.586380881060398
0.681384738458359
0.570806297427471
0.698060586501591
0.612620830329463
0.76632889761781
0.528432165068135
0.685764724652388
1.37684971889378
5
0.68006896906494
0.719105417984424
0.389680593559
0.493062707000042
1.00033899305382
0.600027122521741
5
