3596
4000.36533379555
650.420452594757
1
2
2
0.07904909461491
0.0614578418305507
0.0661223915924404
0.0442328468453179
0.0830425658300954
0.0537196218054065
0.0832043818314474
0.0538593820989077
0.0650707678725636
0.0585607137655935
0.0721374155665174
0.0604304545171222
0.0856225945446881
0.0560742197145946
0.0831550840923288
0.0585807700182922
0.0747716308336743
0.0470833239419936
0.0758539370038814
0.0571464052950529
0.0692992266518824
0.055071236188774
0.0779303899688109
0.0431518853042154
0.0681201894018909
0.0672161657747875
0.0705641315153244
0.0478191256569674
0.0822657701159823
0.0534416963336185
0.0744777335840122
0.0544434189911998
0.0815215112630457
0.062693621907593
0.0803207996452925
0.056298120797945
0.0762230735440746
0.0634942213804118
0.080634912062461
0.0548154630375957
0.0854785758029685
0.0513748396849761
0.0726535298388193
0.0547566397169896
0.0796634847997405
0.0633218249259569
0.0691688472913288
0.0613792763079251
0.0722076038823442
0.0577511593171914
0.0824842189986468
0.0482437929242374
0.0807768499772468
0.053329647585287
0.0804510576285294
0.0597154348191452
0.0597414621823415
0.0649905796975903
0.06829848588058
0.0328099850706746
0.0755145118695811
0.0680044745354362
0.0622877511623472
0.0568024377512957
0.077184301456306
0.053959516748096
0.0634337363154347
0.0610693860543141
0.057417197495697
0.0543634921477491
0.046767922679476
0.0648208849697107
0.098073737925635
0.0572161759209882
0.0694480250780538
0.0542182276687358
0.0676952087732614
0.0595874748435696
0.061956601376428
0.0528261734648193
0.0794456682326973
0.0583205404959108
0.0738860975154201
0.0491879449748729
0.0516918531965191
0.0726089612057824
0.0589446483708724
0.0391562686088583
0.0903304360274929
0.066453650431209
0.0675887648941408
0.0542652627783868
0.061825003479978
0.0537515233695485
0.0565791933505734
0.0545477839754356
0.0651956691660887
0.05345233123663
0.0634016573532411
0.0470943196300013
0.062597358570119
0.0215459048716375
0.110058506204624
0.00578489024658735
0.129313983145531
0.0553294309101348
0.0466039983317509
0.0867091734504199
0.0917073634961608
0.0559332558347597
0.0583137652319588
0.0593740560527355
0.0609824601581118
0.0575770858872151
0.0319416682945141
0.0538843194737235
0.105676325381749
0.0619879700601086
0.0579627352288431
0.0470964111072317
0.00942518518529507
0.048799645317678
0.0983380338557884
0.0399755144418343
0.0825942691104904
0.0482606917393613
0.0289818505948571
0.0680699704159372
0.107392091720603
0.0509300671863176
0.0592349800783892
0.0389590004271765
0.0514844510557333
-0.000710173569542341
0.107957687805449
0.0506712788212558
0.0640230870148024
0.0102610771586782
0.06767553021898
0.0921496778873955
0.0838993906985425
0.0564573756087752
0.0372960684384578
0.00708532566968547
0.110415049252441
0.0520255213935187
0.0528005904745349
0.0534453390629923
0.0957708269949459
0.0429300458722047
0.0658136683129148
0.0214475536037906
0.0857225034993729
0.053418868786842
-0.00964410268383769
0.0638887312262711
0.139748722878596
0.0312763669268694
0.135085873030821
0.042856042531576
0.090170742538943
0.0411334058815367
0.0705977493528185
0.0345862891705711
0.0696513227822683
0.0228886592611492
0.0463070017813888
0.0744291387730729
0.0463985622365048
0.0259415968363994
0.0888256713680956
0.048754879305194
0.0100203782948059
0.124646827528463
0.0756623061362847
0.0136634835078298
0.0938081510373041
0.0616341433460499
0.0399931844323087
0.0295167097174516
0.107618808760242
0.0492024556333859
0.0572513127293523
0.0266870697502924
0.0594042489471209
0.0574191943034232
0.0760206257378417
0.0460947404385475
0.0659361178253431
-0.0044851678510576
0.0443552325934806
0.0675342298825098
0.11025493463673
0.038736447138261
0.0663601368590315
-0.024936498437654
0.103163436251814
0.0801983750639325
0.0714472603344927
0.0432227838876637
0.0572209249702912
0.0402842519408976
0.0583685037832726
0.0460736196036492
0.0520942336873006
-0.0170061531166547
0.108032442089224
0.0734062847635295
0.0649335559036433
0.0327826525065891
0.0530187587456637
-0.0122571244626867
0.111642904062085
0.0868317179118837
0.0620641971047046
0.050975008713139
0.0367805532481341
0.0407244964758401
0.087958764474149
0.0505907636386998
0.0711852091083475
0.045223334830179
0.0642604836476926
0.0423959204100357
0.0595048600705321
0.0458865086377201
0.0597049080120017
0.0375119394366953
0.0580678274716962
0.0474456392605961
0.0802068711000771
0.0539252690657013
0.0601948852514053
0.0494222812145135
0.0407486131802534
0.0292276292792359
0.0967721477751845
0.0533194605660782
0.0710557121064146
0.0434176014111333
0.0598164886340054
0.037691808661325
0.0634294269184452
0.0381973252495843
0.0566673216057041
0.00483146329761632
0.111827735548079
0.0478086027241019
0.0679597142136407
0.0158684809747108
0.0835433208676822
0.071625825773379
0.0650573378073403
0.0478276825114576
0.0704382821779813
0.0302860529719218
0.0366223404663078
0.0706282584927964
0.0705867276994673
0.0374210771813278
0.0760301430314738
0.0592109012382675
0.0610368856823992
0.0342150600248832
0.012263765712296
0.109689945109021
0.0802820471331217
0.00100332810315815
0.132131889413618
0.0674319797964507
0.0773459468068818
0.0365857025466526
-0.037095944575892
0.124926865870993
0.125478180170574
0.0603620165087015
0.0549655854906539
0.068398625976307
0.0559477956303859
0.0409351853166766
0.068726964651802
0.0417623556079651
0.0927066411179033
0.063916511214662
0.146056129803954
0.012295983527386
0.0883016399626811
0.0868024867064471
0.0665354085382355
0.0556997642948509
0.0680092175489398
0.0412577225460447
0.0702853814027688
0.0749736743142344
0.0688450244323639
0.0595165278151906
0.0596614029824561
0.086478016866442
0.0861230037222763
0.0522294517475904
0.0652311115560389
0.0728182240143996
0.0617951419065408
0.0653837270275506
0.0579088726274283
0.0675976530231712
0.0489412211787136
0.00797384403399252
0.137474577520969
0.0683374603241374
0.057241476621608
0.0919317765448835
0.0835476864205928
0.0626617431949779
0.0656928637333352
0.0679066622184601
0.0739771464199461
0.047612845706726
0.0498358573366968
0.100329504863486
0.0832363975711332
0.0673955147168893
0.0850911297072616
0.0616588965704132
0.0814622300883716
0.0679438161298673
0.0779802648865746
0.0666874679224773
0.0849503853094289
0.0445855228885362
0.0909913080623384
0.0887972151402673
0.0531860365869613
0.0809036408800157
0.13052117444151
0.0728045589693158
0.0935726643761889
0.0685947489833707
0.0937342781825227
0.0701937283156239
0.0881058114339388
0.0689027585352279
0.0763551598277551
0.0969368700192354
0.098462981987365
0.0559815337273855
0.0635365251061067
0.0986980342473966
0.174858066629335
0.0972040760387295
0.0913093842377039
0.0372023783323172
0.105318964301077
0.117079806026336
0.107132374779403
0.131454964648455
0.107084499104704
0.0967271893280949
0.100627223823771
0.0936673431182506
0.106124296860537
0.10533705101955
0.099838097977096
0.103830578622859
0.109602205763964
0.107621022690024
0.0992328378078924
0.0845858965081661
0.170003121010454
0.120212432319561
0.113811018254557
0.116364901819095
0.103784649431286
0.109325459051032
0.146165727787999
0.130382565356496
0.152942237130095
0.0958622618049205
0.184802750720178
0.124642898060623
0.14485669928796
0.120581492425856
0.141619894320611
0.129717192458566
0.145698038070188
0.135797844944493
0.145027631925996
0.134927158296603
0.167019692661473
0.133620888142647
0.153773792957432
0.136797790847182
0.180018921527428
0.155187683137357
0.160027399557194
0.131827543169746
0.147546355788277
0.195405121704755
0.228977782691037
0.168567488504293
0.177569236273368
0.186051196911051
0.175345703487498
0.179188775262226
0.181116331439254
0.184079069229792
0.186170405629541
0.19568461478569
0.211462114736277
0.194985110989564
0.232257303866061
0.179474495943929
0.221006322746917
0.204620764239378
0.201072396444135
0.252626419634254
0.236819995404113
0.191816166791841
0.233410245119258
0.248392602512332
0.202946816216669
0.24871150164351
0.242842190692354
0.235162429947862
0.240096039231885
0.237623196163416
0.253592080301947
0.247463622407898
0.271058230253607
0.245898493607707
0.273210339691153
0.254726804860181
0.269780848689038
0.269815653754489
0.290624508077824
0.254958732642867
0.293626320438399
0.268861913402567
0.2901612460421
0.251311152159218
0.288051302966696
0.307579291491273
0.300488814486223
0.338320077252935
0.31620482106203
0.29871517878707
0.322215105030857
0.304639915667767
0.326117671861012
0.308440093250731
0.332679189084599
0.328631798528162
0.344615391063275
0.316124611860181
0.338583656476956
0.331245254800676
0.355011889603834
0.337316369133642
0.337827433254929
0.356031855902866
0.380499946679594
0.338101131320595
0.39125160701175
0.381222498281702
0.394433133869337
0.43286846628844
0.400884746800993
0.368290267764587
0.393717113748761
0.401630286111663
0.407798602454718
0.379319220913536
0.412043864348513
0.419656105884001
0.431945544262167
0.426707164743574
0.424844001234634
0.40450641745612
0.436668959387998
0.423416559721561
0.489679280074437
0.448875894738026
0.431195398510419
0.455160717011087
0.484556748615777
0.448447625798836
0.467579408014389
0.473738668901345
0.520434585015087
0.470147756296826
0.491082248256588
0.48117849037411
0.51586284881713
0.48928470115215
0.51046393887858
0.506624103191883
0.52713560457237
0.531795595155769
0.531111080345412
0.498286881337893
0.558704663803746
0.530000657068748
0.551128994296337
0.548086418233954
0.574720313780179
0.558831673717253
0.568911126528231
0.554175245044598
0.56427558754033
0.538193318879566
0.563078796041854
0.58008416728181
0.593155006251971
0.575267028709823
0.577075207596614
0.58026344206288
0.603940900207919
0.592634528871614
0.615709619860402
0.598887629129659
0.591269033999819
0.594784585687233
0.652736041956888
0.594742987118667
0.622660676520159
0.614526550898766
0.719780595936492
0.683155513507556
0.660690579221777
0.633909514178217
0.687552488310295
0.686622761174364
0.663301943574199
0.670047238329337
0.700039790584172
0.657185749179344
0.705334728004099
0.698514950701277
0.720343438946197
0.741113305869502
0.70809198307479
0.666410420061865
0.749053947095997
0.745611672642288
0.785508604945044
0.74596833987038
0.73493817324809
0.699548791869508
0.739104274134481
0.75222114063078
0.730359402566311
0.715828103691479
0.762073847252806
0.780175746014464
0.752591000225649
0.728281226958067
0.785956238080581
0.758328534801343
0.811516766663645
0.823119831817793
0.820789417823673
0.763149787566745
0.827966757968908
0.838956456231163
0.83213631671885
0.8281218884107
0.824219429584201
0.782837409511945
0.803262787410285
0.812234994651311
0.834693800174245
0.896707383442129
0.926149212867255
0.846378492070884
0.892093333763363
0.920448782803152
0.927002471480775
0.887760571313118
0.850369159400075
0.848412879199136
0.941152619004874
0.89399011875159
0.903940827203333
0.871854122966063
0.887423766086241
0.917277316452914
0.914746457434465
0.894992671719338
0.895197121270082
0.92126001629892
0.974384009241615
0.93092760459955
0.994707619748018
1.00057415228048
0.927022722407708
0.948801340321171
0.977646727212169
0.954796675369653
0.959928188061563
0.947706484658646
1.05873080048364
1.02396365416895
0.960960382206078
1.0093251378608
1.01013240879797
1.02938417892057
1.0174586674461
0.947135341726384
0.994835580169187
1.03100184252217
0.995181070312933
1.02085433767778
1.0704274870055
0.998834110030499
1.05314638281502
1.1141907123973
1.07706750048666
1.06109876684874
1.05801694010359
1.07358714263681
1.06577588245749
1.07920327093994
1.10689298764456
1.11494155321919
1.18182587683475
1.06256090285783
1.01449684766036
1.10678267592323
1.11428004013135
1.10526115410761
1.13669946805118
1.10039294104292
1.09998706275427
1.13663700738156
1.18908736897791
1.11624956223181
1.16070155982157
1.11161677282605
1.04700352350636
1.10642135390214
1.15840278915818
1.06672007337629
1.0717361781576
1.17142926247186
1.11709371522375
1.14833277600945
1.151364559723
1.18925396402677
1.16415130821471
1.17258546314773
1.11978769860767
1.14247797250747
1.16410214109618
1.17977063150292
1.23411559811723
1.42439597231768
1.27773879830524
1.17674829974005
1.23842927350849
1.16726168264747
1.1313660144911
1.18210713953292
1.2128178140091
1.24777265934425
1.17374088108875
1.22809103918338
1.30787871885857
1.23900307091908
1.26078989130958
1.3256313444496
1.18569027542037
1.24588649726707
1.20517029796918
1.1979524438632
1.23236142409831
1.34754498970214
1.29243743200232
1.29765540456392
1.35921755972356
1.34352774652114
1.33762311734939
1.23266349848363
1.12092635584591
1.29362712328938
1.30018472917045
1.3092099151217
1.35279157206175
1.29216664446329
1.21624596230527
1.25617779269903
1.23034206591571
1.39489781232579
1.28157662109441
1.317504961519
1.28713315792108
1.25148248407761
1.2147634976704
1.26388713149811
1.24430957844977
1.24446925490526
1.3592562147782
1.41678727521682
1.2793484691966
1.30592383242251
1.22569373384869
1.33612855667378
1.20963386725696
1.22502932328621
1.28546726271601
1.30082806812142
1.29439478631591
1.36999245285371
1.31037700866351
1.4673346517517
1.28767868801591
1.29771787223624
1.37941862501345
1.3570774553362
1.44319715269789
1.57601468763661
1.35624674510195
1.28689405149298
1.36373198695106
1.43661039475568
1.21784250057947
1.33778857632635
1.29069945826848
1.35118827025537
1.30769755528076
1.2870396881095
1.32882153639658
1.47302641417295
1.43258969531816
1.40489655805172
1.33446421274233
1.26857598511968
1.29187415279497
1.4018555267444
1.27029764082561
1.28088147045728
1.30253596933695
1.4245910202163
1.29508152878548
1.29873299381597
1.27412237653797
1.3960364418259
1.43537915087807
1.39453979906146
1.41524808814703
1.42578663738785
1.33104555136441
1.37744222884831
1.37861448159588
1.33552231941659
1.30184080891988
1.43371779150505
1.31910677937315
1.30295054854893
1.28413733749194
1.55485564464376
1.32589129996715
1.32906781666449
1.27809169444447
1.39423245279828
1.32691414721499
1.39017695160576
1.38917151755133
1.40467736832051
1.36145223762505
1.42084194453062
1.51533883362455
1.44435197709998
1.25737455012837
1.31308334534528
1.28686086831028
1.40427001381394
1.33305105316986
1.27692820388836
1.36906044643506
1.34420373941406
1.28123353366215
1.30915634561683
1.35595798291855
1.33683494382915
1.29494958470813
1.3556546850651
1.27526155850103
1.34358735608247
1.33694555320976
1.42011763708613
1.29381473930304
1.3188464503301
1.46660915161068
1.41154879490145
1.25893038826829
1.27773783767824
1.29124834830499
1.35713529740448
1.26740834807519
1.37467499165688
1.25918004553737
1.2895662251756
1.36353575712194
1.334236664376
1.26198229593239
1.39589548974312
1.28005144195475
1.3417486243752
1.28819573862612
1.33576694614077
1.2692274406847
1.24023289495971
1.23665409642273
1.32346702507505
1.23670947312962
1.27699976755791
1.19659070747499
1.31743438181986
1.25744639908222
1.30448795371688
1.31945049982172
1.36157033446924
1.23096277131031
1.27036391340957
1.16420056077251
1.34682037543422
1.27926093239187
1.32744340226871
1.22169508904895
1.29489893204766
1.26449497576326
1.23650160394265
1.21940680512011
1.23800206480677
1.25025398288274
1.28652799736695
1.23673332152423
1.33715495684019
1.1678313084389
1.21519265117244
1.30080590507435
1.24178325652718
1.16463528652458
1.23234608184517
1.17025248445377
1.18295559079281
1.23363120250598
1.28006557046972
1.28706790882339
1.22115450498205
1.17607217201305
1.17945986233994
1.19736720927896
1.22294809158815
1.13517905934339
1.19842321578634
1.11183890440015
1.11172214765264
1.10024201581825
1.22048699442365
1.11141983170108
1.15359949385119
1.1656673512032
1.21076772687607
1.12531488391169
1.17721094139052
1.09998461112868
1.09447859268661
1.10678876361136
1.15346307677112
1.08827635823097
1.12905392406122
1.02715596903253
1.16082814104734
1.08542721740099
1.20127021859882
1.08143160117335
1.15341691910999
1.10045063051411
1.1058411960443
1.03281941696696
1.09298248204244
1.02741381865283
1.06945979523671
1.01834639717373
1.09366002106455
1.05551925213525
1.11789933553763
1.07209415617906
1.04341224991028
1.06764034126269
1.05174648626622
1.00779809219571
1.02474971958453
0.991508431198949
1.06745214763347
0.958767343515275
1.06567736714536
0.987312656856483
0.976097326583983
1.01910379636089
1.01347905112831
0.949873473769747
0.975152262508479
0.956203854580153
1.00945838622571
0.952005758656454
0.954704977573573
0.971261414364457
0.980102499950179
0.972438227109253
1.01162728613916
0.918708448836846
0.987691837771342
0.901428256924438
0.929700532360724
0.908882825361005
0.954005521652102
0.925575360409811
0.926699061873724
0.886365021175249
0.921250817494173
0.894865867696636
0.9345758416165
0.848232114322466
0.90440171140305
0.848986474171278
0.89367438917087
0.91463500641617
0.863032320590513
0.829873550972091
0.83667443128895
0.806479972631754
0.869444375769918
0.818458081466445
0.834898701105205
0.799071959395795
0.867840806733675
0.845788222616952
0.852032590526786
0.806698468539082
0.834069879428184
0.816646954301985
0.825407278183913
0.805617119746659
0.807329110011179
0.781604462132189
0.82504178631444
0.783228772496508
0.809361194967121
0.776408099210688
0.774592248185361
0.776036434095684
0.772215300660988
0.780876559320028
0.783113924607446
0.748115976559496
0.761503560190329
0.754162792647324
0.749111414742836
0.745800863175457
0.77047855531805
0.73742408699212
0.760565013544157
0.711705831476227
0.74187245449769
0.718466195628812
0.736989185052734
0.705175702446004
0.742622561994842
0.681185500853887
0.703827628568432
0.697528944354038
0.739119537396522
0.701050297490668
0.711549956720426
0.696658336434435
0.715796054594543
0.683193211176324
0.717045240115268
0.681349051552583
0.682665268171127
0.676616672018329
0.681736834697117
0.664466205545651
0.683163297509731
0.662284204199348
0.655774839199799
0.65043554158312
0.669927211163389
0.671011597910885
0.682353283786614
0.634763569810178
0.653694574682446
0.638339923079611
0.633107710195999
0.636312871070763
0.638322543031226
0.613848636094513
0.644478824646295
0.624526699073057
0.644685468845765
0.598754426761504
0.636728275562398
0.608176927947589
0.632011128911621
0.597873778959495
0.622891188566329
0.598214502599688
0.60457220670608
0.590149284773211
0.600559169736155
0.589818821599385
0.587775186825357
0.56255926247481
0.584068410880512
0.581060421680517
0.595721940311034
0.560157665751049
0.564156639305494
0.558187069079477
0.581747137068263
0.552904418440971
0.568785981311902
0.544717256311617
0.548114244335579
0.545177151783205
0.559659196664023
0.541949841989016
0.548761893635592
0.544711363591729
0.554639378529472
0.527760598498798
0.547010459838018
0.527564779211837
0.542498705822425
0.508218609793919
0.531506030019991
0.527819058998358
0.535332230447475
0.507248891051643
0.519082372091426
0.50374125985293
0.53037168802863
0.503367859362406
0.510670765044605
0.501236611234599
0.529850348255134
0.497922115736825
0.505596847637294
0.490702829850527
0.503940500220976
0.483661974755091
0.489649461508157
0.479577352838117
0.490079616757812
0.48611843541867
0.493118542625333
0.473710402022516
0.497648494085737
0.468893939201611
0.477810996995479
0.459385534095171
0.484786459820329
0.466728408884975
0.49005527915411
0.46647118151323
0.478522280372982
0.455892412728632
0.4701891411346
0.449868786625543
0.470097940209084
0.45572119685106
0.468880951118744
0.445510076958581
0.461558542799908
0.448451256392467
0.45542089249118
0.448018097784828
0.468678520885293
0.456580853365943
0.477357781806061
0.453437856926245
0.481582156701522
0.44831711182226
0.460075492341272
0.44362575358266
0.463795930327109
0.451280395620224
0.466080233500313
0.462916826701362
0.465691656282046
0.464967096626037
0.481396434759474
0.459699585193902
0.4679441112009
0.472192547104894
0.487510982645932
0.463725495398618
0.483033928484889
0.475535516644097
0.489947984959288
0.477231111307344
0.490093864710197
0.49016749110981
0.490338806269916
0.473713486448233
0.502359219418593
0.49941381217809
0.492849556510788
0.489168201973805
0.505930465428702
0.505697271628071
0.513947064307358
0.503566242875385
0.517970640732495
0.508150085137106
0.522413345135821
0.500306763230571
0.524133065818279
0.505726422773715
0.518594612104281
0.509907279268314
0.534619158628564
0.524043980571854
0.552985237968001
0.523172455236825
0.552525782495744
0.526131262184943
0.536907846254457
0.545807919617488
0.560411797486837
0.550083043886282
0.563339679367977
0.563752850953717
0.560713616843431
0.568003914783258
0.574644071163126
0.560887498582588
0.588445319969232
0.577270616470242
0.58752176043892
0.582451155862113
0.610652876560022
0.600762761261511
0.612203527625347
0.586424507986093
0.592078097886327
0.592379583241209
0.618973066506947
0.598561781553607
0.603309962911648
0.597720374494124
0.619972031984975
0.58484302305991
0.616128030795941
0.578876408971171
0.631692610819491
0.600099677405811
0.589043528801225
0.585004941569229
0.60467396745325
0.587241685430211
0.608502341859399
0.589509961343839
0.597087274447671
0.605143158646452
0.59827828074496
0.584682230850722
0.59761183204309
0.584020123111492
0.599156456312205
0.578903243833277
0.590224638357691
0.576374383266815
0.600976517869961
0.585682122616397
0.602894300256316
0.594246096414221
0.600508272044152
0.582104019324686
0.603497050181305
0.584345264317103
0.606781792891654
0.575586267046699
0.600104533318028
0.594760086683671
0.598130297999837
0.586736094776407
0.616021126520441
0.573538288784101
0.602877980413294
0.582389038053922
0.60557230278663
0.579252041607058
0.604881665687489
0.589621722013832
0.608622839361596
0.573944126593697
0.596376447664685
0.586753903533099
0.601739443654444
0.569904179741653
0.590207069187104
0.565341991356657
0.583352409093169
0.560166338360681
0.582695504409893
0.556459568454664
0.588512649644822
0.551345690805615
0.588102856519248
0.563151960866363
0.571824921391198
0.555829692084259
0.572981846410081
0.540933180164625
0.571792806639333
0.542459481556325
0.554291862108007
0.535791690760394
0.544951646626553
0.526537194141727
0.549907925656179
0.535270991192017
0.52255094475105
0.524428281041375
0.525385788602569
0.521176805495067
0.528492537948456
0.504350181062297
0.501649731123693
0.497536507841711
0.505446172154351
0.492727861613861
0.488395583829888
0.482709763300789
0.49271273582686
0.477150506498422
0.486173353002278
0.472945085890019
0.475604182020017
0.465431843962086
0.467466961011952
0.450915196505341
0.462920859872675
0.451155221436875
0.460356867782522
0.445542249384896
0.456410888176945
0.443754211123919
0.457715925220541
0.438393428267499
0.447234007374858
0.432221589750297
0.447611874945946
0.426846635567931
0.440623515913662
0.423202753251905
0.432953458491748
0.419414888933315
0.428439300870653
0.412395142685104
0.425117370728528
0.403860420277551
0.429030668119734
0.408083269104609
0.425864407667015
0.409933881696388
0.41291080580749
0.402445262509057
0.410581625804766
0.3959916907756
0.413484165120974
0.400696400530393
0.402272131249663
0.394590741109104
0.409198435448834
0.387720035083342
0.399390186071482
0.383177779928646
0.383300604490388
0.382949017633508
0.38971338454736
0.371827791294142
0.395058616565937
0.381426806325914
0.39031049183563
0.375581851713674
0.388250293686904
0.371871580252879
0.384127992225669
0.372766066622519
0.377999342212722
0.368073103819989
0.383058632653734
0.37274104004491
0.378901396271078
0.359556027811099
0.374182478092604
0.361578397730526
0.36979910069287
0.368675321624035
0.361757520137497
0.358000871987345
0.367571051004563
0.35099182172895
0.362119122870453
0.351545231697109
0.362119440319506
0.3532009268406
0.356919530901921
0.34820543689515
0.361014952745207
0.348664192209433
0.358341764503141
0.350269578211853
0.358923081821302
0.341910393266121
0.358867232533259
0.345704190094496
0.347236630025561
0.343877658542818
0.356494356126343
0.338982970971355
0.348723023135232
0.340169322866162
0.343392638486043
0.334314465197001
0.33637214677791
0.339255223487843
0.343251142776089
0.332505086957901
0.340988817060313
0.337631241264595
0.34117064469874
0.336091409518146
0.341852459089867
0.332151596237406
0.335344559628446
0.330633544370298
0.340526065401706
0.323569970427153
0.336261079538582
0.334182562191618
0.334100213709243
0.32488466130298
0.326993986427167
0.320561200099947
0.331128921770577
0.322744745609952
0.330683812023888
0.326669539413539
0.335629131701736
0.331620037592984
0.33024009649314
0.32646825524155
0.326762614943322
0.325236295993823
0.323489386520157
0.320142112603836
0.326484751557169
0.317292588612239
0.319256280687235
0.315777026426486
0.323340063065393
0.317401296675752
0.321243753683809
0.310143961915
0.326507834520652
0.317071810087222
0.324564525631189
0.305802714958417
0.326614208026423
0.316806621775545
0.321444120620063
0.312581279318057
0.324645726857321
0.314443645369203
0.319818237127301
0.310647577175174
0.321836520203504
0.305895811663646
0.313894653923731
0.310937744774028
0.317961487822249
0.307872418625847
0.318700769890556
0.303734920144571
0.312358517064269
0.303015956475604
0.317417192415863
0.305263910721341
0.307177254406173
0.301489925153859
0.309086812895821
0.304020545992181
0.302992539784188
0.296431905104713
0.30904867275631
0.296883099100942
0.299422160839139
0.300346824317008
0.303953617065091
0.29242738168617
0.301890244372616
0.292517375878296
0.303693620581992
0.295935202432939
0.299012164579385
0.286414851238552
0.300347704253072
0.2909425083748
0.293385786906402
0.286869930823797
0.293626955921222
0.290791053226531
0.298152878564704
0.285641352799419
0.291106321351688
0.288781244050872
0.290597028119342
0.27949183024888
0.291009782733288
0.283306714894917
0.287461119319729
0.283444741076194
0.291117401818264
0.286563028595731
0.290928301942546
0.27959767097946
0.288845095970096
0.283085177171507
0.286344839462207
0.276193062872056
0.281648169105329
0.272578339745177
0.28553149099967
0.272069645756596
0.27517128703825
0.266469312791137
0.274295221157037
0.266900482228674
0.27773497493387
0.278297092093878
0.274526487865725
0.268676467524788
0.268104317576698
0.259870699105305
0.264650417730425
0.266294709956616
0.264950108880379
0.26488666086168
0.268338458129556
0.257754061650253
0.264202993752958
0.254555670621633
0.263123297391952
0.260247644195424
0.260226598327759
0.253829187033149
0.258586557311042
0.251367751448826
0.261466305168031
0.254863799429733
0.257913904361805
0.250409944503933
0.258506888317656
0.250557727003845
0.251639533863416
0.245112450721645
0.254105739245308
0.246492963327317
0.25219359412431
0.243803838841364
0.248652185137864
0.242969192993809
0.252816346444748
0.245664428043053
0.244136056030586
0.240879771797955
0.24402400972087
0.242376260145347
0.239840208543835
0.233612492053985
0.241875277296398
0.238225256429689
0.244900664173975
0.239082922951864
0.236737657188368
0.23536950204087
0.242857405982088
0.234786533322896
0.240379010317984
0.230444852071137
0.237527262346089
0.232058265341155
0.242494358119816
0.230452514101766
0.231287225407367
0.230356742307413
0.235231012202911
0.226578851341131
0.22758558129679
0.227444765144429
0.229920336358723
0.230583436448754
0.232415681195747
0.224634822289281
0.226657271065638
0.221155978255675
0.229039052777245
0.219902388693247
0.230219906007677
0.22273313898162
0.225597987877655
0.217938186219124
0.226311027091498
0.223012569520167
0.224617004781893
0.223776841349241
0.223937869484123
0.213259051547615
0.218404023965192
0.2149097793016
0.218950368745647
0.220189198788112
0.221831578911137
0.215653491471727
0.219790833084824
0.211989925646047
0.214054584118362
0.21691521961314
0.21734659016344
0.212490100175723
0.212833604604338
0.210391214877815
0.216394337841696
0.212323487635665
0.213956081006586
0.212767636033232
0.219480743475633
0.214101559560247
0.219281651465566
0.215261932457145
0.217901324166577
0.206261404811722
0.217180624421788
0.21705215399569
0.210464554544088
0.210652888916652
0.207447496006804
0.209331880233403
0.212267093725604
0.209101518912126
0.211864016010535
0.210308491385653
0.210293253690061
0.208862039742029
0.207397127579045
0.206630937590815
0.212895805968314
0.207253219118931
0.208995652719085
0.203280214405753
0.207029908038084
0.208486544305042
0.209466178175289
0.199374416127226
0.205031833097252
0.201825379212434
0.206741993512309
0.205242164805228
0.208981009114609
0.200767820047531
0.202542102447033
0.197705857402038
0.201493937089647
0.20107132503046
0.199551989179917
0.199458287402138
0.202809643101849
0.199415947949084
0.200008208596718
0.19952630127724
0.198236092197932
0.19533922002615
0.197458731046274
0.192738046473771
0.197535265208129
0.194641462359503
0.192775615074869
0.192308435040741
0.197720059705777
0.194662011862634
0.195312123416312
0.19399199564851
0.194486141674387
0.192506638571038
0.195940423778716
0.194312155028098
0.192614155842731
0.194264470654728
0.196157226369433
0.188692988984427
0.197764272639123
0.191080767933898
0.194909630919078
0.192274775958501
0.190714655503865
0.189536076239816
0.190903662575267
0.18941600089159
0.192105859513698
0.187821286994065
0.190045548966827
0.188326549776711
0.187164544977909
0.188399329596955
0.189915121064762
0.186362155715845
0.18677662368012
0.188313254832212
0.188944673116801
0.18886450320133
0.188739114940957
0.18562653465026
0.186023059400622
0.18201506965782
0.182480233255769
0.1773764339636
0.182285965166974
0.181291267861347
0.176521553396416
0.180671701730205
0.182252933512871
0.17691282428992
0.180443958584672
0.175286962692575
0.178014298819026
0.178758267678052
0.178595194670912
0.177457303145518
0.173824883473509
0.171125123844198
0.174369542777354
0.176676486193033
0.173423940616615
0.168491709618561
0.170424360782701
0.176892129799492
0.175366078069388
0.169320129922136
0.171488400051399
0.166254070113926
0.170322165445288
0.170513109246189
0.170327750825927
0.169853981865573
0.170904579054094
0.169546744182427
0.166397842846931
0.166715449767308
0.171711264911886
0.166626561412535
0.163546595505436
0.162511873568922
0.162067767644179
0.168420417395531
0.167634974114395
0.160660751476616
0.159501134032663
0.160195997353617
0.158415137665764
0.158542749876065
0.162638575684252
0.164669867887235
0.158892115754569
0.163557289318549
0.163305263879756
0.157165015022533
0.157106317207762
0.156786946758413
0.156579915712598
0.155146704804956
0.156214210676972
0.155864429794773
0.157527576288916
0.156367355480827
0.156812309713941
0.15445632270895
0.156634381715574
0.155680214899274
0.15263524217409
0.154880750003681
0.151707336345645
0.149046860591601
0.151590480431013
0.146408516056338
0.145304069803634
0.150090212751913
0.147555411665406
0.149259806867549
0.148574572696836
0.147667734328633
0.145704337417617
0.146383733936184
0.144076881101505
0.147588903049403
0.145683978720152
0.14475145128339
0.146323685050031
0.147977668057395
0.141469388850252
0.142499280485338
0.141812743269476
0.14223888469197
0.141469973265525
0.142237069381264
0.14264026425195
0.142740304906023
0.139013324432321
0.139371301349986
0.14163483722942
0.140383959207906
0.137710229488271
0.143343412796031
0.139531945658459
0.141380102007828
0.138963737364109
0.141592480163991
0.139795075955936
0.14106575490312
0.139214235139217
0.13778943454047
0.137077369460726
0.137151211879695
0.133056633835126
0.140968315043862
0.137249871760979
0.138533643790676
0.134580502656982
0.13470708942419
0.137696308912808
0.135012668814536
0.13310439052884
0.139307022979844
0.13489903206788
0.142586274949127
0.141168169638125
0.143564299901659
0.137288914786408
0.138434614792981
0.133239655903976
0.139934677539399
0.134899036295631
0.136430956710068
0.130715176628589
0.14167815674726
0.133989137202762
0.138319052845177
0.132309865824756
0.137226045677534
0.141500426408403
0.133547835848862
0.129891940826671
0.139308393193501
0.130199187943058
0.142905105352088
0.130425572109092
0.139373996680933
0.133313575778211
0.131786200166502
0.117034489607682
0.137670484264445
0.121588616558337
0.129966438135624
0.126204975759476
0.141478706379562
0.119588596974947
0.140002255262342
0.119606496577947
0.145456483039721
0.111862427249737
0.14453480744103
0.11505975167037
0.149408034126015
0.119312975327507
0.149464877064682
0.115751941980717
0.144868976876389
0.103206132043754
0.146845110549728
0.114955563850612
0.151150495026645
0.110753990172328
0.140937850301145
0.105512147320085
0.14930055618877
0.119128029973155
0.137475145791586
0.113008001384025
0.137845556384278
0.127434258006294
0.124718632914036
0.132347591489669
0.122548178438794
0.139284983896377
0.107779196025969
0.142474690896198
0.109882790648868
0.141891531659419
0.10790560574601
0.137940539311658
0.111841288787134
0.131943877709928
0.113508478971881
0.127443187701063
0.118656768429645
0.123548673306798
0.122125311827906
0.125586147338727
0.11897583398916
0.121002306828773
0.12005393532198
0.123419008684884
0.113611618555276
0.1251459781592
0.11871728715952
0.122373572973263
0.11829422078362
0.122488290800656
0.118185407285948
0.123274989698638
0.117835161455761
0.122525365512592
0.117977128532886
0.11964120281139
0.116423196455626
0.122844481038434
0.118847260389932
0.119161913662197
0.114501715916224
0.120878688316058
0.119996269955162
0.124678591343955
0.119312409618436
0.122785642491371
0.116261517214853
0.119404447100381
0.120176709352489
0.121994314608601
0.114968044047005
0.119088398895599
0.117826454985831
0.118747629483969
0.117093014744321
0.123160075076347
0.119125979346917
0.12618499880173
0.116693034503399
0.117643879753874
0.116021026978467
0.12142911980669
0.11786809591491
0.122899364786899
0.119275421134061
0.121620009207568
0.119443115387364
0.117507005241433
0.117436301523853
0.119714483669075
0.11815254514572
0.121098559340795
0.115302599434177
0.117398493450288
0.115968207107375
0.117266312453338
0.116810220744888
0.119972116548926
0.116909315814725
0.11822908433675
0.116338657625295
0.117018896394044
0.116975621301108
0.119860332790365
0.116192097859685
0.121131406092532
0.11713596365638
0.119158676733023
0.117832937174776
0.119085728654522
0.121259336116127
0.117345294623021
0.113596539941747
0.120695192877077
0.118055466020875
0.122580516462463
0.118181653592487
0.120826101106527
0.119959923144002
0.120392652697323
0.115169333797572
0.119292073304495
0.121215704185771
0.120431683841103
0.118806570916837
0.12192900626564
0.117427756367256
0.121178893123723
0.117099714490037
0.119493168912231
0.123380662314791
0.125727890650111
0.122741837368432
0.122346418542407
0.116373095934627
0.118197126733246
0.120725415876929
0.121991071184016
0.122158292808968
0.122269777289545
0.119215789419603
0.124290138408311
0.121510855161308
0.121541454592595
0.120220791871848
0.122330667992454
0.119087718824459
0.118727127005221
0.121149583149905
0.122691990720217
0.121018436155766
0.12081494243839
0.120352550059753
0.121938191743673
0.121195018929738
0.120781461602292
0.122750683681692
0.126042819344347
0.122078438728171
0.12364149466566
0.122983094707454
0.122089325320551
0.122365640887674
0.124037817077576
0.120593423107559
0.126035366475155
0.123464081141845
0.121518198717347
0.119463347012686
0.12480610654959
0.124714115009923
0.12428501241086
0.122451348345135
0.12458246570263
0.125321136760207
0.121864996580742
0.124889939022114
0.121513712528386
0.123344631481014
0.124840108334813
0.124716838153193
0.12604206008061
0.124485738202641
0.126164199995209
0.12685581605032
0.126188518814025
0.12443729949161
0.1232106150507
0.126493558972631
0.125360582846929
0.125376961315759
0.126029244032827
0.122312834885247
0.129317718324275
0.128327279725397
0.125895793262936
0.12583710370906
0.128771608923147
0.128585288542117
0.127002180591329
0.127323461162525
0.12548679358037
0.125361763687432
0.126885234739755
0.124894082309334
0.129452244686669
0.126232689578846
0.127512541685258
0.125193659354434
0.127886970123173
0.126080380294436
0.123400164498468
0.12598641163867
0.125297654955102
0.124252256893806
0.126014656102387
0.126111562492408
0.124303770531842
0.1265996431247
0.124210481952792
0.124845433444935
0.122640281785581
0.122320300384647
0.125266830915395
0.124223249021916
0.121983951589117
0.121531071786015
0.123288018921549
0.125668722193801
0.122842682447115
0.124101962039134
0.128055487884217
0.122053363275102
0.122176773696223
0.121593319166818
0.124945091809051
0.123327530954842
0.120941304955851
0.122246206762457
0.122671346929756
0.121586553709681
0.121011017864659
0.122212176173037
0.125473901634376
0.123124315567509
0.117980250103633
0.120069374445904
0.118613587765791
0.120631883674699
0.120828401031325
0.122455715881291
0.121587148925435
0.122718698877971
0.120281202938679
0.119189878738111
0.116471126796319
0.118706688891174
0.120024877778229
0.120732741908821
0.119197445991358
0.122264230037474
0.12223815049788
0.118976085400508
0.121541285592169
0.119200372531601
0.119933777785461
0.120858195153577
0.117947616323683
0.117491606151277
0.11644424177195
0.120341981343622
0.119766991980358
0.120430547642913
0.119336497979281
0.120438097558079
0.116168088218749
0.116355852385831
0.119928040958697
0.1180499432711
0.118321219064857
0.121049785782677
0.119649776406333
0.118372975143612
0.117304539499585
0.121827432095671
0.120519948699597
0.118023526359696
0.11942492086095
0.118359683968541
0.11927330991899
0.115786899283781
0.117773684888423
0.119197922904854
0.115663513327992
0.118280894425539
0.116565079330115
0.11955595990399
0.11510165384605
0.116633724161068
0.115651094913317
0.116802474987279
0.117372599523195
0.1131361267286
0.115039177535269
0.116631778113814
0.11464548122845
0.11829508032088
0.119113992411661
0.118539365335825
0.117283314898224
0.113498500630029
0.115261667789372
0.113019830713892
0.113752127583433
0.113245327095823
0.115680374356091
0.114599062868292
0.110654480534884
0.114920686606981
0.115592524388153
0.113486704059283
0.112738183324604
0.115671780587214
0.114173079451378
0.112993097619415
0.111256392328568
0.107479132618006
0.111575897356515
0.113568271303715
0.109803183415053
0.108846339937357
0.110112186889197
0.112472235305588
0.108264269447486
0.110057234782131
0.108971997045704
0.110063905428025
0.106552016085166
0.109055880319936
0.107899990188145
0.107172932318139
0.10794343010627
0.105850396651721
0.106596046986287
0.108336110848015
0.103781606731944
0.113516680503328
0.105192382719978
0.108857334054795
0.104391116482265
0.105671440459372
0.101870319394965
0.104630826679291
0.103782242037297
0.10444994127154
0.0997405966033492
0.101523923455021
0.102437211561977
0.104089268043542
0.101148600910442
0.1032855932212
0.1007320576872
0.103221869465154
0.0988242160570396
0.101065938547296
0.102334832486797
0.103421262647938
0.0967319372073424
0.102608540591084
0.0949804082812225
0.100548441256077
0.0963696675222033
0.0996211667608658
0.0993031962703764
0.0990091790927989
0.0968748042966139
0.0995998791323031
0.102086856114526
0.0973937341968958
0.0956309497859485
0.095285450826678
0.0997671534194451
0.0979501359315196
0.0962616235686756
0.0960249256930819
0.09425828944061
0.0971970347284016
0.0962551621855504
0.0977265717786471
0.0973830682352338
0.0942325724983245
0.0951761527322469
0.0933389876024182
0.0930803275922821
0.0968191103397399
0.0929005873080463
0.0962805970734849
0.0929703696827721
0.0904561923387854
0.095759197989312
0.0977575120469081
0.0939508378987797
0.0914987325632452
0.0952069545321579
0.0924743300471172
0.0908945503971791
0.0939457819955462
0.0925451579628707
0.0917857143610216
0.0941584042346312
0.0910889147506225
0.088910015668399
0.0888954085679712
0.0909824730117102
0.0920187067105622
0.0919081434665416
0.0878279081923516
0.0879030181523939
0.0872744805005621
0.0931287048258335
0.0877579013091331
0.0882597686182493
0.0850509475770381
0.0947013186906579
0.0845713393784064
0.081296410401553
0.100372636280767
0.0869443435498096
0.0928421423146401
0.0846221473832775
0.0908203390563683
0.0850886778591946
0.0884854025489594
0.0851164503751045
0.0875559664720586
0.0829108349508099
0.0883373879094885
0.0822235366871984
0.0876659756130008
0.0839301531680172
0.0902527465972201
0.0843361902815921
0.0868035182148141
0.0808560647321368
0.0886825021747433
0.0811199275665881
0.0863348375070672
0.0884896553268724
0.0872320547116801
0.084675588754354
0.0883345966905796
0.065301751244839
0.10657470936876
0.0847087222624138
0.0908480873981794
0.0813067833772213
0.089700849282393
0.0801175096928273
0.0885526017485038
0.082332786600477
0.0849015830056661
0.0877831665062038
0.0803528188875004
0.0867201354799094
0.0808374279652806
0.0809716826822079
0.0806544733944714
0.0800689041640908
0.0858566225790666
0.0821916256407365
0.0864598141283576
0.0832210236274979
0.085716574315951
0.0786779497165773
0.0865576844308594
0.0777993364762712
0.0819090399830271
0.0860736981857713
0.0839175849370764
0.080403042380858
0.0867291742569512
0.0753290329384857
0.0784141594131324
0.0977265308620652
0.0799400113874715
0.0898384720194463
0.0773342060915555
0.0821728864315462
0.0829567730329723
0.0800901335225923
0.0786494465792502
0.0835589205597168
0.0797773266090728
0.0822343563141536
0.0796083400206387
0.0779480979921697
0.0824360918101578
0.0796543306086405
0.0829062877663205
0.0787828976825282
0.0826010729679497
0.0782690821990297
0.0857435396389964
0.0684332038514707
0.0795697068099112
0.089939461140285
0.0862098058597489
0.0876324219820076
0.0825507801363336
0.0805227834028687
0.0791946246476437
0.0815581643339477
0.076246531493375
0.0801896385611353
0.0791606556369397
0.0839295935193797
0.0784359212937169
0.0850320199813896
0.0753801020481958
0.0842284563125368
0.074683888487855
0.083922584866712
0.0743942452846224
0.0827515714303527
0.0744579014258038
0.0879616328976871
0.0664294310415099
0.0872274885852109
0.077493806056645
0.0929131707867766
0.0498950305946581
0.0970010031313696
0.0994925763844342
0.0775946919262641
0.0908739093319215
0.0753954715598167
0.0853826470243334
0.0764178773721199
0.0819133942054092
0.0824786039857789
0.0822075657756565
0.0778793924956797
0.0823457208168682
0.0818497473446156
0.087077548980696
0.0718669159166135
0.070469926589449
0.105661358760079
0.0791126133336757
0.0876947024652428
0.0822428100867751
0.0674065791199504
0.107090516726754
0.0765638209993093
0.0892227691853981
0.0810326504828631
0.0864706529377422
0.0812484383128548
0.0860056623946828
0.0763097849924136
0.0866241273138864
0.0862125483910336
0.0784635114370381
0.0839585182372796
0.0786795944652257
0.0843078428203442
0.0803415842484898
0.0849469720606315
0.0964064548682906
0.0810029120314193
0.0896885305021215
0.0855076900338475
0.0852153514462618
0.085236267661217
0.089082381473716
0.081014647566886
0.0851128259454641
0.098180299740185
0.0757548150838944
0.0877376742875101
0.0953548702174252
0.0830237435060509
0.0902853957989942
0.0822253189406219
0.103100574138746
0.0806680752403505
0.0704859777337472
0.115747729499336
0.0765237339875887
0.116332759108157
0.0800425136575386
0.100950044978033
0.0770486695886354
0.101533292835304
0.067872292742687
0.10663648492478
0.0828950255868586
0.0998147593175345
0.0817775255484167
0.0887145666037017
0.0971237957675174
0.0972298680672363
0.0973497711304192
0.0949557727912384
0.0864103538731824
0.0966185034601214
0.10233888379236
0.0645683192248193
0.119830246659561
0.0986053093341942
0.109363373675955
0.109859772865318
0.0706690261941532
0.132096465031429
0.0988730960661432
0.104378490068648
0.0966529398009357
0.102737544036765
0.0977409065582955
0.0771827866491291
0.126228214381832
0.103736912892807
0.0958491394229642
0.114230788947716
0.0845421355475057
0.11711475170145
0.113578226422573
0.110915116869896
0.100994763067674
0.115413703279329
0.078478669738585
0.128631121570715
0.128715694481426
0.101778181342615
0.138479002887687
0.109140996100996
0.131799587681509
0.11487941637218
0.122286070416082
0.110530632285638
0.138112089232939
0.120002295227794
0.115489812123146
0.109856887909443
0.158738083774282
0.112123856684762
0.142293950791551
0.1200228794679
0.110855233210641
0.104958744339083
0.175108531051336
0.146251339396841
0.145815769918357
0.120981094117157
0.152389552757871
0.137874678223369
0.144013163284455
0.139526919140721
0.14075793684952
0.141226239928496
0.1417211525383
0.150160718524473
0.147996665110795
0.143814239605655
0.155387338080956
0.131622790197516
0.14816435383617
0.149745899232068
0.203781084418726
0.137031320781704
0.1851691496914
0.168816921224998
0.168877367961318
0.165741573613223
0.161898537967044
0.172416006151951
0.173208036905305
0.176366940460509
0.164619108653558
0.183607081553332
0.188851492267849
0.160583636497103
0.223281360884824
0.170639300270003
0.200021064065533
0.0827002443813591
0.359600352786121
0.21767112156668
0.216489359421529
0.211479840278238
0.163823586606407
0.297492023567756
0.247237820156261
0.244021849417371
0.255571055416969
0.251409314354476
0.260548352888848
0.280362232322093
0.274608136284714
0.288109719644982
0.303894284888899
0.28082075990274
0.279541305613398
0.33496944030385
0.350724742161646
0.358213200956082
0.326896676144838
0.354753598498921
0.377151799996485
0.358731997046763
0.37230092053867
0.382862505740013
0.330074558728607
0.470607616642801
0.404376544067781
0.429018907353992
0.4018666990843
0.468694991478054
0.409175274433604
0.457384885843712
0.502395369282719
0.465042111309324
0.496842580689828
0.47798771184135
0.520697516228154
0.475624907607889
0.538049922989773
0.536301583037076
0.536602002808956
0.55028878219135
0.545744329757431
0.562115328038971
0.566699161986902
0.571216178683458
0.549562205575423
0.581116648733958
0.536497632207829
0.702007575821391
0.655369493252434
0.576066082768617
0.617811709552276
0.562356415772001
0.626656647890254
0.578406776818843
0.611114089797716
0.648065934597765
0.605938435797758
0.617558503344472
0.601706779349749
0.621940937504856
0.620112028957744
0.617971568855633
0.596739691190218
0.620209097975754
0.630243067634519
0.561643776211913
0.748198667639442
0.615363937471793
0.63600487118485
0.60928390806253
0.627299721337052
0.606301604183061
0.619227514453456
0.580126575009601
0.643122278198713
0.597544642761252
0.621221697680066
0.578230900305291
0.599699393082027
0.613782568613924
0.57993793426567
0.578515189758573
0.559901525757654
0.561152187441918
0.54961133393234
0.500281103895402
0.6410300693542
0.543220142158008
0.552368418267932
0.540326128157311
0.541487972167222
0.532194729908208
0.536429889016942
0.521382662571845
0.541955672000771
0.518029069717612
0.540390470904973
0.528533130076533
0.523622142075913
0.506928170215247
0.522457820970094
0.518876524713593
0.519549831524606
0.527209871469835
0.510734602658054
0.51570442031308
0.520712405250292
0.518211648750524
0.518354740073048
0.513948696259201
0.527268333770258
0.509554384122766
0.515854853065776
0.523273749503041
0.519058379660244
0.511319654074091
0.516279153107267
0.514164800879797
0.51996821638773
0.520013755166304
0.517613547564546
0.529833927681131
0.514647006851579
0.516635625285758
0.515995385507335
0.511737007493406
0.504527734886461
0.514246677407226
0.471724812528029
0.521036929798664
0.559639767373207
0.482219115619383
0.525091090527312
0.491139863452681
0.511703845606691
0.461533737428897
0.500448594878081
0.524575275392021
0.489786428116211
0.489065047176186
0.477363399742847
0.475729654023076
0.51093130497743
0.468508113703601
0.483473006523302
0.449679587757869
0.444376337433364
0.56345268077951
0.446868772766381
0.571449096739678
0.481160432157382
0.463019731412346
0.417695534859921
0.525757716872755
0.455381432475791
0.466047459809558
0.458465869300572
0.452029775072422
0.487251796732943
0.444758597210001
0.466578246432611
0.438496884115013
0.433186623188454
0.475207014853735
0.44046585154297
0.418286158513964
0.488912494228712
0.421687321011659
0.420279958939357
0.475743660120975
0.464830119341917
0.430930862194229
0.421115845530802
0.421181479349573
0.396313161351883
0.45327030724257
0.430948508172264
0.410735740625885
0.417966838946519
0.387703771362582
0.407278853785935
0.389216753858752
0.413291460352576
0.354273872397158
0.42800462962586
0.382393298874802
0.369730590210667
0.393886269542756
0.359227824526982
0.432770623468286
0.382955739721663
0.362160503896288
0.34575822699058
0.413388474049676
0.364840961559096
0.379621848334138
0.366436088876774
0.334280740581756
0.373883589397001
0.348663358481653
0.328200048132833
0.363924326696905
0.32523108144679
0.347761640819656
0.353439360966988
0.371536604879164
0.347649507284982
0.319104158391435
0.323264283429085
0.320260824990236
0.327146461944902
0.318783129154501
0.296327658393261
0.357833659463367
0.279356637565248
0.355469535213406
0.340341467534169
0.324516306452672
0.332031870653689
0.32779389182792
0.319543792747894
0.339507314097377
0.343415294176988
0.349587953275638
0.307517399531018
0.359677084088425
0.337226264366383
0.350522926449624
0.347198197325214
0.358048570519997
0.348263507271161
0.368231236543401
0.373400074840178
0.377130305363475
0.377001572895913
0.388237263298656
0.366465144997696
0.438218168990597
0.382797985183988
0.402115353179325
0.440721920421276
0.424301591567896
0.469362138177648
0.432419142848562
0.448531698964885
0.448247012796998
0.460642384518417
0.468024559174689
0.451086033086655
0.509935151485115
0.487367295929386
0.493344424975409
0.501626842081454
0.499927717087151
0.505065343383047
0.502625812077938
0.53134421202243
0.479868930729662
0.583542997721349
0.522101167917603
0.540702558476249
0.530356176736558
0.538841113264924
0.538881263003647
0.526663664838933
0.538858213583868
0.526184605950283
0.564830784330233
0.560192007714429
0.543322181830536
0.560878019563673
0.548519243308882
0.561173282282207
0.556446844992306
0.567174830892946
0.574156617867739
0.573536698322242
0.57999691015306
0.547217504863348
0.623164965318142
0.621956104419709
0.580239967416272
0.610186674983506
0.585866764016166
0.613044312283982
0.594763910870625
0.615118637855661
0.63827467636849
0.616479735684973
0.617473491996605
0.623327771089049
0.628292769681439
0.624097866025718
0.639624681832535
0.652924660496691
0.632809547511841
0.652443540960263
0.592090528371419
0.714206157841299
0.6526990674875
0.681910875869538
0.677585529548719
0.671974810048792
0.676728376018458
0.678469159934999
0.683421420469994
0.684262856698465
0.67987293224557
0.693076799340906
0.685564903030069
0.67685524394202
0.682145969701297
0.682193412180974
0.702259589763978
0.697409592324643
0.685433257466833
0.686337545196422
0.674335157571613
0.6876104780366
0.693319323544385
0.714939304585412
0.690864283902271
0.686669599325552
0.669796252973636
0.707856007989497
0.694338371815119
0.685351394813406
0.682620635147628
0.689256676727721
0.677462816107585
0.686529617108225
0.661249136532717
0.726455592689008
0.700899977163181
0.697000322826245
0.696559346810141
0.695958452567723
0.697191057380126
0.703638868767589
0.709567332280791
0.710061579816813
0.708791664712515
0.718080953351107
0.720147287332262
0.711217515935512
0.718605337073016
0.721877865008151
0.726228857397204
0.720893375015784
0.711078863110378
0.722183477548132
0.70346550030099
0.71463529654464
0.707145354762876
0.70249380974132
0.702221376582817
0.694529765368287
0.686829248266333
0.700352621914551
0.688572515951333
0.667628636534854
0.681864384973456
0.650411506060779
0.664525442835686
0.653886015587002
0.64945219128721
0.649978179297619
0.661037203641359
0.648064678787778
0.645994774312492
0.643803911308347
0.63377041574275
0.638669819665755
0.632217366670809
0.632883623531431
0.633082185859055
0.627661597423816
0.624996744119795
0.635344295668712
0.628564280508639
0.623580874710394
0.627748099402724
0.622470382914696
0.637370843545144
0.623709567260152
0.636471506284438
0.625784390937344
0.634506046536786
0.62072565987585
0.617552791357838
0.625217367701648
0.627383554427747
0.62551082684353
0.615496136685427
0.622606542238976
0.629438320660046
0.623040059996708
0.617333789335049
0.630943668437654
0.621651602508645
0.619433001279194
0.621663199408553
0.619384753387462
0.619755227367331
0.627844189087261
0.617457957326323
0.627930764097891
0.61358111712295
0.620842471206636
0.618950915998046
0.616810224767595
0.619433624713018
0.61979110133379
0.619610192695895
0.625394601175525
0.6210768168169
0.618414744203087
0.624915675700618
0.619962040128055
0.616126897873636
0.621428783428496
0.614397551654713
0.615457644213141
0.610037547308267
0.606819311255755
0.603560807657604
0.603363665954128
0.598160585036696
0.586987653709783
0.589996515401455
0.584271601234384
0.573454158822561
0.574155464960566
0.565673667897937
0.567685394818974
0.561235712211433
0.555430429274424
0.559283389968281
0.556854576413592
0.550595107051426
0.548376607251389
0.555304485466237
0.551978774916065
0.546332691392133
0.544863646903233
0.540303170247301
0.540212048341134
0.543909539558896
0.539836819512547
0.535819528642786
0.54565375477223
0.547230639037685
0.549249945278243
0.547015919902433
0.552690180574358
0.548795999924697
0.543521125049433
0.551971483159217
0.556965867480443
0.557053842198928
0.559461534047034
0.561095076813596
0.560162350486362
0.568058801367637
0.573713738235561
0.570450879821163
0.568521113764238
0.571615917572226
0.577212826220932
0.571759957138873
0.573828366516234
0.575219005499755
0.571100176713458
0.574564702126358
0.572073708458992
0.575164736137844
0.573678323065791
0.575672284316644
0.569415336233441
0.568717384530349
0.564839617710327
0.565348040321292
0.563171998693047
0.566755818868304
0.560317858761662
0.561191136785558
0.561637673669793
0.562643898689295
0.560400424319389
0.553381825706612
0.554982456249911
0.553086199132437
0.54854396186213
0.544854014651105
0.541075161394045
0.544452224962969
0.544688796968036
0.543483933346048
0.540489516849731
0.539660537538897
0.533324585774048
0.534002818281048
0.533548662099137
0.533972699736703
0.531783183241715
0.528067196991394
0.527662546538668
0.523392764496
0.52522863569601
0.521041325146412
0.518566487946806
0.517996447798484
0.5109664203085
0.513072643790471
0.509144354616209
0.502849872939214
0.499065346643151
0.498900818530664
0.492749444114143
0.495978202830181
0.489576276323771
0.486169413962137
0.480639084658425
0.473037718499462
0.470634605437221
0.468076455450232
0.469359913046858
0.466113451004678
0.462728228204652
0.461142208723616
0.460484476099751
0.461704066071108
0.459279666937686
0.4547845347696
0.45703615920638
0.454846515642573
0.449782265858483
0.446908834624095
0.443346586999368
0.439157814681118
0.433553094184497
0.427213223041821
0.423782025416455
0.417920680513763
0.413440422592934
0.405766761971594
0.40233018076739
0.400111917620836
0.399119864183942
0.397896909108343
0.401137904586851
0.404047716164761
0.410385338165685
0.419064939477518
0.424139736625415
0.435045103811689
0.444423328336445
0.461682739908814
0.472384416435153
0.487349762743703
0.502258894703224
0.518747917156083
0.538524640945792
0.555343071988559
0.568242588002821
0.592607207164838
0.601421687752597
0.620353445157095
0.634399326746939
0.652649074741215
0.669845072560979
0.688678629757732
0.698375810581057
0.713582628499555
0.734011963360057
0.743355178847548
0.75702361116908
0.773077454641062
0.776585770765069
0.788795677968207
0.797959662918918
0.80679372523812
0.827511113487186
0.817148558349205
0.830324697367107
0.84003987667612
0.840061543815598
0.855096832002328
0.850756519858245
0.843734854483281
0.851882549984136
0.854902824553162
0.850252790148326
0.858929122321159
0.859207342453898
0.854449303149195
0.857922230398102
0.860934307851973
0.866338765980694
0.871205663850367
0.881236468511784
0.871802746085736
0.893518553565464
0.893412342410221
0.884289954669028
0.89832147237598
0.903406036563351
0.920089690236009
0.917922689322796
0.931440430907131
0.937687307657664
0.92901054487185
0.959218816113143
0.973870839878157
0.976501845145518
0.994817710967155
1.00939368074651
1.02251096636501
1.02920089532856
1.04135487058493
1.0581073434608
1.06379180966297
1.05822191106023
1.06644239815471
1.08165301769297
1.07831204773221
1.07854505835627
1.07753319643513
1.07582941009349
1.07188664646723
1.07167882793858
1.07334018393172
1.06234661098306
1.06315771777707
1.07228154380211
1.06469700075184
1.08364674117916
1.08523941495447
1.08835004699073
1.11175354357202
1.11004358855296
1.132902089639
1.14492737382918
1.15514783182087
1.16242381312631
1.19935905622017
1.19618770279712
1.21995492060617
1.26320804050608
1.22547114244737
1.26531380976841
1.24198048490187
1.32549699185518
1.30471011651096
1.33204867573203
1.38029468036216
1.36457005369662
1.39847520394784
1.44485921053862
1.40508608999559
1.42672217085438
1.46356428243078
1.51049301517329
1.50375788640901
1.5596462372215
1.56255212778034
1.63301776696504
1.586621186515
1.6302928630201
1.68502447216262
1.69022342204381
1.69793610465465
1.63755680645353
1.66634185247999
1.72066920505498
1.73701297908702
1.72478807780969
1.77341163810072
1.85436609048048
1.77267072816239
1.66501378028346
1.773095196428
1.78165712238082
1.81534516719629
1.83790951938686
1.68487637034842
1.71216887525841
1.75930426158206
1.77338079174121
1.71439981423392
1.89117066005243
1.82895783874744
1.92462519436952
1.73468465363802
1.88752065187344
1.89983273102353
1.76649541856436
1.81048768148855
1.88232214736497
1.89689818895385
1.95046444440813
1.78288637006963
1.96724708379854
1.96670863797662
1.85908291977709
1.91936881401881
2.1517643069023
1.96281787021505
2.1231629557811
1.87965469786826
2.05806645924261
2.03682067410232
2.37795285444415
2.14939387419997
2.11786578658012
2.05839622585629
2.21710270025332
1.8968194298401
2.25511720174847
2.22904762231152
1.96280207864334
1.87880283803705
2.40013723930149
1.90499183555894
2.22520733430656
2.18410696644416
2.15916375255016
1.8527798395563
2.18772510278863
2.0649727229506
2.30464991443161
2.06501883261572
2.23037015696634
1.93174725457418
1.88797827710411
1.91248961892735
2.13438819216846
2.04913204615888
1.92375306646317
1.86623270308131
1.83532074717244
1.73693937359484
1.80887323914131
1.75413790635642
1.67576956541121
1.57313274699768
1.69735306485923
1.50544332625188
1.51536708360488
1.57769677711962
1.71670909405923
1.51259397549816
1.59307913375906
1.45578023929176
1.46781594492816
1.43981250285832
1.52466669097286
1.47692534920886
1.5329983708724
1.5039225006075
1.47284796048628
1.54603927999624
1.43978352834282
1.39188100902118
1.36712006953269
1.39892396926486
1.35727697736293
1.33645683162765
1.32833517764369
1.30798129872704
1.3578621983786
1.19986551767495
1.22063304715303
1.14500983775562
1.08662059204721
1.07084309858046
1.06849779315252
1.03662510791114
0.997379241836166
0.926880256094754
0.925185196455413
0.894811614576925
0.86382795977985
0.828533746406242
0.796633283290339
0.768786296731761
0.763894912598178
0.712722910486637
0.713587807786321
0.686554980123971
0.686075890618932
0.668211503686517
0.661412022994914
0.65865593551473
0.645222757701183
0.62746374794106
0.633621513329267
0.637401190807959
0.629751306967053
0.62410963124186
0.617247144174457
0.642667691279254
0.62801734456799
0.628250410419384
0.645253508090712
0.629984824972188
0.628460087245348
0.61974570905166
0.621350158328242
0.620403639202374
0.613490879217984
0.611237766890332
0.603194218937234
0.602161373272195
0.593965496366701
0.594959518367995
0.594014604302765
0.578251782440209
0.583064620307489
0.58653076019271
0.583602229416977
0.573486603968587
0.582616324035905
0.573824880073535
0.589387320130326
0.570582068539314
0.589216038104783
0.597728548627074
0.58650390785438
0.595453092451898
0.605898806521401
0.601438180799493
0.593247263658515
0.596846435885018
0.610060673379901
0.610917669237669
0.610084701164629
0.61775838682081
0.615730012462041
0.617078053999201
0.628311618892056
0.607394850667427
0.619295670968293
0.612884271889244
0.620938124867532
0.613165322707857
0.615345627845491
0.627882377487099
0.641051335044505
0.631304896776478
0.626060791705844
0.633530200284466
0.648028099922382
0.666005891993331
0.687647104444876
0.689395530950313
0.706765448605508
0.71381973975164
0.756573494932449
0.753102135416621
0.791019433420633
0.758742286724514
0.77959899086233
0.771260337745906
0.78211467213867
0.786951379764583
0.785682151231279
0.759117375548365
0.788707316333914
0.762629653199762
0.751404836767464
0.721895648325353
0.737182030581645
0.724006334652867
0.718983587516216
0.728492013771511
0.729654677548019
0.713774422574742
0.7104228953894
0.72265553915836
0.75273885708368
0.713472296851235
0.726820487393332
0.708373410264018
0.71349148498752
0.70020257581917
0.712293290676444
0.694620183165068
0.689101530832709
0.696196931637872
0.69901561702897
0.692045586658821
0.697449755397637
0.678219433208518
0.660637612290443
0.654078213362927
0.656006452159365
0.657241892745768
0.680778814364535
0.655795096540485
0.645670390432013
0.658414464255557
0.658282860001339
0.659321914939733
0.656419218654901
0.63687182698905
0.629290791468341
0.606680943823757
0.647658368248843
0.616228606432128
0.619095580943242
0.61602551284577
0.631766055219866
0.620537119110449
0.630220898911816
0.627588727869758
0.616456079067857
0.611411161922821
0.605943882736649
0.602213902771717
0.617741873877874
0.578754483245809
0.623247383691506
0.613031220206203
0.605071448997806
0.581208120999927
0.620804153921404
0.615676507565976
0.591460250468383
0.587029437999582
0.587317412846575
0.575896023446872
0.601782508840095
0.582515056950647
0.589308088768816
0.577871182657194
0.570204833875432
0.584186520510705
0.602182363090997
0.577128213018269
0.56925737778685
0.573239863105895
0.600119939374398
0.589682850758844
0.598084712137349
0.593242221869035
0.614064533042144
0.608090503366731
0.630603354354437
0.591147381592837
0.618406153170073
0.593357506061988
0.650741691820985
0.631085001881547
0.631971736636229
0.61286815807492
0.64054696394927
0.642577871797484
0.620366882895217
0.638695688989349
0.664209733605764
0.694100186114392
0.694473553277665
0.690393444101693
0.742649064866172
0.702190454833911
0.699306729608661
0.722430943088836
0.743865947334305
0.787106836176382
0.804876779891459
0.758014703602503
0.784247486778959
0.821509334338999
0.905075074957601
0.860310290207571
0.924896951440691
0.895175760293061
0.967868204512893
0.934837931471925
1.04711665880432
0.939634927609677
0.948198319358459
0.899645207782367
0.930835292434175
0.852362989679153
0.954394294047224
0.833506849414952
1.01339677892274
0.984334850531896
0.980222277113952
0.869164026993862
1.01450094998826
0.855571221417697
0.982761267222016
0.955708503762048
0.918844732146674
0.877389620303362
0.969426492767009
0.825524513645347
0.855705260007805
0.881304845432061
0.91908110439408
0.892539624102708
0.897520276239508
0.825392704249402
0.894832874375544
0.896299554229432
0.858166627881506
0.798213747029573
0.989612959146166
0.82825664501567
0.932960354681902
0.945241262781939
0.90987064008579
0.838501840713397
0.825628980523341
0.835152849824137
0.974080150736128
0.825500396932524
0.908401023183237
0.843806221525696
0.915081797527235
0.836426688189545
0.848496151006478
0.840702625196808
0.922707748348108
0.890651425660827
0.794344773338075
0.86099570181015
0.860178991884715
0.868678692604799
0.952676736827202
0.940209575562604
0.967998959555249
0.774238663364857
0.910439929427501
0.841358439172272
0.942301161881204
0.796693039551775
0.901401571008016
0.85134423592285
0.943950969630085
0.801023649100432
0.980527633702646
0.931965823296134
0.925851749959107
0.826468156460469
0.920465561089226
0.848938817749249
1.00517708501178
0.817613788126411
1.01303007069029
0.928204995769267
1.04489121951453
1.02693125321049
0.968197779367528
0.965264015044123
1.11761523369629
0.875112842682785
1.06212064220654
1.1373020654554
1.26996915983565
1.14134326062777
1.25619963531877
1.08592943778359
1.02581036738457
0.885517132643218
1.61347379122774
1.1308930559796
1.30119082324471
1.03416278893903
1.45458094401266
1.22608290550195
1.0812546172958
0.850120038391881
1.05835482938266
1.06312143605822
1.43601280677259
0.841776983482643
1.29320997602426
1.0318278990856
1.28060316693308
0.954151263623007
1.29004093933505
0.65750571086678
0.754925055897277
0.841290214079421
1.59735012489927
1.15349577723669
1.52553046148223
1.15870015225893
5
0.964814213850225
1.13522086925713
1.04601378513375
2.82585506253817
0.974341768203884
1.3785217250095
0.891108440093541
1.34719405583102
1.20159448254995
1.3383432229884
2.28171537669325
5
1.56848886124939
1.06018351886803
0.96711639440334
1.99009826319739
1.00772854012693
1.11085294467303
0.846354819951054
1.55552019740455
0.956964741658919
0.791227542166054
5
5
0.791561644485178
1.12852533152829
1.27367719663267
0.814889066121281
0.953860864686437
0.924785577269694
0.874282202991533
