3596
4000.36533379555
650.420452594757
1
2
2
0.02942222682792
0.0192359395407594
0.0365650726397516
0.00862524895394169
0.0395291208206909
0.0165293200923974
0.0367233704939113
0.0179813189730215
0.0289583604787004
0.0104452574489679
0.0312415682238387
0.0206055940749402
0.0398620256516789
0.00629143504313305
0.0363700364992464
0.0114967035461225
0.029280631922982
0.00462554447892528
0.0346221804075807
0.0173138786388973
0.0315655654295166
0.0132690127940645
0.0335723986815205
0.0167710872568166
0.0276016036707004
0.0288840484666798
0.0240717118594448
0.00614289164101926
0.0404549794808303
0.00915264610805038
0.0390880098730854
0.00875962498551629
0.0335686905005791
0.0159591412128367
0.0380728626039944
0.0183738636880635
0.0350575052441016
0.021078205054964
0.0346375732238639
0.00198210190358271
0.0415176912897141
0.0102978661447352
0.0373897252587797
0.0134916100023707
0.0270571975899646
0.0200690405456311
0.0275242548767593
0.0260140301193773
0.0311360397970391
0.0219428154339429
0.0490854829378726
0.00634817077479135
0.0501655690629547
0.0236914331495683
0.0232145065967213
0.0230749197393937
0.0311280944141727
0.0206086568228094
0.0337612466758016
-0.00851215034811507
0.044256545796792
0.0313168348730883
0.0187120958489696
0.0206804654740457
0.0268021961792004
0.0277612262318433
0.0251450220346897
0.0229833464386127
0.0250133944302193
0.0125878223110195
0.00523739121849413
0.0166081621968962
0.0506661460009128
0.0266907406678937
0.0308652884295357
0.0107157781392791
0.0302956479737725
0.0178086974926583
0.0202789339979495
0.0129313170571751
0.0336056732992821
0.0297895775811229
0.0374620129073418
0.0163113609032954
0.0174806147536282
0.0260467793368045
0.0175344161400317
-0.00265156953144613
0.0655967002793415
0.0295602758303721
0.0300090532053098
0.0188031614900788
0.0361551941577556
0.0204893774375325
0.0203311081830778
0.0237728128105965
0.0313773308703184
0.0151071665765186
0.024910567539787
0.000492992649599136
0.0333061617047323
-0.0295357837274496
0.0796776956202446
-0.0188551506762937
0.092368120123874
0.0268139760326085
-0.00729020799403912
0.0515900395233575
0.0507481008097549
0.0232575913013857
0.019687406341468
0.0173071072033574
0.0195880569773806
0.0276755384507708
-0.00398963720256977
0.0159276171784032
0.073559783172363
0.0312238043625553
0.0255259169785301
0.013912289062077
-0.0163789953193062
-0.00918002665816343
0.0884786950142492
0.0105824319599451
0.0535554603667482
0.0154289848825084
-0.0038267637687642
0.0280984347452547
0.0771141144463553
0.0135948932170356
0.0304810503085153
0.000710052247622177
0.023617676727615
-0.0327689054747267
0.0721703935295545
0.0205106101311539
0.0358577880663316
-0.0155944046119488
0.0115743116423921
0.0796129618861867
0.0482506110475353
0.0203119848092966
0.000152594090030074
-0.0240525482597499
0.0835083505019226
0.0288675383416357
0.0100209171474203
0.0176384749970712
0.0597438518173819
0.00510835151456781
0.0292400444300452
-0.0123742607583715
0.0460143098207035
0.0234514870816581
-0.0421208352725369
-0.00130815186485899
0.117379742255221
-0.0351390290813731
0.121225352944178
0.00894402632168393
0.0477010653136657
0.012117140843747
0.0309732989949509
0.00529450181488728
0.0259424496885806
0.00444742248448243
0.0196265138388464
0.0452683096416234
0.0137557740772958
-0.00215940957291223
0.0585149889426374
0.0171671513915139
-0.00955105148637154
0.0898197136338254
0.0473778066008104
-0.0183347667834056
0.0665081829771633
0.0283864944729284
0.0130523411835386
-0.0097207940338928
0.0776511123615452
0.0176201663154463
0.0305319137676865
0.00386809695343111
0.0166773894475673
0.0211529268923921
0.0409562192996859
0.0138592813656472
0.0411972506826637
-0.0301032750869915
0.0252539439352522
0.0470150562683783
0.0794564609201407
0.00625534402964657
0.0401597344857241
-0.0552220264033915
0.0600672217915242
0.0576171783818096
0.0274055148628191
0.0167791013852627
0.0269173246144013
0.0123027739839446
0.0283027973606084
0.0212469812338752
0.0303344211056343
-0.0561860135260501
0.0755359051415412
0.0478342743983403
0.0289743974356135
-0.00297232290829795
0.0192805746768322
-0.0306136116468752
0.0715086427881923
0.0692732074286113
0.0267523115575261
0.0252540238613162
0.000698115872908871
0.0177269832998928
0.0532388458168712
0.0126190351030958
0.0324840091279347
0.0110360804986043
0.031778337888443
0.014454486612193
0.0231891467654215
0.0177275603616713
0.0279022878527898
0.0124929515986793
0.0217678130859771
0.0146935900478961
0.0388965128239989
0.0196456097423732
0.0299937549877994
0.0110359471881023
0.00975127451913005
-0.00201649596014911
0.064664119617461
0.0256448188406431
0.0312077116537924
0.00675567212971335
0.0266030722989993
0.0135409391265592
0.0309200442626752
0.00357599044084983
0.0281788034909333
-0.0252122327816376
0.0754237907534043
0.0216106527369918
0.0339830814291941
-0.00684111531209009
0.0295051811267253
0.0476546241484065
0.0214087474691232
0.022927763662269
0.026897813106779
0.00725293776717238
0.00220205520541951
0.0387190520800124
0.0299960757888177
0.00291848924752418
0.028266892326392
0.0299201541971268
0.0264616176817339
0.00310758850538672
-0.0385963396026794
0.0795861280621352
0.0432993560365459
-0.0386674450217435
0.0961443867190853
0.0502135315122641
0.0369258129026963
0.00527935630025091
-0.0799955142240309
0.0780345381957792
0.0992386957635568
0.0257352083997987
0.0132848053220727
0.0311976514146446
0.0228311581527407
0.00914433417714355
0.031134697799785
-0.0104545909392429
0.0592214564426416
0.0314863757625109
0.0920987312754026
-0.0113348540995095
0.0320540055084622
0.0532386649310553
0.0235528627323492
0.0136264777825052
0.0213423616591247
0.0080010323092099
0.0233758154211285
0.0399208521135751
0.0291713859352858
0.0274296502920217
0.0146309424711696
0.0540943147247776
0.037315296370538
0.015518346090559
0.0252141901514334
0.0369266285957517
0.0233096158140666
0.0294636430788268
0.0175188277119161
0.0218164285620324
0.0138926399301987
-0.0315138177222282
0.0924803628902756
0.034464312881516
0.0098300195703384
0.0584875265225047
0.0394433444762176
0.0206988344676827
0.0233322001905615
0.0255520939916719
0.027737428013594
0.000131578765011437
0.00250640305124559
0.0485000983545222
0.0476108610640049
0.0214035450525285
0.0341254891411685
0.0159625907348215
0.0257086319776372
0.0280722083162104
0.0265394854125117
0.0121796091305773
0.0273545380062978
-0.00137703915481906
0.0283846732741898
0.041142567171614
-0.000613949978186179
0.0162560772810333
0.0889481736071966
0.0230992652566284
0.0388050368069608
0.0186093342351412
0.0356394694666273
0.0172450101207485
0.0320351916890107
0.0121293045392857
0.0152011333052561
0.0374828367234172
0.041894947083349
-0.00422857629764849
-0.0100028401000471
0.0330128283078445
0.0957093431678095
0.049393517129088
0.033313668985038
-0.0157584579348249
0.0180200363281189
0.0617604222920963
0.0206363206985351
0.0571598412210017
0.0295156229292298
0.0258338007981534
0.0351705810625599
0.0174926576317245
0.0334565717385849
0.0257532874705077
0.0265142242745152
0.0248528933416846
0.027512759027678
0.0236192537518993
0.0244234428377368
-0.00643789949964305
0.0764968831246965
0.042901015319761
0.0345623210840487
0.0251071282641952
0.00877785814688227
0.010214450885841
0.0479033749832748
0.0274281480445468
0.0773087792403236
0.000439627233792521
0.0800169670817433
0.0374484815543564
0.0372701926498918
0.0236643841514843
0.0324725825146168
0.0323131768516369
0.0419291442834703
0.0255551928678167
0.0357137190866295
0.0317371189946472
0.0463199343305612
0.0224414106922196
0.0294502206864636
0.0239729226795017
0.058571368458518
0.0340920485707583
0.0278530057750242
0.0110826074758245
-0.00236598323336621
0.061330478323617
0.0856069031311412
0.0520510267254173
0.0411809497662743
0.0516232446009262
0.0332995176775243
0.037415841741018
0.032306530499184
0.0345749798567226
0.0266266947349591
0.0426712057983269
0.0622152118939785
0.0453008422609466
0.0693001091294042
0.0250191584654792
0.0480655360360027
0.0437538556214871
0.0251424040423256
0.0786665811378486
0.0640039369994414
0.0297492563731437
0.0566751103540739
0.0754283575897329
0.0349658826964645
0.065186649658683
0.0532605485460098
0.0476293209319034
0.0562773318375193
0.0388706853038325
0.0602686390706063
0.0532939119023259
0.0694069419970048
0.0425416461537822
0.0563002179286175
0.0427020950585169
0.0501421572949853
0.0608020476960472
0.0650369916474155
0.0538713447281834
0.0771499355728149
0.0630440281229449
0.0579327593388265
0.0410349023504927
0.0503086594639061
0.0761215261725109
0.0586960097324693
0.0970777387219098
0.0788776037583966
0.0653075575881666
0.0751672245439207
0.0656873191825084
0.0769345790345231
0.0631805145214724
0.0732102682430533
0.0698041611091856
0.0797406897490917
0.0769967829345287
0.0769359384517616
0.0664918598046523
0.0742845757142615
0.0847230455210298
0.0858942323156612
0.0726112279305792
0.0747550433228616
0.0573143386475537
0.0787717514759143
0.0936415739454625
0.0839278397646711
0.113523118646859
0.0881751121043356
0.077127505357121
0.0922401141517489
0.0931333665435439
0.0898128759929633
0.0972644781791075
0.100680598398892
0.0935874309577823
0.103083192293277
0.0920655437263167
0.101987876781223
0.0991178563811672
0.110182742265359
0.0960693318013629
0.115735498728517
0.112148230542203
0.117315277123698
0.108311558352562
0.110485468772129
0.102998874846061
0.107861867421469
0.0981590102642168
0.121835749041561
0.108442121327952
0.120768424538874
0.100224034988749
0.115330705636287
0.124573928262386
0.118997242902844
0.114213666926333
0.122357839967231
0.122735534390287
0.124200561849104
0.127189655148076
0.138067076802065
0.128844134993802
0.139131085037507
0.130928339939271
0.131690233905184
0.138281597274618
0.143397387400728
0.133510535509664
0.130870849280847
0.148939999156907
0.150429562185074
0.142401644261169
0.154057105710551
0.150291402284705
0.150662698565381
0.156691632087399
0.155564298313765
0.1483031618704
0.154363541409277
0.15031868285283
0.15982488205326
0.143132160583038
0.158276673839835
0.174268317387483
0.170015404261087
0.153449610403831
0.176825182987505
0.166558268449001
0.163667625399887
0.165047874747709
0.170424788920368
0.167812183847342
0.166086803513442
0.186927684182554
0.17538509135698
0.186100165151322
0.184295134410205
0.181055745368956
0.184389089343862
0.194914271412022
0.185930978365108
0.188613092708976
0.190785972575089
0.18722634362745
0.202755798565952
0.20737085002995
0.204194205959734
0.190209838376838
0.20932293714894
0.214261341015887
0.207167919212972
0.20711831113189
0.191092532206343
0.206739011937231
0.210673076483288
0.205700131552629
0.207541050888037
0.196334484711147
0.210769118307049
0.218604916689425
0.222980916689113
0.218039137900026
0.210086016501848
0.224351151392885
0.230054387165454
0.22637140913168
0.207519106899268
0.219714727877783
0.235368392847978
0.217218150313698
0.224144557777612
0.223711051754076
0.244348523503636
0.245412463788475
0.249985367102809
0.250594841516313
0.241061035132847
0.237448620962871
0.23794050289251
0.256402007048739
0.249137738970387
0.246912736496058
0.256704597700834
0.244505515338147
0.24420901973195
0.267963711716496
0.255957171930971
0.264113259656815
0.257396513752933
0.253915626263596
0.253443788604023
0.245726456592578
0.271725047080143
0.274186959012388
0.252023209392772
0.270237383934319
0.270877182556935
0.268141914849933
0.260499966198304
0.269328776859312
0.280952833527542
0.272691546961538
0.252354655690794
0.274031371983262
0.274208749718991
0.284445975387398
0.278689802021035
0.281817134209707
0.273698268655347
0.288923049664788
0.284095178523732
0.297119200346441
0.270038630731425
0.281742569182296
0.289628119879121
0.290673229096647
0.286733450238354
0.283298136727221
0.285480233713188
0.287947079853023
0.283118209959273
0.300170031035721
0.307823526911042
0.28979510110058
0.288922061571159
0.292077772696881
0.287528178779597
0.287067869689838
0.284630296571989
0.307962516151809
0.288564441381845
0.291642403770304
0.301863734009444
0.295810629122268
0.303024296037435
0.310036081115558
0.288917047125741
0.299839097016652
0.287145825410082
0.314577750917656
0.315527194446145
0.312143971027788
0.302728870513514
0.313998767031921
0.31464557928774
0.317128399554513
0.293868392884106
0.301715319007945
0.303283328462737
0.332355257781453
0.302744753477579
0.322875101067353
0.323446947742894
0.323646930448777
0.328862041235129
0.323720815280404
0.293047104894733
0.301578548183789
0.3120177108046
0.329365319645515
0.318497545844668
0.323827454605135
0.312794831596105
0.30680334452149
0.299205903729681
0.325359532415827
0.316162830236515
0.32601076193398
0.315859991747875
0.324779775368874
0.32383190537274
0.335369494669728
0.316704434514283
0.331014785051308
0.315320677967516
0.325559797931668
0.319283934574474
0.332644301475652
0.311526767201781
0.344665320881564
0.328221001635274
0.331840830114645
0.306298953086029
0.319451557843736
0.335372763127856
0.3349817554261
0.333402449672391
0.329915831196368
0.321883145314625
0.33406414872918
0.323737031201887
0.337304289908526
0.317697975194533
0.327296882242172
0.330188541786442
0.31712170661329
0.310727459783933
0.339229403271898
0.315316576739698
0.326285842289446
0.323280855274303
0.324470813269556
0.313257415257116
0.332641845114239
0.3190330029298
0.33021892874376
0.326373668020132
0.328872314523361
0.317903492651899
0.33384175352413
0.330060071323906
0.326419715984592
0.31599199476526
0.332689244204507
0.321127757984905
0.333858811710559
0.312837551400546
0.310441428965501
0.317144831256333
0.332585601804795
0.330158893523804
0.337589277568617
0.313298269267726
0.342912668242309
0.313724247782235
0.312521842141294
0.303288143702838
0.329496394156505
0.307219450350522
0.32963715092033
0.314145959820027
0.325095381580199
0.328947496444613
0.319869074789834
0.32209270698438
0.332391105048299
0.318727899879974
0.322502714026068
0.306355464050494
0.309478496966066
0.310806105777465
0.320747021553564
0.315204265909395
0.330569718561972
0.296915685614764
0.326054315690213
0.316280074473005
0.304683982884948
0.302889967310791
0.321861469721116
0.321846942480897
0.316379833345352
0.304264977131748
0.325775343941317
0.297965450460252
0.305548677877288
0.292611056439521
0.313491679733232
0.303641371017323
0.305816098976737
0.302073119698569
0.318485269405123
0.302927346917589
0.306703769485142
0.302074827858047
0.315421023407897
0.29982856229412
0.31213877637199
0.291908890300634
0.308099932963794
0.294874351591893
0.304835985002618
0.287491401398488
0.313477052237124
0.296945506721757
0.304813566706487
0.285154127998187
0.297806570296412
0.295787173671967
0.302499893242836
0.283230095291379
0.2848754384537
0.282081812117819
0.284049430526166
0.277877948302714
0.295219030713764
0.290025835608759
0.287891424530067
0.276817007568193
0.291847774558802
0.282026634312722
0.291340753288169
0.278508483811401
0.280868888503472
0.283500120099102
0.28985881646872
0.270099253400259
0.291667937477946
0.272394186921631
0.284304183441278
0.278907891052161
0.279388871963681
0.265270909655828
0.275086928672615
0.267170054621368
0.285858131340629
0.260501116523923
0.263736373471828
0.256060630867171
0.285086638588492
0.259428690162457
0.26294984763657
0.258944451349731
0.269183196079364
0.25076963833736
0.258746657346844
0.257221612877788
0.258559345109369
0.252393017778118
0.260754500122296
0.245728173294468
0.266308815856824
0.252157820692379
0.25634786258431
0.250073908695526
0.25320895814295
0.243526810734599
0.251341481128211
0.240235197459126
0.255445023785816
0.246585210214763
0.253230883860977
0.24568478497736
0.242946994100656
0.236325839316284
0.247089293133787
0.233284945213679
0.250365388590769
0.230385436810108
0.231260594127425
0.229402051278175
0.243041221403824
0.217737750561061
0.240921465158451
0.221620450327006
0.229775404627604
0.229177370000343
0.233945873655088
0.221864441434927
0.232854158751113
0.21974138055778
0.226467168887835
0.219027949516355
0.225077796861648
0.22216844285599
0.222094774553947
0.211280204536448
0.228599018687659
0.20490568844687
0.216952937770248
0.210346766336761
0.22688162120898
0.211356828415383
0.211473515113766
0.203814867225533
0.211812535073146
0.207755826404926
0.198865165684218
0.2006894087605
0.207197760780395
0.191660236059549
0.208526882606032
0.196837662058139
0.200035056839473
0.194980173857999
0.200735743746034
0.191166430594886
0.208281185636841
0.190475576693587
0.19680566264837
0.190084510918431
0.202433054433493
0.187885142555556
0.198005189237868
0.191841637892898
0.184481363079293
0.184158772433251
0.193820650301037
0.177157734280537
0.190997636000776
0.175811070963551
0.187575713606714
0.173768429740267
0.179666827732321
0.175265139530531
0.180404003844088
0.171778373533362
0.181432692653379
0.166056453544364
0.179230892615567
0.167553205388173
0.180219802259496
0.170003804674789
0.168338556797686
0.171390830701263
0.175378660904835
0.161453424709394
0.178003820214781
0.166515816367372
0.164137664851153
0.16422674657546
0.165906976048499
0.157830428073442
0.163056810231724
0.153815010928724
0.161056070425039
0.149672269234887
0.157020382607495
0.153453564944984
0.15729329665944
0.15178810226467
0.157185213829914
0.150968273426331
0.157236961774061
0.144568015151922
0.155094645543985
0.142052692559726
0.151373692814329
0.140494090395463
0.150789767044014
0.141682719201673
0.142224476349098
0.13838943393131
0.142762533421172
0.133485903620093
0.146284043966982
0.128124913516318
0.143817346461017
0.14610082322283
0.145250236854604
0.128415160061992
0.137580215369558
0.131615161573069
0.13733388255904
0.122187075816727
0.138333330365046
0.124448262358983
0.131850181519005
0.128941470148563
0.13642437495174
0.1202546533084
0.13196066940935
0.119892606238828
0.130588119034528
0.118283767887457
0.130310106710715
0.118074608113345
0.124343048377413
0.119710853841139
0.1281263342683
0.116110755396795
0.11926305328096
0.112935033965211
0.121461804475879
0.114023490623218
0.128694624997221
0.113409014142015
0.120318407025861
0.115608522205371
0.122720179727399
0.109427207544882
0.111248698778681
0.112180535352821
0.117231566645393
0.115927968575405
0.115299858823219
0.100071750030146
0.11074946471227
0.105640110156847
0.117035122967878
0.103528559876678
0.114931845039243
0.105814128455142
0.108044397177935
0.104153361502397
0.107764053713941
0.100680473283468
0.1050599884104
0.0958672311196455
0.107054895106873
0.105093890246121
0.111713312092749
0.0991865110800439
0.108314805317648
0.0994675051602847
0.103728472044103
0.0953679926741399
0.101327890144584
0.0966721008632886
0.0981885628927213
0.0926620631503324
0.0961018309912188
0.0918656064145012
0.103106661669436
0.0906706406121842
0.103252527041692
0.09260196164496
0.0996154107046349
0.0934090577292513
0.0942219560089049
0.0886876899963668
0.0958732466089211
0.0858665703988164
0.0930863582744216
0.092632279417874
0.093444265554076
0.0851437182951443
0.0910849697128436
0.0814718541824935
0.0839686870760552
0.0824693530458667
0.0906963701760378
0.0843661044755842
0.094919115856627
0.0815398111465757
0.0919518398885719
0.0854619836704414
0.0875826918652753
0.0817205707997806
0.0858391433381498
0.0854970255657752
0.084688130188268
0.0795037033204261
0.0849160541233017
0.0742602727650691
0.0869633235195152
0.0784043589831772
0.0820590748968136
0.0838057439402486
0.0847030423964143
0.0716316030295903
0.0827250650421411
0.0780611991650606
0.0854919845039611
0.0706856556357445
0.0794870438009331
0.0669840864006237
0.0823122814113662
0.07273246497725
0.0802003382599805
0.0725806348140141
0.080074001357408
0.0716335930251612
0.0766878394176863
0.0722203960357609
0.085592043633981
0.0671964951294783
0.0796115270256142
0.0728884278663019
0.083110143003039
0.0735985941365229
0.078155167310555
0.0669595503708281
0.0776652560053317
0.0741134621199107
0.0757719833063489
0.0682136671938797
0.0762809446431987
0.0703116614998308
0.0807693448819892
0.0677107089466245
0.0728926183543335
0.0701182579505144
0.0713041732383286
0.0686566931804692
0.0712456511874388
0.0671452150723702
0.0804414795385608
0.0676492032060041
0.0853608894263321
0.0737605635797705
0.0773560967169027
0.0738122370620848
0.078056642258493
0.0744046043624388
0.0752866405341615
0.0695748600497088
0.0783354680468255
0.0744311621375145
0.0845075612982986
0.0732928666313451
0.0813586660602965
0.0781916530928213
0.0887823909670171
0.0756079416761047
0.0783681135647092
0.079037113062655
0.0812185422550148
0.0764215169862281
0.0849603567338071
0.0835226703971399
0.0910374962490062
0.0783018506504088
0.0881543062083055
0.0811866042570595
0.0828063253185878
0.0846265791595693
0.0909243084548554
0.0836761205137175
0.089815456097334
0.0830154156072714
0.0940711771143137
0.0890236025613975
0.0907365906258907
0.080540982211846
0.0902517483850986
0.0925685051832554
0.103496564554996
0.0840632935407357
0.0910136260178341
0.0877620363742126
0.092147302445808
0.094449609218677
0.0979303255403179
0.0914664624270653
0.0977368867361897
0.0950765843366505
0.107703861283106
0.0970855041899212
0.105679352219252
0.0982430782264241
0.102684938660072
0.0986221322432162
0.10587716628573
0.0968635667944013
0.107605647485156
0.100957407537271
0.114450429807714
0.101855984984534
0.113337764363491
0.104021335979308
0.115833239745573
0.106961007718619
0.11394493731366
0.109909874684016
0.113387052965724
0.109164351545926
0.113373367487467
0.104853312254967
0.118154315303892
0.108768367100457
0.113671598227169
0.0985439006206011
0.113671124442074
0.11042624365006
0.120456257548924
0.10679031321756
0.118486361133065
0.109444646449747
0.113256831615111
0.111036901814529
0.115149329061259
0.107509639807239
0.110240764494909
0.100524936366572
0.11857584683847
0.106291862133152
0.114539754577009
0.10112753417538
0.111018229537842
0.101092575200572
0.105506785522784
0.103495091786356
0.106895742079941
0.10076506696234
0.114390197284626
0.102857210795183
0.111407871227679
0.10009058851844
0.109114640177945
0.102144432357247
0.108211073840942
0.105866092349106
0.106427313162688
0.095069951229263
0.10830631324822
0.10215120439169
0.102939278599231
0.10361145878444
0.10387773729532
0.0960016169863298
0.105645273474174
0.106024402825583
0.109475081589408
0.100737489600769
0.111917583959935
0.101845558580466
0.107931385347896
0.101144084381663
0.10482861782808
0.102100486390148
0.10110854534284
0.0991197179321605
0.10880759912538
0.102544897734334
0.0991593855096705
0.0949430476201593
0.104915523538773
0.0955190038948615
0.101384577096328
0.0988013049190865
0.103965446674068
0.0963327236642462
0.100740299176548
0.0946792762286585
0.0986003875413798
0.0876093675487428
0.103086615261014
0.0955718205190019
0.0962436628607035
0.0870366874822283
0.0916000364526048
0.0814868251609751
0.0909824276631227
0.0849356498296303
0.0848108669474233
0.08727541473157
0.0929496553523198
0.0781006316193263
0.0873677937926483
0.0831785860457242
0.0857648398461461
0.075772398055842
0.0798595620741252
0.0735744571816428
0.0825531162829444
0.0720113140526346
0.0746836594844
0.0726711881620996
0.0753707773119412
0.0747592258753812
0.0822294642656373
0.0778127302427375
0.073917757919767
0.0681274853062887
0.0742005355419364
0.0582374625700245
0.0760533594028218
0.0675476649313272
0.070198944066531
0.0670033497624698
0.0695479607816462
0.0655657689246524
0.0662041878415322
0.0624659714752444
0.0724278105040538
0.0640941212018679
0.0680402517341443
0.0607445915488661
0.067694001510809
0.0619233735090074
0.0638211162221552
0.0608306690527871
0.0672598897689447
0.0556427548177696
0.0663327175014548
0.0578757043647278
0.0615943531648295
0.056456148094932
0.0607442024379385
0.0573204930837188
0.061125993720355
0.0558808036832236
0.0630431142850935
0.0539315789833744
0.0630054875207031
0.0518142378039038
0.0609021852239698
0.0543338930305157
0.0595961777508746
0.0469387657935863
0.0545591036872993
0.0540440524070296
0.0560776968350396
0.0491959279037597
0.0581697077466198
0.0498996591737036
0.0577118656621426
0.0527637817579535
0.052948427934249
0.04963391457137
0.0511609751558983
0.0490314239880959
0.0546512336217219
0.0488578253577929
0.0558213418747765
0.0470602939093553
0.0534595675572392
0.048611599187349
0.0559970612700526
0.0468509367156827
0.0513150741368723
0.0519275230262297
0.0496846239337196
0.0513906667008004
0.0498996482727227
0.0433699254540951
0.0530281458575002
0.0453182581595086
0.0483693121825332
0.0468717509236319
0.0497692091686839
0.0441883380562861
0.0503381662478814
0.0443861033199718
0.0509807302301052
0.0458095025478128
0.0506447608439861
0.0443160814752316
0.0500655443206331
0.0483408117324673
0.0431985282093543
0.0414303665876566
0.045912497830753
0.0398311302669828
0.0480646727372736
0.0461466200449616
0.0498474647087911
0.0434793636880421
0.0438045667323341
0.0414668803710632
0.0461782108594644
0.0425507533894045
0.0447302825656524
0.0432903976345855
0.0462892696108357
0.0438701212997045
0.0471949390422086
0.0456696096258301
0.0433570428390093
0.039500610829403
0.0449489733101533
0.0373295303436599
0.0471501014836968
0.0427707953585066
0.0470149955521988
0.0442670821430447
0.0414835053019376
0.0357236846882809
0.0419662891349228
0.039390608763892
0.0418099316576182
0.0417362066676893
0.0429727329306842
0.039655901459702
0.0425005773607872
0.0392318676713819
0.0418136325890446
0.0421899011726435
0.0398861262887182
0.0394518206629052
0.0423531785061106
0.040275359366669
0.0423121241857297
0.039176256811501
0.039790209052053
0.032683211770716
0.0435942631090127
0.0375599442535467
0.0444148988655364
0.0374129076679543
0.0445204683694932
0.0377035567788879
0.043800977536277
0.0384474064107932
0.0444887232672783
0.0382025521058633
0.0454893411461177
0.0432003717210161
0.0470231341359469
0.0371680121143174
0.0427893776275354
0.0359402789234173
0.0399820210559838
0.0421196579727307
0.04182125609361
0.0345983381520181
0.0429820804375109
0.0356610285753717
0.0390250213297501
0.0358807405419933
0.04165433963826
0.0352727643542416
0.0416387476396731
0.0360728505372483
0.0372277312005608
0.0339899640930255
0.0400913533337565
0.0313412471968059
0.0366237023134877
0.0351250037695571
0.0376787369476226
0.0361796505676198
0.0364050523392056
0.0333156761900928
0.0374241289642321
0.0348811456492945
0.0399177485985886
0.0297117503523708
0.0381149987012038
0.0326255970475052
0.0435612294309699
0.0382358743566997
0.0370215622181787
0.0348859404105974
0.0352216822788901
0.0327357348154164
0.0371966135383594
0.0314740301512643
0.0385836393883379
0.0336152219414518
0.0359738912362254
0.031857153875336
0.0368266844871742
0.0301491198330621
0.0351087709295984
0.0342062278643218
0.0353242864001074
0.0293788431388419
0.0405577359878741
0.0300138602229469
0.0331036943168993
0.0326316359826754
0.0334625211540387
0.0313458093715797
0.0350703536964722
0.0305100165082118
0.0369275554159307
0.0309375187967383
0.0338002018784406
0.0329031086459008
0.0345016378560414
0.0287060775771025
0.0332783299697269
0.0330092461281821
0.0340847113201099
0.0351896464178161
0.0290178480252124
0.0272193331544602
0.0327710681691405
0.0329983238794498
0.030096542322338
0.0319639144465753
0.0311671355178962
0.02704353775635
0.0299934263120505
0.0249154865214181
0.0296138009885708
0.0265817082166996
0.0307609369672521
0.0244678739088561
0.0278550699200788
0.0229212623856601
0.0275010201879218
0.0245801429065931
0.0286642954424066
0.0242657307580303
0.0309925238036261
0.0298344266044965
0.0281206736664118
0.0254166674890285
0.0294560296892409
0.0220945518531045
0.0289047581068201
0.0251987557166061
0.0307259643537083
0.0258107080497635
0.0302860833125934
0.02908895318439
0.0284287935821545
0.0236803019963399
0.0246326070631844
0.0234836070706679
0.025092056991946
0.022748518903408
0.0292416278588876
0.0269950384412701
0.0264882461149733
0.0272042889031913
0.024997610096708
0.0203252839227302
0.0253028015744474
0.0237161238760497
0.0271798935850029
0.0229824264459388
0.0273061133209943
0.021642249057549
0.0256864698760829
0.0203905159747117
0.0219357381407949
0.0241786625988555
0.0250650471174379
0.0256725647869924
0.0257756328115499
0.021129384302688
0.023934936338364
0.0229821012598155
0.0247159530816609
0.0220066390593172
0.0292215377850985
0.0224488628762606
0.0247305694716419
0.0221096037157173
0.0228940867490815
0.0203739296894268
0.0205415573705812
0.0206387257773472
0.0223825688201673
0.0221466372290951
0.0251269723802899
0.0230359249051099
0.0245811677415547
0.0179720693508036
0.021872314664231
0.0210623082977158
0.0237116074212586
0.0196312725049246
0.0200279561936446
0.0232954833173213
0.0238523842357676
0.0206837653801051
0.0219796834420893
0.0215506752740898
0.0211250410182822
0.0225167023622376
0.0242783120590166
0.0198783088884356
0.0201495188728811
0.0201504433941485
0.0222911779100016
0.0234142335240025
0.0246436778935944
0.0200202181561005
0.023260152274891
0.0204061244656133
0.0193107755169945
0.0171277449355391
0.020136916331589
0.0204775681238143
0.0191785485597082
0.0199606953233088
0.0218915872678306
0.0236982955110001
0.0240060953198533
0.0201198517158097
0.0199544260659119
0.0204766946518238
0.0228109560425737
0.0185166126283386
0.0183699486123725
0.0202936090139573
0.0225164867588318
0.0192543599447327
0.0199077185833508
0.0182765717024682
0.0186324818059142
0.0183319898718565
0.0175548789821381
0.0180520106230061
0.0223092412286734
0.0218559755678959
0.0244412769435723
0.0200184036472921
0.0235011943398843
0.0177496639688664
0.0194853633079916
0.0175613264578827
0.0180788009806939
0.0203239759466923
0.0165439167449116
0.0166146098357209
0.0223819847912888
0.0156961979027999
0.0160692024983391
0.0190118876766805
0.0167780439122375
0.0187568471316256
0.0170069442447535
0.0157399664040853
0.0188683989065581
0.0203145307190669
0.0164626873851979
0.0137921470256733
0.0162551273615815
0.0153125642671414
0.0175667126842871
0.018053701734582
0.0168677994111511
0.0160982947560513
0.0184156775372644
0.0180383294978436
0.0135767816227253
0.0166555706203445
0.0202731641711634
0.0164427910170268
0.0216310306272274
0.0168462608235741
0.0191432237069649
0.016970445516973
0.0191528992315942
0.017318406829609
0.0159598632234602
0.0157904834124698
0.016380706034325
0.0147147559247136
0.0174329440035919
0.017782738223071
0.0192042946562574
0.0221282879614614
0.0208751092103525
0.0172570301593466
0.0146274187353391
0.0191336441369967
0.0156703956886644
0.0169171627965398
0.0174114262692658
0.0136908160411765
0.0182540436280642
0.013696973905924
0.0137585193461001
0.0160056004761569
0.0162866617523129
0.0153816282127632
0.0141689869330497
0.0167470451411385
0.0183150818235596
0.0178282845291665
0.0186376689692851
0.0132754963326318
0.0180818797207794
0.0152361084317744
0.0150865507427265
0.0164728605807899
0.0141012406947276
0.0118202178821161
0.0122431168661125
0.0190983381569635
0.0145114809750857
0.0140999674328567
0.014925477303777
0.0161734741391281
0.0137245366005737
0.0153108786922344
0.0148443895703039
0.0130343192552891
0.0165431367049159
0.0141772257905578
0.0148457196805748
0.0132708967073941
0.0123846343823211
0.0152116807828816
0.0142865444961851
0.0136521984957761
0.015197514479782
0.0127865050905268
0.011678988224501
0.0147091759996128
0.012740866392594
0.0150180330628995
0.0157108671083333
0.0136844640943613
0.0125936638281558
0.0131704607828707
0.0102492185965108
0.012231568244046
0.0126874012489202
0.0136571860664938
0.0130189303906339
0.0163487790680109
0.0145473682281901
0.0124517034401023
0.0128796200095259
0.0131522270525017
0.0095616245806657
0.0109326794905083
0.0140808126207785
0.0142699350436005
0.0139410922282362
0.012873307427692
0.0132448027382576
0.0140729058960362
0.0162616601748066
0.0136886628570138
0.00974481122994109
0.0166460658171732
0.0128606302981363
0.0108890688312396
0.0106151226499033
0.0121733982812338
0.0119102295415235
0.0115755039470033
0.00818447412500189
0.0113036167082997
0.0118606136509147
0.0112486199188489
0.00980920920259816
0.0145901725915907
0.00901471641974087
0.0115375031324338
0.0111623099953349
0.0129416461059834
0.0103790709798858
0.0120409195393512
0.0094799788272234
0.0119241351581591
0.00658289794092563
0.0103379622316782
0.00961424592850587
0.0104704765864188
0.0101701474259494
0.0120746682405232
0.0100998316692418
0.0120807161129788
0.0123740268432207
0.0125057141164911
0.00766706615749926
0.0152938482143956
0.0130803531942011
0.0120281560874568
0.0129015491894223
0.0119796578008855
0.00698413400253139
0.0123023151556051
0.0108766288139256
0.0140894589631855
0.0103949900733362
0.0123273919428853
0.00502734977523943
0.0152238867470466
0.0107726400756332
0.00992700792562933
0.00390038567024675
0.00794821492628557
0.00601978306912015
0.00748048572301956
0.0041939804328179
0.00778166901733277
0.00439652421683524
0.0128271381862451
0.0121818872903392
0.0135070865604455
0.00541263304728187
0.0136537870639907
-0.00139420658660268
0.00897467021164955
0.00832361274758156
0.0153340667549196
0.00837680454784989
0.0109745145761314
0.00813731012028415
0.0228975696779886
0.00799749975532391
0.00981931252211669
0.00733407861724691
0.0133716316492844
0.0109726497943795
0.0144440006646857
0.0074392046229134
0.0215807858147492
0.00870986512365659
0.0210193562383151
0.0109317310136616
0.0113980430406814
-0.00268681221218405
0.018118398683068
0.00104521264415175
0.0117250318503216
0.00197836387484951
0.0161178641565775
-0.00423336776871702
0.0171241441905245
0.000523885639044533
0.023258561767517
-0.00584323371920673
0.0242514861839604
0.00135177418460119
0.0264029842181244
0.00307646970102246
0.0254128223202933
-0.00452600629793873
0.021464437855254
-0.00410607849778141
0.0248575728996798
0.00219101156800425
0.0246616281149076
0.00128395639946569
0.0167244209909413
-0.00078556450949017
0.0225401036816642
0.0105985516384686
0.00863001589032298
0.00782002425798728
0.0150329418115755
0.0183170154795211
-0.00203996071891513
0.023547269532268
0.000300345171003882
0.0256159391528829
-0.00758262920369335
0.0306525279851836
-0.00723297279572547
0.027234271830329
-0.00189819302401358
0.019765951723461
0.000857703922141123
0.0163403306376596
0.00641642789120567
0.0137349559558267
0.00834113490945744
0.0133292758087532
0.0107143267271252
0.0115274994776309
0.00286836993703633
0.00829457651496012
0.00641893888902341
0.0146186696366708
0.00552902630809412
0.0125080090575743
0.00676537710937013
0.0141617273027927
0.00638510147075019
0.012626015797846
0.0060260513331319
0.00995969909205595
0.00969693128756425
0.0100485096423844
0.00527823934668701
0.00752991523826614
0.00635208162437831
0.0128325021348117
0.00886346203876169
0.00927776695274704
0.00389668059173919
0.0125664710067065
0.00795921484233548
0.013124598531407
0.00791997514680094
0.011461337046031
0.00724391077054811
0.00770484985242759
0.00773491497900759
0.0104860559427213
0.00625005203417004
0.00829033979395006
0.00786830901636526
0.0103130410369057
0.00695237287021336
0.00936049980214993
0.00927955072042216
0.0124969313074172
0.00495566752734123
0.00794800091324808
0.00650067326235154
0.0109719470782612
0.00641281422710028
0.00872325935119673
0.00659164877252603
0.0107738780200932
0.00893176462406444
0.00687759858506438
0.00706654830741124
0.00892454081095244
0.00887672127268637
0.00817313625361075
0.00560535462553657
0.00820422019781743
0.00794891797054712
0.00771643649861312
0.00681917952505591
0.0113317867205124
0.00752263291187506
0.00899463879346188
0.00739019105519946
0.010113909964039
0.00767565181672367
0.00817243901873703
0.00554160946970525
0.00847893915120677
0.00791688889196833
0.00926388820463156
0.00599982564706213
0.00954105410254587
0.00938446456815781
0.00746094796862732
0.00478392223755571
0.00481862803124929
0.00748437387137648
0.0111808930815088
0.00610641124390059
0.00853586717098081
0.00803835760856127
0.00988679240581945
0.00545484163069514
0.00880562225152806
0.0077112533622939
0.00744485915029355
0.00736737300057628
0.0099162402407216
0.00625097092246372
0.0106026309695406
0.00508324403118743
0.00727875629965384
0.0104827968681049
0.010716259124461
0.00679741527349219
0.0104332962924237
0.00628770996601518
0.00745671339547702
0.00745945546986209
0.00846981170610228
0.00686108937397362
0.00877050367407857
0.00614875850874031
0.00786956313196432
0.0071340038134703
0.00916434828651514
0.00651245924366891
0.0101630688216582
0.00813101230850908
0.005158802870815
0.0070214271466187
0.00929276796123072
0.00697692452613342
0.00822870285259837
0.00830549144473832
0.00980355170217448
0.00726304091276288
0.00754524478580215
0.00934487016340258
0.0100372741637247
0.008360050037532
0.00742486867566692
0.00783464764698277
0.00774125385986046
0.00691685515861551
0.0059027064243324
0.00620873943721416
0.0085981310051051
0.00778493876339278
0.00833276057580324
0.00400205675479276
0.00833820005190747
0.00889197978067146
0.00830096115080398
0.00840660907661072
0.00644044981498576
0.0102071360087011
0.00902741830430913
0.00991869037596067
0.00822854487249139
0.00818404442191894
0.00987846867762191
0.00764129641295891
0.00668553665305774
0.0106250977091797
0.00890415257244931
0.0086474286952203
0.00512154274254801
0.00931298145750969
0.00722536979973149
0.0076286558998499
0.00885630145568641
0.00939308676897339
0.00976488131009552
0.00636049994001847
0.010813501573565
0.00890539928841999
0.00850601000398652
0.00799315119510162
0.00936720584724598
0.00843062789864101
0.00722603227095533
0.00789620873943025
0.00775869844499455
0.00784731046639986
0.00670214889420341
0.00779384460730525
0.00993616851889038
0.0095810841629747
0.0109326230893802
0.00830319627633159
0.00821836714867759
0.00785353216290526
0.00349444799579184
0.00589463999408031
0.00718286645321632
0.00605740743339556
0.00777781743528743
0.0110211977664857
0.0065510042480874
0.00778086729527319
0.00783877750001806
0.00789366980902764
0.0101199155025057
0.00699400933680818
0.00575578474824246
0.0076612977318104
0.00671163141315346
0.00812955848133075
0.00928108833944797
0.00767546185012566
0.00630792618592037
0.0100576017576118
0.0102975221237268
0.00513680900531295
0.0080496109338641
0.00722136177294887
0.00606207110280096
0.00694706299533132
0.00399116620616589
0.00678601367545296
0.00678882707981454
0.00468553073213881
0.00805318072385811
0.00871565949197897
0.00965374987566881
0.00827730498599766
0.00490658854279785
0.00657743314555564
0.00589684170085839
0.00672899228795208
0.0083505217367058
0.0103173924308135
0.00750209192528191
0.00643162992017342
0.00873508535049843
0.00680277981120918
0.00441440002915317
0.00753966265796971
0.00836430317657873
0.00673167293111014
0.00811256509721316
0.010088833067254
0.00916286648443594
0.00650562414452733
0.00809272706500281
0.00596107874003547
0.00689006568470642
0.00880976041487615
0.00689903757298447
0.00605957173147043
0.00824830056755098
0.00634528710006868
0.00836882813920829
0.00968971808846218
0.00581120197728729
0.00799679454893085
0.00769851994586809
0.00793722502401462
0.00809595291394557
0.00825065996035537
0.00784043278459829
0.00679412179663541
0.00979877540739413
0.00856395790155672
0.00614468790028484
0.00941591112476882
0.00932904119266653
0.0102218336939469
0.00736108206994323
0.00616304231356747
0.00842614097199339
0.00652830183040803
0.00725231295258523
0.00805832326341345
0.00203258994881742
0.00962195389954671
0.0083784544642821
0.00897384090763174
0.00932196859127397
0.00598916792426444
0.00764503117060626
0.00781472166818787
0.00526864098653076
0.00719175275743259
0.00661587168039305
0.00829013361746049
0.0073900196130132
0.0105658779280417
0.00819325425693264
0.00865481354890963
0.00723535258346346
0.00601837441938326
0.00856903010105711
0.00780636163355587
0.00903129813643151
0.00911656829594166
0.00929576832927315
0.00885603630799664
0.00587239676349071
0.00752156625126883
0.00652362385334219
0.00980681490129657
0.00608659097765831
0.0104408264814631
0.00795686288251018
0.00920489128783328
0.00634675612109511
0.00669600769274283
0.00588935519857269
0.010255329851712
0.0091908853027528
0.00431537207710034
0.00473443100605421
0.00900776495023915
0.00663414792487996
0.00926476267853377
0.00484048384604387
0.0064260377847589
0.00720940607967198
0.00592563599601478
0.00766033182190803
0.00884452940663856
0.0091036866185712
0.00568043195481749
0.00580719334357266
0.00855192926400836
0.00342610961957534
0.0101519909418558
0.00812707162188872
0.0108888082313714
0.00490541902309539
0.00804436797458635
0.00813564038207807
0.00700235336228144
0.00753639857911277
0.00953547192299493
0.00475689662857803
0.00636037108838673
0.00696242314774786
0.0094895616755447
0.00759271140874932
0.0096996892473376
0.00732362334210774
0.00645409588959262
0.00560605398217616
0.0087512289092871
0.00716736240176614
0.00899820891369369
0.00632596471182226
0.00786584041735523
0.00356509080811964
0.00767046235011403
0.00576141991326335
0.0037660584654142
0.00753868512304575
0.00840387244645097
0.00579947412703442
0.00815554862390754
0.0106910462242858
0.00713845367921655
0.00477923020399722
0.0056311790124146
0.00664002433288822
0.0070615403302949
0.00457249021589933
0.00709078266798645
0.00667657451700301
0.00434285777536318
0.0066436714764309
0.00765798371739574
0.0073397486226569
0.0069539600111767
0.00562531902798446
0.00655860521660073
0.00669858363944082
0.00581656975280145
0.00648496041014487
0.00758067774093156
0.00508610591454307
-0.00016065043512847
0.00973523306915502
0.00793279604473963
0.00740931426424249
0.00555251544875458
0.00619187933035558
0.00511236777955478
0.00662552199932663
0.00718956156417814
0.00972407697073135
0.00747371512721923
0.00475408799318086
0.00717062058826031
0.00527791452899903
0.00425156294284221
0.00755694113972745
0.00810424246522446
0.00778881355206617
0.00789606945949669
0.0058625240859393
0.00462242815492895
0.0086267519414983
0.00562850548019176
0.00397225660082667
0.00233193223201974
0.0109140489267805
0.00209177966899787
0.000333815769627484
0.0193631121397436
0.00490588638230843
0.00840930506271053
0.00370597000820012
0.010214507443707
0.00306242661241654
0.0071661704323598
0.00529167817731295
0.00689345931344056
0.0045668785970572
0.00510515790092907
0.00149298099252181
0.00569830297370762
0.00454424217825213
0.00793187308903926
0.00298720927646761
0.00679773633099178
0.00363989805020164
0.00598050246075045
0.00123157221689345
0.00667756927097951
0.00872661981191862
0.0110667334352646
0.00363613618591862
0.0128360295660526
-0.0127365769850593
0.0194925795457478
0.00993114053675274
0.00932710873507375
0.0033894349814886
0.00937698297620592
0.00329204371702224
0.00709288271527826
0.00495205069642961
0.00566752601338444
0.0114355257725756
0.00260018393290673
0.0106779755641905
0.00285839785860743
0.00330975995119853
0.00485484317211389
0.00205544324480871
0.00619357098187475
0.00314137082876267
0.00743532042055573
0.00325228293000356
0.00662772102601717
0.00221331966541448
0.0072150723871976
0.000934507977887139
0.00199847125164871
0.00867660442596815
0.00804049814957832
0.00461757657856434
0.00987761296762206
0.00354405544410092
-0.00185474371495028
0.0244783558697336
0.00401366789843947
0.0136399275071969
0.0035353145640138
0.00614612782221753
0.00547769724036909
0.00582667682146947
0.000648147349537494
0.00624970144698784
0.00421308619996625
0.00545641797084703
0.00402207481556398
0.00703604473884332
0.00542927398198564
0.00424190415582511
0.00697232495170927
0.00369999901745183
0.00659546516746585
0.00187390121985402
0.0141611614341103
-0.00433487424473907
0.00305032954255301
0.016262844996573
0.0096683237863425
0.010487789374743
0.00837913555132441
0.00797192014717159
0.00270133885032293
0.00881130938238738
0.00120719492293966
0.00666350754248728
0.00407803288118136
0.00834256542358561
0.00270293746601606
0.0116244587972176
0.00128944557511433
0.00872136505976204
0.000972675485240191
0.00805353672958116
-0.000114482028236265
0.00877170415672611
-0.000134474567657122
0.0110460994697358
-0.00424457399444067
0.0144571006034013
0.00359600183727154
0.0153342509370461
-0.0214212251343272
0.013062236324734
0.0294874716156563
0.00265208767655835
0.0171912243561641
0.00264067277797178
0.0115138942042638
0.00155121799246016
0.00338581384457042
0.00831990739582937
0.00878596336113658
0.002331883923177
0.00569825913150713
0.00456152163676505
0.0126427426919406
-0.00252244159270736
-0.00806548417804987
0.0242588989968387
0.00978334065020257
0.0107992767156922
0.00557639817632907
-0.0118663140296285
0.0283292405341781
0.00320647736179606
0.0109816512034813
0.00645170662590685
0.00725761997957583
0.00557967583520794
0.00724232219244418
0.00144608332657743
0.00882424841274194
0.00753222146632553
0.000707156730947827
0.00518278893907983
0.00181725271055829
0.00720261367985095
0.00339381689801501
0.00448854624370098
0.0182949595420869
0.00447238578396016
0.00856971580136336
0.00808123069076459
0.00737452787415783
0.00931582459376702
0.0103094678781377
0.00144015278815573
0.00143793548735291
0.0177664009090523
-0.00180386612960922
0.00704827193380012
0.0168101150661434
0.00381359302196745
0.00690321034163916
0.00426469564120912
0.0153377918855342
0.00192260394230545
-0.0140827251092211
0.0312297479719786
-0.00757736617277497
0.0305697572929575
-0.00204651632919741
0.0182645280685396
-0.00357675510029974
0.0191791830234816
-0.0122547639970701
0.0200208563571832
0.00500755447082328
0.012041516729806
0.00273687793863739
0.00118237287933125
0.0147597099600689
0.00710167734220926
0.0119051491752573
0.0060069210450488
0.000970018585484379
0.00974879045093944
0.0182648021611056
-0.022692414673305
0.0234548757633426
0.0112124365213577
0.0213536051388919
0.0203263552250975
-0.0185313049835242
0.0351646454490882
0.00800569693887126
0.0123203102607756
0.00731271828302714
0.0116249696703569
0.0106671279587646
-0.0158106738476906
0.0284127652735748
0.0153055840926587
0.000421669635800544
0.02049790247941
-0.00926331602079162
0.0176319534737274
0.0187123706018548
0.0109127338136613
0.00590361147797544
0.0182157838545448
-0.0187450631852322
0.0171913525451594
0.0295862853624809
-0.00941099268592644
0.0332981395844206
0.00422483110018251
0.0242097677719177
0.007676989698465
0.0162363143293175
-0.00181229068009352
0.0263993995275884
0.0114827364661894
0.00522316137095969
-0.00844858008245215
0.0433820909199118
-0.000919449280424639
0.0254024691645591
0.00880709318453421
-0.00872340912571021
-0.0156302610171584
0.0476457774015267
0.0268053827029765
0.0242648247009593
-0.00540124494406805
0.0255263346460438
0.0149743700071909
0.0181850213419893
0.0119025980989721
0.0101999653232017
0.0139307028814485
0.00861664903136936
0.0164062108317564
0.0150407978026621
0.013028074054044
0.0208111342909919
-0.00725399265922474
0.0144091116407072
0.00481073771861735
0.0552049285284546
-0.000170866588407406
0.0324441895829909
0.0249985180145725
0.0221608169324576
0.0233093618741807
0.0141658140195447
0.0188882009675588
0.0175374950374454
0.0196213112279602
0.00615622301240177
0.0191821205574969
0.0317829379607224
0.00132065548869111
0.0542069738376099
0.00595734152038553
0.0283606716208861
-0.0779665295473558
0.139212850957251
0.0358278275649687
0.0236208544095938
0.0242566218632814
-0.0338509124104868
0.0863843222678108
0.039383649199512
0.0303050146731441
0.0351413948408005
0.0278946284685085
0.0243375517472327
0.0397416654980882
0.0289450303966888
0.0382430436438502
0.0449606064134561
0.0233082839144612
0.0024548002039593
0.0606549103893488
0.0588151154872806
0.0658890977667384
0.0367713984322417
0.0475084991745077
0.0594748274646946
0.0472640768906043
0.046254206634439
0.052061189572151
-0.00534585683098374
0.109273983522251
0.0517282577596775
0.0664825661662121
0.0336048757879093
0.0795358668519855
0.0366568023651977
0.0649364034649744
0.0935669721284994
0.0594456900084058
0.0760653564301288
0.0526956468825011
0.0806516167638211
0.042063001238546
0.0878687693431594
0.0799700191759691
0.0697532686116865
0.0804474791932542
0.0724144369313157
0.0768601107605355
0.0719263535029888
0.0842171324721125
0.0565437804431187
0.0787957245642686
0.0378637053152339
0.108673446868939
0.121088222283097
0.0695186781926489
0.0961442339374821
0.0499674963712969
0.0940270806026626
0.0710376034716075
0.0860531661372423
0.11172799429144
0.0710412435089828
0.0825847860871563
0.0747566483880292
0.0861665128160733
0.0721547946794898
0.0877441758934477
0.0645540086700006
0.0738772059957351
0.0810313458242021
0.00907774832016471
0.144681571171643
0.0750548145280352
0.0928283371809839
0.0724043089618236
0.0827816732751756
0.0661603144713082
0.0808737321306956
0.0452100933645566
0.099597714682984
0.068700494347882
0.0842311794940757
0.058395143829924
0.0676531891466318
0.100981651086398
0.0684729619362628
0.0739929363716309
0.0725379070635862
0.0716688218810642
0.0694777082239544
0.0135649426603446
0.122309534695764
0.0681447388634051
0.0749586701712472
0.0729693016650759
0.0682996194308203
0.0608615390546321
0.0669962423803981
0.0638239837795994
0.0773720248491947
0.0623768968952374
0.0736384910813466
0.0665153739984376
0.0705715852509409
0.0640111334174192
0.0661008356000136
0.0708277455004413
0.0634287199944381
0.0637571738955475
0.0629335304157072
0.0685366653363141
0.0666749373468234
0.0631670448144842
0.0653583169069427
0.0657271416907556
0.0682761302835001
0.0640965319682036
0.064384612016349
0.0633989395797247
0.0658189065740362
0.0654866442098816
0.0620134938837609
0.0629072615518443
0.0650751671458428
0.0641312472167074
0.0605167699351247
0.067356588021287
0.061571921034457
0.0642047512652592
0.0605851309118976
0.0640686971899348
0.0546948821371872
0.0644901389854021
0.0354372417271642
0.058239708179307
0.0987412339011942
0.0514817373987891
0.07112184061191
0.0458989289440741
0.0705412839964129
0.0337271435624666
0.0563366264744207
0.0802392406940046
0.0548147139067241
0.0604154848207083
0.054517749458275
0.0469599345488708
0.0762456192273008
0.0468603287211707
0.0587374177892507
0.0402441550267499
0.0115909713409793
0.0992193436891623
-0.0116008385388924
0.127451577508384
0.0662091109498779
0.0582578447644698
0.0181349997502634
0.0918358296993818
0.052461086356115
0.0550396869659081
0.0493320393393698
0.0435487841244669
0.0764860353954117
0.0418165061364585
0.0593985283376524
0.0433608659093978
0.0365087584917671
0.0690046081222815
0.0509345541591643
0.02980512208344
0.075425256260328
0.0421037544077293
0.0417083330823441
0.0811239944146398
0.0760022830287782
0.0571926678315898
0.0454555323028478
0.0508990557131795
0.0251113927905954
0.0625791408031177
0.0612222787965416
0.0407749783295047
0.0573192286479898
0.0328016777888662
0.0528761969751206
0.0411990901121043
0.0621579217458762
0.0150273543462665
0.0673456804039752
0.0462702039710024
0.0251215715979415
0.0576169397009667
0.0247730577264551
0.0833941113966771
0.0506978787180663
0.0383279024709134
0.0155523656212412
0.0768530179729667
0.0438980765347986
0.0480486313675179
0.045686112102526
0.0249742867281745
0.0569216238233924
0.0429024712879511
0.0247671542598513
0.0526975171585333
0.0227716134960114
0.047638913114566
0.04712770362569
0.0704140886863041
0.0554209116887011
0.0353674441023702
0.0400419169871553
0.0386125035832359
0.0407350408289736
0.0349612683895641
0.0113575977469132
0.067833057061332
0.00223255666298462
0.0585424835931993
0.0535279761559484
0.0372643441349671
0.0405351876958511
0.0395566545389368
0.0292438248599588
0.0462461894102578
0.0495432377644675
0.057736869485205
0.0216203840270731
0.0592808063201089
0.0411795366736335
0.0467444004148376
0.0411404147525259
0.0462353129245372
0.0355888044112593
0.0489557548442767
0.0505658704182987
0.0491690377694165
0.0455297298970855
0.0542114276794045
0.0311351392687524
0.0810878410424871
0.0382672086621111
0.0370475392670966
0.0738800337341456
0.0517955403263036
0.0873246489769696
0.0540102284969071
0.0655388842872053
0.0583570152938013
0.0611509601149886
0.0627904614538552
0.0404892157400357
0.0825004533011456
0.0685272198675021
0.0630693394512907
0.0691570877139978
0.0621909938005423
0.0676634376039045
0.0607918525425271
0.083561762220387
0.0245956399854096
0.113705032911532
0.0678656574433481
0.084640452536457
0.0709348658191726
0.0691023442688989
0.0804800368043883
0.0723095738347606
0.0758579763210578
0.061863740437914
0.0818072877569633
0.0843002232464048
0.0669829765771477
0.0800353941108405
0.071115457502024
0.0770119170002759
0.0755923807245214
0.0787825064694829
0.0788215037069956
0.0763335456020284
0.0769183263005335
0.0482494251565638
0.0920093366472293
0.108806740872178
0.0712195705884297
0.0940693416287477
0.0761727790251056
0.0905260847702717
0.0785343526128617
0.0815050017451966
0.0936855528603059
0.0892478178946808
0.0916975534433696
0.0906161440897432
0.0880081638905208
0.0863944278371157
0.0963614420002635
0.105211289264085
0.0790449318786667
0.0971241934789587
0.0414070030072777
0.137020376137398
0.0896103471727182
0.101320708811081
0.0969232208267771
0.0951890488227201
0.0918703934558135
0.0927153506242024
0.0936474809315846
0.0981081529844939
0.0917295613149245
0.0942211581511194
0.0963865727442772
0.0956605086717666
0.0963554005075461
0.0873868868148317
0.0946583294358503
0.103603173764207
0.0874399272618617
0.0967990474184125
0.090313264900838
0.093813749240627
0.0821471815506098
0.107319489233988
0.0936442474458802
0.0962004515505979
0.0848436459668972
0.103659863242727
0.106635694930168
0.0980176318273528
0.0889766932143417
0.100587861079966
0.0862803102604737
0.0963109152532206
0.0765304151646091
0.108200866641345
0.0993783109481611
0.0975278683269135
0.0968563364889623
0.0972554915993107
0.0956886624229071
0.0952791400465182
0.0970045963469954
0.0982940095999052
0.0972558523031381
0.0972697199046368
0.0966948559359057
0.0917783713893991
0.0956055809219971
0.0943180399080888
0.103043321474812
0.100053569789759
0.0902760436190083
0.0990131622890345
0.0880485265080279
0.0966797204908576
0.0939100421776469
0.0914099112883649
0.0871317784843748
0.0877209230353442
0.0831752776666674
0.0909738693379076
0.0978231474745048
0.0816217420282671
0.094636962050543
0.0787173003449707
0.0873793208175459
0.0799925689123792
0.080853348420978
0.0805989448331246
0.0804448774102812
0.0787392795870192
0.080020989588628
0.0763458936223455
0.077666230417662
0.0786828182363547
0.0772416931130567
0.0787237511916462
0.0763761331672401
0.0764926391902798
0.0750856569139981
0.0800652503749192
0.076678946807733
0.0751700372910688
0.0776845872553225
0.0740877485615969
0.0839549058036754
0.0768657787171732
0.0823743676236898
0.0729227499401681
0.0811190085627527
0.0750305669292668
0.0754301165025164
0.0787196093213956
0.0755567703145515
0.0751344618191893
0.0737534945331759
0.0765516408923048
0.0730381531783526
0.076624848984048
0.075478244290603
0.0734134377474644
0.071580912611665
0.0772380243526765
0.0761852253392414
0.0751728391832111
0.0752649596074661
0.0772413156725085
0.0732143848110303
0.0816265264061212
0.0781562803785332
0.0789531637153474
0.0765254619956507
0.0723383245315896
0.0757132373735075
0.077676600642658
0.0758841442359129
0.0756648112014311
0.0756932552316493
0.078025108005008
0.0772767516109001
0.0771119332656637
0.0759840747744102
0.0772800843934184
0.0724920151130748
0.0763466458477287
0.0725887566094251
0.0725666093070312
0.0724542729126926
0.0728426197303926
0.0664167647743517
0.0718173831825967
0.0693718652004379
0.0683230816289813
0.0665821302168517
0.0666879611636599
0.064507498046676
0.0652916921245127
0.0663022907868206
0.0643502409186009
0.0655842766736521
0.0621787696352525
0.0645015117120813
0.0647369492652062
0.0639721757038283
0.0651383279410662
0.064380518927598
0.0652513936065789
0.0654888406420337
0.0630871565429314
0.0624277062340147
0.063890121395897
0.0643837460177464
0.065002494873614
0.0639390631580546
0.065109412478433
0.064295769227076
0.0651732978485292
0.0632500495038726
0.0679232278418712
0.0670069432254543
0.0645523510432995
0.0670489871744897
0.0678590591960872
0.0685191724221828
0.0671739263747356
0.0682736605135025
0.0680701869379544
0.069021360026113
0.0682818386935
0.064001089207824
0.0693219986260247
0.0704960401495827
0.0718083619130676
0.0696451506259126
0.0701834464005719
0.0687021040060496
0.0690943177107451
0.0679127277750942
0.0686976520779386
0.0675447020305789
0.0680799159623067
0.0674296145195288
0.0704348628017385
0.0680453179216805
0.0659810062812802
0.067824701444985
0.068043356528316
0.0653080861855239
0.0675091531250497
0.0681485033958115
0.0660372393308757
0.0681191006423634
0.0665145315140774
0.0664772624739091
0.0618892304642817
0.0639486398371274
0.0637736699355074
0.066137872134089
0.0652747318590017
0.061926795394439
0.0652857526934292
0.0633131175128036
0.060855904002627
0.0610711358945639
0.0646367724721088
0.0637204377426116
0.0632184721283107
0.0624574924552039
0.0624083888663292
0.0625510845639646
0.0625658912820913
0.0614144258946921
0.0616415218623659
0.0621970392555533
0.0624782727532196
0.0600509750650824
0.0601127983396358
0.0599280161184635
0.0599052859409235
0.0592845792499044
0.0571960903718523
0.0588304390898126
0.0579749562863895
0.0568483233034555
0.0570323857768646
0.0568830810336859
0.0540162853066435
0.0569828805637771
0.0553328694586613
0.0538882872025918
0.0548185988452359
0.0545807140731657
0.055524925651491
0.0559425602388356
0.0544115593507549
0.0541485448603739
0.0556979458917978
0.0551422995294509
0.0544309147162257
0.0529783556778682
0.0527179550785999
0.053780777359702
0.0542113819509917
0.0534668643065501
0.0535070813001648
0.0515242787025971
0.0507537315167758
0.0490103458362499
0.050182073946078
0.0495963658983959
0.0496412880896983
0.0509665057294135
0.0528344078284444
0.0518828052940552
0.0550626006407635
0.0547227643213649
0.0584185472564999
0.0614045047466333
0.0642396659225584
0.0657570971167329
0.066660836894645
0.072617099553695
0.0751935171253593
0.0804600636919631
0.0811399955700316
0.0864091625409339
0.0880100847038953
0.0911435198530183
0.0932083813399931
0.0948968700053099
0.0981413307208607
0.10280354299689
0.104103047383064
0.109202516450013
0.108251419547609
0.113312311666482
0.112832120585602
0.116949479963043
0.117059240871048
0.117661436924276
0.119841290586393
0.122324683866781
0.122933048892035
0.121775946606078
0.124533050458001
0.123313471435367
0.124682914651419
0.126523308573256
0.129194471879747
0.127305167221582
0.125536146507995
0.127721366538982
0.126460839140916
0.127664979516014
0.126265578965076
0.129019280449098
0.128095313295468
0.130045584132798
0.128985773976065
0.130180465870291
0.131155604688364
0.133776713529985
0.134359538862808
0.135855426106662
0.136483995313064
0.13806577848765
0.140845927162662
0.141382947261512
0.142964730291719
0.148886241656865
0.144259169186668
0.148235552453134
0.150137314004004
0.153207238201488
0.156731484051785
0.156590279496778
0.157360903691015
0.160436703933466
0.165752649715652
0.166349363409538
0.166816163279692
0.168772208760525
0.172120990137853
0.173624146026048
0.172470402373002
0.171512209415735
0.17603399635637
0.17517725621842
0.172711817410916
0.173527093402629
0.169468705645688
0.169338126090178
0.173848947419087
0.169564931990259
0.173152954352968
0.170791854887259
0.173722496674661
0.171866141795246
0.17615222216666
0.177252474584216
0.183440593274858
0.184910900249748
0.18928030717429
0.195105963788709
0.1964577107582
0.201251584819156
0.200559648727277
0.2082027587123
0.209595227504156
0.218127689781439
0.21744036037409
0.222154187428914
0.223984162265446
0.227714273285438
0.232078182485343
0.233760822478505
0.240828321578009
0.238694439239087
0.243931154860492
0.24628052116523
0.254599214275126
0.257824716428727
0.257518908673654
0.266856002689458
0.272590862970855
0.274385249783812
0.279028579069491
0.276789420344119
0.281152748101773
0.286178713349421
0.287137988472221
0.290138179603024
0.286064122703591
0.293806214543277
0.293944164353939
0.29750375313763
0.293966213882351
0.295302391874994
0.296422498355782
0.297854485106393
0.292367032226351
0.29211864654748
0.294944667745461
0.288332044102883
0.291569934166796
0.288976624991515
0.289318957488909
0.289661614164619
0.282251835584839
0.288516437025829
0.290328189546933
0.290254324630196
0.289377164546816
0.293893623849659
0.291408650832544
0.294561585136251
0.294678780116048
0.296860011573006
0.296489704478475
0.297346686110152
0.292476145073886
0.297224895946799
0.296492716225382
0.294615912734609
0.292911497315805
0.291346601599059
0.285203801550611
0.286873880374744
0.284527512456016
0.285028592930966
0.284394697442548
0.284289772680263
0.284171726032559
0.316221998438277
0.330851548212915
0.302234621010795
0.291986175221506
0.280447058366657
0.271742690176334
0.269739225672423
0.266228328861913
0.264569224072878
0.258530684754688
0.261616594351746
0.258970141403396
0.258945273336327
0.251185881226007
0.249612440004729
0.246134093048724
0.244842927009356
0.243402954865319
0.23891266742085
0.232297189930571
0.223448340212012
0.216115198144166
0.213892308612322
0.197489261430322
0.197780287448374
0.18480912919416
0.176723721677009
0.167619532515626
0.162307746634135
0.154076036395144
0.150091305134341
0.140096199796019
0.13877097078337
0.132582536340714
0.126966395476222
0.122377319840852
0.125510721894005
0.121902326378348
0.122579138235711
0.117839927091249
0.118380828118888
0.116038509036798
0.115279642278599
0.116220794196151
0.109011945325842
0.111783794108874
0.106669821125487
0.104426317690645
0.0989849088639833
0.0994715770982258
0.0938465416717548
0.0937626723987141
0.0923767950181534
0.0874002601355491
0.0850127656008832
0.0827329905330437
0.0794877678825684
0.0702029109944412
0.0701511282729504
0.0677663477111387
0.0641500749637531
0.0618681369110859
0.0598871593406391
0.0549551228097196
0.0493410599157228
0.0491792904163533
0.0458018720882394
0.0424993864982608
0.0375136754306373
0.0388478546811382
0.0353005813040912
0.0339255514768268
0.0355734279253014
0.034504395126079
0.0331438868717828
0.0328569865706455
0.0304423190269653
0.0285552942830009
0.030239899123251
0.0305580804438975
0.0293633734295836
0.026819411309578
0.029531122004299
0.0291811376691057
0.0295834713707249
0.0307480838277537
0.0259861709391569
0.0281383628072966
0.0304333738544122
0.0274271672393768
0.0285414265537662
0.0309502427191152
0.0317391807104138
0.0294484961163029
0.0257288484699012
0.0325393926030271
0.0268136879461364
0.0279402682593928
0.0257429582329836
0.0291212612918506
0.0285067196695387
0.0287523287260211
0.0263332187932054
0.0268598497833982
0.0236285244888746
0.0287321572475374
0.024943434723252
0.0228512788513461
0.0257143411026044
0.0261464977195888
0.0258224951011009
0.0245514853822785
0.0244197418015396
0.0252086240496758
0.0240191813853304
0.0246698246988372
0.0315418373646343
0.028632292987571
0.0306702942349125
0.0301245382999696
0.0322503114823749
0.0302737936612515
0.0312903272189072
0.0313988045660928
0.0316973670497263
0.0314947331429504
0.0337612474704543
0.0299878776006595
0.0348392221828006
0.0369822834194107
0.0363422778399209
0.0355764400892846
0.0345816136747701
0.0362086629864915
0.0327116728686897
0.0354905962712261
0.0382518929585622
0.034126450116611
0.037878732140935
0.0435355286445408
0.03975049672938
0.0374345096539836
0.0461642048968252
0.0462885839399259
0.0450855830579052
0.0521603623237589
0.0476035244547287
0.0495472724709308
0.0551759608024315
0.0512954506073292
0.0493430128020941
0.0557292969655995
0.0562780781679981
0.057447028551915
0.0520205365557533
0.0539491155756195
0.0469629825126312
0.0442503792256391
0.0456507429687145
0.0542180447674368
0.0424375832220646
0.0473535266290246
0.045388015776657
0.0433402365883512
0.046941665787773
0.0465426809146602
0.0385274792602433
0.045423881470911
0.0497895267853322
0.0466869834215308
0.045252744781
0.0453579994106598
0.0465962958546838
0.0442516281972991
0.0426530263445119
0.0491962131180255
0.0375150247804219
0.0370599748077077
0.040594642045098
0.0394462058146388
0.0441167506077239
0.0434059725642658
0.0369243907568439
0.0360013498288511
0.0376952322757959
0.0383117229423069
0.0351631044577242
0.0275106509558486
0.0366820533323531
0.0338065208727043
0.0288006588608494
0.0328051378192673
0.0349016862079099
0.0319691001298901
0.0321553536472691
0.0291383937467282
0.0282912747407289
0.0334352760580424
0.0354532061149233
0.0272402842645715
0.0249553124058398
0.0344972950461001
0.0284704694875828
0.0254744552308231
0.0329359251648195
0.0329020918584552
0.0297841972892974
0.0269231778077463
0.0355006721480783
0.0294012044791241
0.0248775594986721
0.0230436244237432
0.0292483350108412
0.0309557867921508
0.0290861376175196
0.0314187229315839
0.0209590509041871
0.0267236851759651
0.0300430016764684
0.0364227272041859
0.0293875699705678
0.028532683771177
0.0226508818584216
0.0257608365467035
0.0220449594163843
0.0254007988742511
0.0379739506654317
0.0349500425510243
0.0277708773408804
0.0267218475042443
0.0228419694079286
0.0328547602179709
0.029709068404507
0.032977737753303
0.0326989914736489
0.0341774466910788
0.0353685498271767
0.0415857323678871
0.03284756104259
0.0302144130026468
0.0330172989778924
0.0307383923972864
0.0215490951101797
0.0382905769386341
0.0323432405821862
0.0398675365872617
0.0408247147985416
0.0387420291596735
0.0299599079966707
0.0354164517894129
0.0459823695047303
0.0388604236891528
0.0443133903921743
0.0463833701613533
0.0445465126723749
0.049847159377505
0.052423341552355
0.0547839105903446
0.0491274816020136
0.0590683432737825
0.0637697469400166
0.0602829740439827
0.0565947344834034
0.0611536796154065
0.062444915368362
0.0672134129377871
0.0637834461678548
0.077502716669035
0.0612581218845992
0.0682737346147397
0.0696398402505454
0.0606774131613608
0.0704218078276752
0.0703453722363019
0.0622957632812587
0.0627290502611363
0.0636844354220812
0.0493716318115833
0.0505423023479107
0.0645824385658644
0.0627837190393265
0.0540188647631228
0.0485158669562176
0.0722418113635221
0.0590588741347689
0.055694772390159
0.0617709525322051
0.0565354639366066
0.0537981819122986
0.0585453774390051
0.0554080221179692
0.0582433590926636
0.0646819669049077
0.0456995902918921
0.0660595647477032
0.0718017479273681
0.0384272995168016
0.0385490992460263
0.0326691850389847
0.0498848440078779
0.0416774299522655
0.0638935465462242
0.0495887342038003
0.0531964521141046
0.0470935089963259
0.0496047119616903
0.045950752257523
0.0461783414613307
0.0537952594333377
0.0705152227910246
0.0348774057836129
0.0496336294080511
0.0352337657505592
0.0521252978540232
0.0594120490721915
0.0553901445994431
0.059395711622266
0.0531929857636848
0.0414316823860211
0.0646290232586354
0.0356539418322719
0.0444248522146694
0.0684837192707538
0.0563558186337854
0.0664157476337282
0.0596982386726727
0.0540187193426495
0.0471516751177258
0.064122929782489
0.0720315561744995
0.0452551953485998
0.0525529322694367
0.0492486968035841
0.0729149941368005
0.0726785978751815
0.0551626859104717
0.0462077486123043
0.0408339532520482
0.0375158864912312
0.0626453823666538
0.0648691407206893
0.050484449733201
0.0446062490972014
0.045734425947907
0.0481213537455467
0.079761351095324
0.0729269115568026
0.0626914927797686
0.0735058480644976
0.0774594221400704
0.0351107129782285
0.0793867024778332
0.0672750790533548
0.0856434405382904
0.0704299267780279
0.0813134435674554
0.0817177364478309
0.0984477929324082
0.0914997387885434
0.0696624431719387
0.0890159112225213
0.0582644802195527
0.0630336716318478
0.0698949074896722
0.0582003542154665
0.0521052813796262
0.0434568328218702
0.0436578541810455
0.0661045893399769
0.0571378707560613
0.0383821953869732
0.0599668066954911
0.0656478054061333
0.074939559307735
0.0625595459907104
0.075718180128268
0.0874899884385308
0.0407986386796316
0.0776064902669067
0.074960538400175
0.00843153798239693
0.105068684564575
0.0585995266925317
0.065583644518903
0.155387190732332
0.102836726135891
0.0552521979167019
0.0637592347722593
0.0278150175972258
0.00492491777873083
0.0584231902325463
0.130676485938266
0.0459746777813515
0.186070812334104
0.123907702080891
0.11778388489752
0.00193351321425095
0.0124795716088364
0.0821382874463648
0.136295242255285
0.0863793132358877
0.0574652535836166
0.153619063823785
0.163139998905326
0.0572162638534911
0.136433915524195
0.107867296212542
0.111666425292826
0.0916620749154694
0.121103375624929
0.130368533412144
0.138785850894912
-0.0856990417197305
