3596
4000.36533379555
650.420452594757
1
2
2
0.0359369431563619
0.0250026939516688
0.0387602789377681
0.0128518366554108
0.045754563140268
0.0257147261321119
0.0494667612441857
0.0183827369816041
0.0376966054871919
0.0236154221016437
0.0407665354371326
0.0215049047425023
0.044124494141027
0.0112950975349787
0.0333765586874431
0.0212970898939567
0.038973997154142
0.016553619757148
0.0439261605945662
0.025181802373067
0.0404410616953554
0.0366480510237773
0.0428680878839323
0.0134291157964265
0.0444094197851704
0.0306217559899144
0.0315521405986282
0.00841244690251543
0.0430488940117743
0.0181124325737106
0.0451238657781472
0.0221819518422048
0.0383813362778423
0.0158924159505784
0.0463468349126148
0.0226948913121394
0.0468965207080155
0.0265947799284176
0.0461345012923767
0.0206786546427078
0.0485617455609
0.0215936961782419
0.0458976026436934
0.022543327878677
0.0326751314145989
0.0249345079013196
0.0363368054574047
0.0246178858534384
0.0355468347694453
0.0212415585535234
0.0573298755333653
0.0182283611595612
0.0488944409585825
0.0241560812355125
0.0314403350806414
0.030733026345812
0.0397162768729057
0.0232413887981616
0.0396324241144785
-0.000922521090727542
0.0472262645309377
0.0412044741551487
0.0351075366381642
0.0308843520711169
0.0399282384986298
0.029821290913538
0.0353840329647237
0.0241776743812637
0.0176041302952189
0.0205698219816181
0.0124865899821546
0.0339515828854154
0.0597584628972942
0.0232833724657598
0.0434437936543738
0.0212394564384483
0.0458374438224659
0.0246922272182721
0.0251746478857198
0.0227619213989795
0.0430048241041138
0.0283149383938399
0.0340331386826049
0.0183164417409675
0.0303052361048724
0.0405103841853896
0.0249116471685381
-0.00420022610369783
0.0595676137254636
0.0311712991674885
0.0285291653862225
0.0189923415207569
0.0441888958813334
0.0244318108979578
0.0315280592361369
0.023914226459568
0.0405352919513634
0.0241503746171352
0.0257515615699679
0.0141404449829353
0.0318794542291324
-0.0117765688187871
0.0893856081135894
-0.0152178249279465
0.107039628816509
0.0263422990808874
0.0173963592712093
0.0525378649379697
0.0586311351223292
0.0291766054700335
0.0326703139066777
0.0208433530803349
0.0285473140842927
0.0264722451900094
0.00876580215202124
0.0126241997129143
0.0864885809487578
0.0370321346780632
0.0338532784223443
0.0220382978382773
-0.0108246160220628
-0.00171687400507046
0.0718367469250943
0.0164937070709043
0.0597812140953069
0.0184631140120833
0.000407191022602932
0.0415163327642104
0.0808714475347445
0.0278459189612868
0.0398702403727781
0.0150587997415886
0.0297834193350716
-0.0184388780864896
0.0843643126449227
0.0235735751075323
0.0374638294686909
-0.0209816281442986
0.0376020979690776
0.0719781740500383
0.0536743199772916
0.0300837945264379
0.0115803681455161
-0.0203230449853455
0.0810108888579553
0.0350435193429104
0.0152989841662637
0.0234092408551372
0.0660922863954084
0.0105961113626962
0.0366999257446362
-0.00168357800422094
0.0630447558589408
0.0221972072504955
-0.0352637724778781
0.0252527311906464
0.117604424609344
0.00724877898954268
0.120215104673439
0.0192036332213653
0.061191894480791
0.0178552745188311
0.036008157032659
0.00738465612265647
0.0346294012824974
0.000821093571501581
0.0262354419289385
0.0533734394128343
0.0238007825542989
-0.016007267322325
0.0752211051040588
0.0227678136952419
0.00309623214865238
0.0976288344755612
0.051167422246351
-0.0130953953610853
0.0644140316691483
0.0379708406429319
0.0184860208830738
0.00649534308390355
0.079482407201351
0.0253884355130185
0.036451849977827
0.00560176231457697
0.0224249782454115
0.0277407431631135
0.0470943106480732
0.0233540410732813
0.0467974886124442
-0.0347738675503184
0.0148230563171174
0.0645716821358779
0.0829771278665186
0.0176781665330466
0.0427111634602138
-0.0526186602529549
0.0670380858966353
0.060142334373581
0.0435407573034549
0.0182486103479191
0.0306343688989174
0.0181230039639177
0.02801958570115
0.0260264680879344
0.0282298391652076
-0.0356266485323433
0.0872167369120989
0.0435579850814647
0.0387517474061954
0.00206471728396325
0.0274901278456445
-0.0327255084348304
0.0874141812456308
0.0657893030576058
0.0343349004746472
0.0260686980594352
0.00547639804863329
0.0119571379126082
0.0715329392316509
0.019773922698603
0.0385689321543153
0.0237566968062553
0.0370777911707222
0.0193343464111163
0.0369723491909366
0.0250425430602535
0.0356041878875294
0.0131937080661387
0.0295540932168382
0.0215819192235586
0.0476406432595624
0.0246080239881167
0.0459165070762646
0.017622397922341
0.0178585840244848
0.00408295315870215
0.0725196344496735
0.0224641738085627
0.0392960144525229
0.0136983160351292
0.0330990197504234
0.0169102843665939
0.0370296624313029
0.0133232379668688
0.0381075554020552
-0.0244649575701805
0.0906891585053241
0.023486556368327
0.0451270774838861
-0.0161029526508206
0.0450093952089068
0.0340470366662759
0.0405998211023777
0.0212471650179552
0.0466921239971873
0.00188117173179416
0.0198203018189077
0.0448050906724526
0.0472156481404223
0.00169012689178711
0.0439697907358418
0.0255039621942658
0.0355502810071765
-0.000642701117050872
-0.0183454836379946
0.0915655381341939
0.0440179306894044
-0.0343791543029841
0.110499466081645
0.0536851819526421
0.0498658984245952
0.0136611321134097
-0.0677694505020426
0.0994318240171024
0.106935807445692
0.0288115292947284
0.0343524001544441
0.0408253603919157
0.0286238353445405
0.0124017433203403
0.0342687663350463
0.00679448325872388
0.0497791754414147
0.0266264479818152
0.126149752058572
-0.012191290553911
0.0543594720203678
0.0550027802447927
0.0367088172468463
0.0269513566861033
0.0350494264259685
0.0128933589083074
0.0400464533049569
0.0392326392385139
0.0347248173600435
0.0253346459129411
0.0232531406761394
0.0594447279984854
0.0497312629346923
0.0203278875633166
0.0313956120281446
0.040265691919027
0.035123675294062
0.0310828771189444
0.0148227935233344
0.0308424309339668
0.0215580180525594
-0.0174833743045627
0.099691157916327
0.0325933905035007
0.0162879906745319
0.064001295227614
0.0528142280132122
0.0304949644535754
0.0290435847497612
0.0261696987536812
0.033305229212086
0.00871826144653305
0.00992901610664907
0.0629993324930286
0.0483581517135748
0.0286007686978836
0.0370782620756224
0.0258906645782773
0.0328189589207538
0.0228892740906788
0.0357303924942827
0.0228956158359076
0.0390570891676027
0.000808352676335001
0.0399345117194646
0.0533913172618166
0.000979905606360729
0.0414045322279907
0.0830249436674161
0.026932390882871
0.051330608357539
0.0231334122718065
0.0493211918591563
0.0187122764125653
0.0424332388489019
0.0166387008663966
0.0210076166798601
0.0453652026075415
0.0549375862726751
-0.0099845882399555
0.016847928427381
0.0435524437519962
0.117508300131446
0.0462935813995002
0.0510063887469563
-0.0142381336578253
0.0466976252661793
0.0617421697859327
0.0394620046943265
0.0678888771063155
0.0479066688995443
0.0394269171539036
0.0412177601825199
0.0281975440457252
0.0438356994101224
0.0353108580681605
0.0393218916855787
0.0357859088157183
0.0391753618748956
0.0366346023703736
0.0289338491178323
0.0109990779047769
0.0887836517384299
0.0514263422626323
0.0455713789748564
0.0345410043555424
0.0155176978170781
0.0325765848022299
0.06088790213772
0.0425666457079422
0.0792974829589011
0.0201782323012866
0.104508957332186
0.0422225155743644
0.0610034603502028
0.0425105725069132
0.0460692935796376
0.0458674142392266
0.0574762373720007
0.0362153487371251
0.0494036622534425
0.0393432082592723
0.0617516098929583
0.0384029526033518
0.0599558183540437
0.0326891033834503
0.0804790803895955
0.0553836606687359
0.0546138532916253
0.0240268647368125
0.0405480431778884
0.0715055905601843
0.132511406717057
0.0667569496837354
0.0646032680864328
0.0691032860121396
0.0582204435820717
0.0643623183062274
0.0555106654220861
0.0583547020725142
0.0518483214983662
0.0694159977046957
0.0866484881239881
0.0648735016083689
0.0998618293186913
0.0479456414866507
0.0813151978036265
0.058890437457347
0.0600917707537461
0.107038135914175
0.097783855310071
0.0390414100241194
0.0969050048588431
0.102420917154053
0.0616815587349002
0.0949954866783638
0.088044018494356
0.0777379986824707
0.0877267571676143
0.073910635404581
0.0913740277293008
0.0728819827452101
0.0928122290123221
0.0782431966444311
0.103333013243567
0.0809342373849184
0.0800109320942528
0.0853008482926707
0.114650393588009
0.0904111734418575
0.128060843611831
0.0935076287097481
0.0976758081977005
0.0766134215891827
0.0985821596406155
0.115539312951367
0.111479205890799
0.142702342652456
0.121770874930188
0.104575073819527
0.117017056476348
0.109634640908158
0.121549438738443
0.103218400299983
0.129654822981202
0.109913022985622
0.115485190900823
0.12038940488954
0.130501305949392
0.116038586479486
0.125950808908403
0.128903499918986
0.134948853638657
0.121180893461
0.14683276713727
0.110337368598317
0.145228196622365
0.153727369136867
0.153970833220574
0.173314601207034
0.161699245122887
0.134061922846585
0.160362411778241
0.147812287619006
0.141830879652487
0.155667715601051
0.170821361527021
0.156322467431821
0.162206361691538
0.167925794570761
0.165805308837374
0.162584998625818
0.178681046955207
0.13971575992631
0.193884118015956
0.18967223944554
0.180163208151327
0.150222486517754
0.176615922339525
0.173187087784925
0.176957977063087
0.172225366466374
0.206258563164547
0.19334148678856
0.208668824570736
0.176086496834876
0.208974861546589
0.193747320954488
0.212876813040211
0.190190049410498
0.208629084196694
0.213556889655355
0.207921990869294
0.193683262255898
0.229793309464653
0.206551839799374
0.22630844885858
0.216821680448224
0.225917489686774
0.229680754665354
0.240458014173307
0.230927112958693
0.234789017456694
0.236128172175058
0.251367189018144
0.235552365993523
0.237601800975755
0.245880863801437
0.252575251462897
0.248850321404361
0.253974171277151
0.245960975030675
0.268491764869954
0.252441909799736
0.273170360259881
0.265790312928455
0.280467414772821
0.268091698913705
0.282021303141023
0.260843994387497
0.284076279633027
0.283480919844128
0.284685616473074
0.284214484356979
0.297113950977126
0.288593377531952
0.296715238222139
0.294561447225067
0.310361443660587
0.307373208721692
0.317575360698012
0.296778352438832
0.298216641155141
0.32145165033686
0.332129988916971
0.310907922487835
0.329665727707684
0.320452385975552
0.338095610151056
0.326502903209246
0.346002725439015
0.321534770277611
0.349232771020349
0.346343529223187
0.340590618378277
0.332956728110509
0.350483450707559
0.332787838821518
0.343166258177125
0.346931634115518
0.362641590599836
0.347717258122257
0.369846495637458
0.360195982356693
0.354752584443821
0.358828174177813
0.391613933598743
0.364014621726715
0.376020725823127
0.369239042395
0.394678010809807
0.371740768035147
0.392549526346449
0.383462126639271
0.376984837186829
0.384833012984268
0.409504754390416
0.41178424614129
0.406560052668889
0.382258627339624
0.408941052720394
0.398125618255429
0.417251665461537
0.398723257409247
0.416928724470894
0.400846184451342
0.412871003844122
0.411213102740832
0.42641607321628
0.438570955114005
0.42611149043617
0.435682292166172
0.446427205535063
0.42119995998666
0.441494711456216
0.421400126121525
0.444140087501829
0.437069865281916
0.419788570178211
0.437864814492371
0.451390744310381
0.452611023872682
0.461749751295051
0.441824301654343
0.460236375786266
0.44419035302882
0.450270503284092
0.45756759104169
0.484339144301698
0.464719919014612
0.490604946299089
0.471749483467594
0.475746920626791
0.48114848592134
0.444673297968621
0.440531114061127
0.473508070936063
0.490278038443511
0.491917191812917
0.474670581476005
0.499317424977974
0.497674947874513
0.4792695338433
0.484493243741317
0.490232219348545
0.486913100290857
0.530800665672599
0.481993177178566
0.505594169941833
0.499637831538312
0.498482465325345
0.494881974420026
0.501364003576434
0.501662386299693
0.488755151791563
0.48069065863935
0.491867148698637
0.510682625524252
0.527023797692664
0.513297389492768
0.530734818389636
0.501851382292793
0.49135325717756
0.505194618554388
0.514695484855544
0.509757381073004
0.506812791710216
0.508349015234846
0.507964827334837
0.496779968973792
0.519165096317222
0.51647301729254
0.513994504543037
0.512278418341165
0.495434098333147
0.504493520922605
0.538304216319526
0.533723283949545
0.551463608794471
0.574987545096371
0.540013210593327
0.525182414541199
0.541790624075055
0.531938360762766
0.531791047754355
0.533867391651763
0.544758860402987
0.538208839822489
0.525900883314946
0.532704622988817
0.537296477441691
0.532300447393198
0.542103869420661
0.558890676750173
0.544160155403102
0.55840597073613
0.544390868245043
0.534082488397234
0.553199651185449
0.531815088167282
0.546008687879827
0.552276103420899
0.557210474701919
0.573416780028857
0.565916361645145
0.558481126423045
0.543279290841217
0.552237161680582
0.567527542514825
0.564907986437327
0.548892020145711
0.549579770460728
0.565072337177829
0.556212696605822
0.55136491785255
0.545714206866377
0.540536345206571
0.549852467744886
0.555005879809884
0.541811143144176
0.540301764450928
0.55478097498637
0.569402478139676
0.570051677372405
0.555324848159627
0.558119338690734
0.554967541443279
0.551305658017915
0.530011929452319
0.550574853862192
0.55844908086299
0.558411373251805
0.552731235047078
0.560429995873698
0.541216285768717
0.555243075596417
0.549033565447014
0.559806601039181
0.57812394270518
0.541479596875536
0.543175883776541
0.560854027632233
0.549484224293352
0.537887652050522
0.546981439477445
0.551373415382346
0.528177928888214
0.551430491806875
0.562774587749271
0.544499983394721
0.543369135262178
0.548575468584502
0.518571838870036
0.539896940545472
0.538946057450177
0.534341919355932
0.556483779151872
0.542500131637292
0.547011204673302
0.529146451358977
0.528268797329658
0.547181943772127
0.544495132217729
0.549031700640854
0.517788789688692
0.547624028094945
0.53703919586605
0.52713931865701
0.528501334213066
0.521472860336218
0.534558915695898
0.552476790689952
0.527832239684374
0.521811306537876
0.545335279128366
0.543117696011528
0.508894467873291
0.517847917328383
0.51533425553995
0.513587563842226
0.513346251281812
0.530020350753028
0.505186400346107
0.525989334083572
0.509837429484252
0.527280768214911
0.531337665542061
0.511715731636377
0.510236178946652
0.505355474637124
0.517445326174117
0.524065043905791
0.513486769489617
0.523027801984542
0.515249694982034
0.524703351024835
0.510610879329473
0.501521559386168
0.515717053939185
0.508362276757877
0.499888206281964
0.512295938189172
0.49761790728976
0.495379017819663
0.493073232564969
0.506571847897041
0.485055201770094
0.492255712700051
0.489140258856679
0.509251388849429
0.501560717242002
0.482494478475503
0.47614853010222
0.497112860869712
0.485699547372242
0.485394298002418
0.486284544274003
0.490895306778997
0.466729127198426
0.470097595188315
0.463730328212478
0.482575397123449
0.472369497870663
0.478557837049698
0.467634361778966
0.471762629864219
0.458951842989196
0.47038622338147
0.467897431684745
0.472636120073078
0.462954407885307
0.454795297216911
0.449717432586438
0.464668166474267
0.442119418882004
0.46118670903454
0.45203860756709
0.461918252109402
0.458309363711737
0.447882104979852
0.438498710287375
0.447063906495344
0.440708596624083
0.44621871538013
0.43161578299139
0.452731882825053
0.446914913665636
0.438872767418508
0.438022098636155
0.437495361355984
0.436299317130717
0.435430437773727
0.42034109777182
0.437197516255747
0.425571470349593
0.42718829474834
0.427905559515385
0.431533698370146
0.415034527290882
0.44072316125869
0.41647512315679
0.420202451091866
0.407864512328095
0.40882128294447
0.417418822192233
0.419555080453061
0.39861165199531
0.408377377184839
0.399034409867322
0.398045908162898
0.38363621865555
0.392181832429409
0.382309099605061
0.407044011979514
0.382039741061177
0.394560677897148
0.387476190140746
0.398323615821326
0.379641054139234
0.393913318896214
0.381044477178974
0.385243867301055
0.36569438791722
0.373634733836338
0.373829527710097
0.380798571798106
0.368698172672183
0.38518895630617
0.366655344435394
0.373093963360621
0.366318965037157
0.369829142659927
0.354243608852531
0.354846543509423
0.352534603586833
0.357102996852157
0.355692146959316
0.364965540148767
0.345098022091603
0.349584659312337
0.343062650710791
0.34852815240732
0.343048114716304
0.338374070300683
0.337517119341272
0.340174634572987
0.340563745656127
0.337760376415926
0.32614271363324
0.339263747474738
0.323338883625223
0.337760825400704
0.327927518364399
0.335477589025555
0.317336471728309
0.324719326705497
0.327151496793964
0.33294989951771
0.311772682913655
0.329917037180545
0.316760997569454
0.319802112674072
0.305405985630908
0.309882953855476
0.306285472604523
0.304518947628767
0.298515166539034
0.314150976077275
0.307548255809642
0.307475782757677
0.294148806013799
0.306082230051156
0.293723052803058
0.297556026653535
0.284365204515785
0.298152618383046
0.282322338087347
0.294897534884776
0.288448223401571
0.296549755147042
0.282280413379484
0.284611643989338
0.279712327425703
0.289235941863559
0.270023300858158
0.284157477666108
0.272898987907061
0.280412491984915
0.280312154303095
0.290057828225299
0.267532482368662
0.265691903562312
0.265399368081127
0.264426731799627
0.255876305582982
0.257174816155612
0.260118684368317
0.262949296990142
0.261680178928264
0.257830151836112
0.255596110680109
0.264227557067441
0.255460244367615
0.256006842386907
0.236918553154557
0.249341092806948
0.237243779322418
0.245549777040751
0.242598784983941
0.244315995787697
0.241048522189433
0.239012156588501
0.240628684984443
0.244391729135041
0.230177082454819
0.237702194173765
0.237800617409113
0.244927448438306
0.234721460854951
0.239328637514309
0.219097709795277
0.228992708176769
0.23622270054758
0.225462690680271
0.219815529706733
0.23018662732401
0.223160767391359
0.230745413851631
0.217879650224282
0.229466572236378
0.22152040173339
0.21581331551614
0.210067519617363
0.223240961442153
0.210221948303406
0.22410999493385
0.206103999003493
0.220211919117272
0.213056767493812
0.211991561178788
0.203663829155609
0.203330537889587
0.204837818146835
0.202973337933894
0.20217040109053
0.205895937273186
0.196225485453826
0.208021467726843
0.200098182820357
0.203089167141038
0.192313687756775
0.195818676858298
0.19076075167988
0.199095782504554
0.190467131126754
0.197881474996956
0.190835641345134
0.190936798415331
0.183982798173872
0.197419411796517
0.184634171978924
0.190965028267032
0.185054223978843
0.189794718734821
0.183507766892346
0.184629305644316
0.178951017599337
0.184621541024135
0.18236801522534
0.19251441693547
0.174386384621553
0.181623222677224
0.180453146987307
0.180243362057649
0.1706594858273
0.17496723712346
0.1786818453526
0.175663533961456
0.171284099216833
0.179625551276303
0.168531097322287
0.183089997894211
0.165941200323706
0.170524079982493
0.162057611785208
0.176860823662869
0.162365700422947
0.167866988429667
0.163864559495909
0.16189735564174
0.159918372369346
0.17042951179201
0.162502982100259
0.169129866104447
0.160031526277367
0.163213532691032
0.1554828146499
0.159937127531983
0.150214429609192
0.163733699313678
0.150849468614021
0.15385050752854
0.148002761208766
0.153558632872239
0.142331202790335
0.149851488487795
0.147666485365966
0.152880084671344
0.142183544991345
0.15651504320632
0.150405141015852
0.154898064409599
0.143024792593876
0.151635608655625
0.139089395330467
0.140736944477694
0.142973828140859
0.144461058440187
0.135265170476902
0.150907495750311
0.141244322364944
0.147777581258787
0.135048102596164
0.149671836527311
0.137993268776649
0.139289808171178
0.132933201059541
0.147667764091645
0.137803691437775
0.14718479262201
0.135733453403946
0.148296180821665
0.132757842644546
0.139638090723199
0.13345878184514
0.14363787382471
0.136777305628234
0.136492465946901
0.12521565581967
0.139161481284818
0.130867152966837
0.138661351738281
0.130436820826926
0.143941549058578
0.14243594956016
0.141188250735692
0.134817028754051
0.141608512295711
0.135985566580273
0.14100613191022
0.12670334570015
0.152577437405304
0.135528087924819
0.141951307594541
0.137542585271679
0.147957815983235
0.143625822220886
0.153706508874585
0.141096382604638
0.146116925376039
0.144479829990053
0.153102602146221
0.13692898305437
0.15198749688761
0.146916173015589
0.154432789193129
0.149893086332001
0.15762539689807
0.149262228574641
0.153753794211521
0.152570717321721
0.154342279745024
0.152874807243322
0.16390763008945
0.148679168147572
0.166100281111523
0.161940257511342
0.160306286801523
0.155013125917139
0.166357075555732
0.159018207983396
0.173311424617727
0.158640171555111
0.172473385974873
0.161564369646807
0.169676284171024
0.172163777478254
0.168928862844775
0.169802841194075
0.172612236235476
0.169674782082372
0.187919476039484
0.173705009176117
0.188741409602792
0.174564565393439
0.188210666701707
0.181088046564014
0.187623782358229
0.18290612224968
0.196626818362594
0.182210594173858
0.191350384949739
0.186550079113265
0.19441566905536
0.191710551830415
0.20155011992055
0.189873534655191
0.200979732806179
0.194859937262964
0.198867878359028
0.194519368909737
0.199947898093016
0.202585636219718
0.213684594137814
0.200845951448049
0.200003477402801
0.189917498109467
0.202856830202329
0.199918036971193
0.206880594032197
0.194060838157103
0.210799747841189
0.196502508996216
0.209142310736105
0.200421093710627
0.205680404136504
0.188355144908162
0.200574089690218
0.193617433639439
0.205798038681971
0.198078328256304
0.200426438560447
0.186617172696261
0.201568903209165
0.191116387628752
0.197393651935473
0.186468617303983
0.202161071171127
0.193013620031455
0.201118002790822
0.19175689625032
0.203915182912924
0.191597280647262
0.199817003466666
0.193572227754682
0.19497431503501
0.191944490488054
0.197847031140251
0.185233244772549
0.199592922998406
0.193345988821377
0.201269856750301
0.189700499534399
0.189650022686955
0.181287768786131
0.197729521579215
0.190170669034084
0.20041413023733
0.192493037671766
0.203938776840605
0.191325007419862
0.195793833468076
0.182634576844801
0.191338035115515
0.189379302210584
0.193866193047741
0.184297706110859
0.19287043387288
0.187241024434474
0.193903689305475
0.176987054498104
0.19778653421014
0.176116450699121
0.195211329696377
0.186292583401336
0.190108855186244
0.175889509448404
0.185588052573526
0.178074572791752
0.182412447933938
0.174542465581357
0.180889573714344
0.172402875816337
0.182949861328298
0.169522843837646
0.172980560854764
0.16701625620588
0.171151780054263
0.165387827569129
0.16753385660621
0.163012512692199
0.172663994766965
0.156670155609358
0.166330745007013
0.154965152684282
0.161529605165386
0.151456156462226
0.152383744123228
0.147061861356711
0.156925722752017
0.144048021652127
0.152982542130267
0.146285641646171
0.149062725601575
0.138362442500869
0.148156638814329
0.138337937204751
0.140209186753994
0.130275551879341
0.148036269177298
0.130054441288754
0.137436203697157
0.132952988151892
0.141269624083096
0.128399489948309
0.138264013055267
0.126141563730338
0.132255587928178
0.131020004828272
0.135495625604761
0.128202684817698
0.127534897936544
0.12228206525367
0.126274047017873
0.120487804556105
0.127778288594726
0.123891795739356
0.129307923865905
0.11479277167275
0.126161572419703
0.118340127216823
0.121148217820445
0.113213771012119
0.117204323651274
0.11342139648964
0.116129696821031
0.111666988281849
0.121132131211682
0.114143684551484
0.117863867195582
0.109624957733213
0.119612648505155
0.110122987258655
0.117456200033323
0.101397976001749
0.112088165013581
0.107412671547136
0.114611239302399
0.103798491349756
0.112052098420635
0.104907913936706
0.112521810720188
0.106963174254478
0.10802298305527
0.0994542358005585
0.10661316366607
0.102216845359145
0.107196033106802
0.107718957204956
0.110650260733984
0.100322594075861
0.108274089244378
0.0966416025771241
0.104964642365947
0.0983884829693242
0.106619308977109
0.0968595527823167
0.104682210485188
0.101072261657907
0.106590320167606
0.0953573682430017
0.0993655071444867
0.0943162415095946
0.0979355179601529
0.097310200167771
0.104482810540757
0.0900270093333424
0.102719048617286
0.0901561618532961
0.0946456357231478
0.0941688514976945
0.10232167423306
0.094450443871256
0.0989128905603465
0.0927925692257926
0.0896692376552238
0.0898572331477421
0.0947407322064335
0.0883841111118752
0.0952621515352627
0.0920724018808608
0.0954867968861424
0.0886366630464428
0.0958228238343294
0.0893310793197638
0.0895073338438528
0.0877460861849818
0.0932503635912005
0.0917877195682714
0.0901130329051023
0.0889552539597555
0.0877202002376036
0.0863801373474203
0.0953268040631336
0.087044329004841
0.0914719205740562
0.0829658609370583
0.0921242240717006
0.0861355723241672
0.0896802992941874
0.087484907581916
0.0903796994646689
0.0789204050212537
0.0863923246174557
0.0829983591111236
0.0902829269630063
0.0856809457601295
0.0883639936956931
0.0861034349265995
0.0879225400175109
0.0804022509967683
0.0865436872943971
0.0833851093801981
0.0837545893878666
0.087759451469682
0.0886989073189729
0.080728550704945
0.0897928612925343
0.0829293655485704
0.0847282513117946
0.0778501974653352
0.0877402886340588
0.0777528252038615
0.0867669302382001
0.0806781141471014
0.0857655602949451
0.0808315156681422
0.0914542723894182
0.0827767394157513
0.0867056143598259
0.0830685181733846
0.0852648415610772
0.0818590955044583
0.0872528343003338
0.076707514616692
0.0854902338928325
0.0724548366728313
0.0819193475903411
0.077581011012807
0.0818741834055507
0.0764463448157076
0.084845274810647
0.0754463828040543
0.0817136007817024
0.07645133951149
0.0827637464588779
0.0754843217373805
0.0818909848113809
0.0740178207190685
0.0803991816421195
0.0782556298072345
0.0804755489309704
0.0728303481745112
0.0771248972426464
0.0738866392355185
0.0759803597716457
0.0770363956226991
0.0757752609259185
0.0714848136594327
0.0778351288262007
0.0725779436329533
0.0835722789405388
0.0682606507190697
0.0771422962456162
0.0669328021120408
0.0853007680405643
0.0740852009709668
0.0757907943324492
0.0687835772315014
0.0732420298943572
0.0707719446698208
0.07904951993382
0.066925959823001
0.076264506372222
0.0723526485988203
0.0721945326449155
0.0674932161676335
0.0758120988989799
0.0678803174014336
0.07407306451618
0.0721847619152532
0.0742446833435098
0.069394999782511
0.0761901294986924
0.0660347274720088
0.0713220123168041
0.0658807526746092
0.0735192388412844
0.068098555884172
0.0722002986315659
0.0668928973611089
0.0671737096535941
0.0645832448234522
0.070863151107816
0.0649428157070946
0.0668509131092357
0.0608429817900692
0.0676831014853359
0.0636129745911195
0.0696341685585332
0.0681845804217743
0.0664296025665537
0.0636920317675767
0.0638543609209854
0.0647680688670786
0.062400307046969
0.0619887835863476
0.0659586320297545
0.0568667778476244
0.0677740840181113
0.0600683253687003
0.0621490094766514
0.0598473822477413
0.064274303924224
0.0573029257127703
0.0630555994913611
0.0565944074624922
0.0601502223665706
0.0569501666801068
0.0625876003438669
0.0559840099480627
0.0651425125783726
0.0594906417203678
0.0587326476136748
0.0529562405108242
0.0626527424956666
0.0518683458216976
0.0601954305096291
0.053965184086563
0.0619562187576376
0.052819148559564
0.0615327596096043
0.059538664319856
0.0573498492450046
0.053093564257722
0.0559293074537349
0.051368719991154
0.0552288354266151
0.0521000061641488
0.0570477244678262
0.050409973550823
0.0555414811583457
0.0537097794196011
0.0540562760664858
0.0502973386748538
0.0592379553464819
0.0520703815609313
0.0589017216062281
0.050305017345767
0.0541020548824113
0.048645091023389
0.0518317017903116
0.0491692769747163
0.0505225394796924
0.0486977655804447
0.0563887907760214
0.0527660504967979
0.051353379054522
0.0482675813447567
0.0511910649543378
0.0511064210042558
0.053826853999924
0.0463886831242614
0.051699128923576
0.049011527887165
0.0540057093782776
0.0484873057922948
0.0538869785522176
0.0476216567913609
0.0483839419687619
0.0454783095760349
0.0496970044266013
0.0479042074728181
0.0496405315011255
0.0472584312667235
0.0492490930433629
0.0449373306209219
0.0472658229625399
0.0432966067250403
0.0486969892288854
0.0477362301721823
0.0470789985163186
0.0461090473535592
0.0478651493361497
0.0466774734085049
0.0493196707833994
0.0447302660723471
0.0467292393226631
0.0477991308312431
0.0504739463430361
0.0441981966119536
0.0467983630021641
0.0433120456319235
0.0514674526983694
0.0480945933026265
0.0489713666142697
0.0466335198371679
0.048604876065475
0.0420456070478667
0.0444603416953296
0.0423458337023256
0.0452124317239275
0.0407270596663044
0.0424179241950618
0.0485444904649986
0.0469194020984502
0.0412202846480498
0.0456659921091099
0.0423104198554233
0.0438968030458523
0.0429035940843855
0.0460770187467715
0.0449029397874343
0.0438457875261976
0.0399363866824377
0.0462736803451234
0.0420169903932461
0.0473155212813778
0.0414037813645534
0.0437011387932637
0.041851489540084
0.0402979428205873
0.0377093470022143
0.045700747429745
0.0436848501667393
0.0459034721190696
0.0411290485833735
0.0453673868146871
0.0413160236599865
0.0433210363476319
0.0393544869010451
0.0432207125850715
0.0446650672060047
0.042686604290585
0.0383682338266606
0.0409495053848217
0.0358145719541581
0.0400292716569152
0.0382621557268262
0.0388288385744878
0.0386693674066215
0.0380098395970473
0.0364161922034114
0.0416145109495803
0.0425583942022132
0.0371493939769928
0.0335542121622285
0.0412851422135163
0.0386839089141681
0.0396004127644143
0.039469978825102
0.0416525879229122
0.0397202938743548
0.041073814163203
0.0386398710307264
0.0387668421006532
0.0373916713254352
0.0427910248944833
0.0375444210828508
0.0417096179489554
0.0390894060339864
0.0405514048267184
0.0350502208491676
0.0397456762602169
0.0388989549483544
0.0364189978399062
0.0357899576484395
0.0421064881796141
0.0362639285605274
0.0379217686341447
0.038583074604319
0.0397445022727336
0.0422351965969905
0.0407759812846961
0.0383721513207622
0.0374606799613519
0.037705251725347
0.0372519144861384
0.0360870846061774
0.0389428762891902
0.0364276079186844
0.0394558677068407
0.0336577701158087
0.0339381501819686
0.0346094621708739
0.0369568435870543
0.0377456102144301
0.0346051223891486
0.0366819950277206
0.0384418053856042
0.0315455693785626
0.0346116257443543
0.0316895936586047
0.0377736114274875
0.0342321379698038
0.03443332049203
0.0336288000844746
0.0325324165343436
0.0322026696971234
0.0333214891502644
0.0354868321594192
0.034460343477577
0.0325880803031142
0.0329046411804948
0.03464408931275
0.0336679645768894
0.0309087745909169
0.0311810560532728
0.0291733954654317
0.0345809999323754
0.0333757303904843
0.034836914543128
0.0308187954044031
0.0313202779652007
0.0339459908075199
0.031963411016858
0.0293300685843824
0.0340064406397107
0.0293036308020819
0.0320016797898511
0.028975569135026
0.0277381853161361
0.0309647402914001
0.029838089472412
0.0301664650083659
0.0301021835420987
0.0284005747912891
0.0265085961888364
0.0281605598663646
0.0273177597457521
0.0286168960562597
0.0316131386816489
0.0308924549435597
0.0294422364925542
0.0278992222502434
0.02878185421329
0.0291084057618762
0.0307832138141673
0.0289919359734393
0.0305988429101348
0.0284577221249716
0.0292325159527705
0.0265246372791592
0.0278715440853277
0.0282354985594548
0.0298950211323485
0.0267432411001406
0.0274198925733448
0.0301009214424799
0.0278459704570204
0.0262157596176644
0.0281815195600643
0.0269002740676465
0.0267311399672178
0.0270788815572178
0.0256343313377025
0.0278983218866652
0.0260854500092535
0.0230128787327442
0.0240979061596131
0.0265654246392653
0.0266028996421078
0.0269096251867122
0.0230480809693965
0.0247035311962201
0.0255166186081713
0.024265367814015
0.0242857590392561
0.0266140470126588
0.023854762840957
0.0261361789703242
0.0243624067035989
0.0222870792495745
0.02568951369979
0.0266935575772124
0.0230326571695312
0.0250368352708387
0.0259504352221124
0.0238420140837054
0.0210326999346884
0.0267300741845236
0.0241969451501059
0.0256195612270372
0.0273488593948983
0.0259926547584982
0.0222090776195825
0.0242723038356422
0.0260641439585168
0.0291837931763227
0.0248933336870669
0.0228138711227031
0.0212988215408213
0.0289141786456629
0.0256140109400353
0.0235959384301762
0.0219867565065497
0.026838597405043
0.0256197611453788
0.0222124126726716
0.0222771521196568
0.0240535768403764
0.0189452080419539
0.027613775444225
0.0318986120463205
0.0356268503199324
0.0251852932916806
0.029049399130804
0.0196649495383328
0.0290038843337345
0.0276058087717188
0.0295599855337646
0.025767344410494
0.033148364894626
0.0297305229794035
0.0323283147987955
0.0281443294911029
0.0307565118054905
0.0318055610381036
0.0309936273907036
0.0262847295631668
0.0328014684631754
0.0240269676032448
0.0373269010969528
0.0252195955127009
0.0356284207959432
0.0287554428357359
0.0272521443164701
0.0129167051052561
0.0305897829667392
0.0192916132332066
0.0289871206743104
0.0244566648797631
0.0361182086995439
0.0128901530419386
0.0390308224179234
0.0176607299367327
0.0385578212791263
0.0101109383150747
0.0400568586281708
0.0122218661351314
0.0425503024174184
0.0136831439071611
0.0478244713599788
0.011812513359382
0.0413920905146734
0.00574669006645027
0.0425121063246634
0.00811290351747185
0.0480541025466864
0.010192508251722
0.0390184905300048
0.000278505297355529
0.0473127992650526
0.0168929428092263
0.0359540681707087
0.00873018107124045
0.038817745684462
0.0228442926394886
0.0224303249346819
0.0257633268526982
0.0199761426379633
0.0362424048529441
0.0082099487771944
0.0417289149480607
0.00692564140294633
0.0430859345838068
0.0106442288883878
0.0382373181181364
0.0124288941305687
0.0336412378399586
0.0157662707649605
0.0277454960338026
0.0190517446144872
0.0227296663577912
0.0215315848658496
0.0246130482760313
0.0189005187974064
0.0206351187947077
0.0186444450190101
0.0233010076697768
0.016239731179483
0.0265227880802135
0.0174375017412052
0.02380194756249
0.0169274409917456
0.0242191408330636
0.0175430382631077
0.0219202554699022
0.0194670961746948
0.0239492864241374
0.0175232754338464
0.0205664863956392
0.0207569487245442
0.0248422474887008
0.0171853061775061
0.0199803511345501
0.0150239727606725
0.0226074607447156
0.0202023537952084
0.0259634946221523
0.0169123803427461
0.0220111708465854
0.0177796670468266
0.0199518939844292
0.018631566345573
0.0220609220161474
0.0177466072107058
0.0219960285122053
0.0187450216730845
0.0210029892646325
0.0186225826598456
0.0216830166584296
0.018634696132568
0.0238197203129962
0.0161789792862973
0.0192693244165219
0.0190187472102004
0.0220913567479435
0.0156852920913107
0.0213414256547688
0.0164061773955745
0.0220844522253676
0.0214766712550732
0.0200962641475529
0.017451775744415
0.0204348789704578
0.0216146481988479
0.0230469775903661
0.0180644346015071
0.0212828530125972
0.0165000308141104
0.0198418936545146
0.0191149956078316
0.0215766348030006
0.0196765817718041
0.0212365592674262
0.0169117414339116
0.0189698302183809
0.0182204865432096
0.0178873983565292
0.0149041367406847
0.0206391280717444
0.0189037338418307
0.0205829901673807
0.015641419977098
0.020477899322561
0.0181492957518345
0.0191409484003192
0.0142155521364858
0.0182000114331271
0.0189539073699792
0.0231859888497926
0.0197560402502805
0.0202627115743087
0.0194185124923943
0.0203243122851987
0.0159542318098986
0.0205970180770779
0.0182075828919168
0.0181614682418221
0.0200301196133418
0.0216665995187219
0.0154168353642025
0.0205423379490463
0.019163251651565
0.0213393156607686
0.0213966041001712
0.0214737706920064
0.0193963916319437
0.0205591627278315
0.0187474956721653
0.0207158971542786
0.0181877282169927
0.0185759495905467
0.0181971490784605
0.0207303741759919
0.0183205069557713
0.0211214494531634
0.0191615590456734
0.0197715926361987
0.0197893514561779
0.0201130224423745
0.0170336726415378
0.0184782834868717
0.0179803927117952
0.0199661462875644
0.0203609428977506
0.0193903677020345
0.0198731641576624
0.0212977660104026
0.0194064989400993
0.0214717370889805
0.0200023093863433
0.0207629763339386
0.0201668456537609
0.0202274213007203
0.0180031019666129
0.0186285603361402
0.018344207235107
0.0191435763956593
0.0160641050716772
0.0220004545840211
0.021693341790651
0.0203673551820199
0.0158073578732232
0.0190881242529735
0.023952950807414
0.0227717323034834
0.0192801954208352
0.0216489564525359
0.0225179005973021
0.0213821475808189
0.0200914491888925
0.0188482807281053
0.020829265506071
0.0216662322923435
0.018946582443161
0.0185615807009464
0.0225918316539813
0.0217632428129158
0.019619685217971
0.0208854362941346
0.0191057936454449
0.019257104819027
0.0180728773900289
0.0215257717598997
0.0211561842212017
0.0207491315979064
0.0186341143512999
0.0210694907344697
0.0227035026264122
0.0184442186190848
0.0182248265507754
0.0239151488642505
0.0210441075733093
0.022309672128807
0.0224550675557458
0.01823148016092
0.0197310794261616
0.0199157285647451
0.0184857144371885
0.0205170229805334
0.0214292392946545
0.0248009632874447
0.0216258094009228
0.018467672945579
0.0173143131933351
0.0181975890957149
0.0195931579404757
0.0196137431338255
0.0199378710279067
0.0200325465038772
0.0219873466712682
0.0218852397361202
0.0177107117605478
0.0208206582131788
0.0192884011345302
0.0196875963329703
0.0194507456380276
0.0188982699992068
0.0213732240017588
0.0201858208399154
0.0170440902564049
0.0192995823364835
0.0207114389489606
0.018618732859992
0.021991676934635
0.0219053795774264
0.0164588317702171
0.018477696559576
0.0180663920708208
0.0201921035097369
0.0208878542772146
0.0193452338394609
0.0205189526795435
0.0191725419515838
0.0198411726570479
0.0216941282188716
0.0192014922761739
0.0222962215534209
0.0208973009533007
0.0169099836685392
0.0182976706010348
0.0169659097309646
0.0182529941213108
0.0196999249901554
0.0201249480197066
0.0191065962499461
0.01889851511777
0.0191466835229154
0.0168885878329132
0.016287761504169
0.018427454248501
0.0184970291063699
0.0207971342065152
0.0174458575176973
0.0222217172041121
0.0217331056343555
0.0201476570779109
0.017702402438639
0.0153759056269979
0.0198909608392362
0.0211875576306636
0.0185443736204634
0.0195797523041494
0.0188828035397708
0.0179691364303514
0.018769683132314
0.019067008923543
0.0188427579203929
0.0202583578614258
0.0193407245912509
0.020418324110214
0.0193424205092865
0.0186613379625396
0.0203980049470276
0.0206384261548724
0.0203777246222859
0.0188146808292661
0.0186431583666747
0.0214162100527215
0.020265875379664
0.0214340654145246
0.0182739715776663
0.017317593510766
0.0180026023783275
0.0182473301436373
0.0188405533507192
0.0208377111635797
0.0169865672265506
0.0216079360160643
0.0203655489062125
0.0202737492812498
0.0208600454340677
0.0205017264824296
0.0181740397913635
0.0172304676294551
0.0193184352903071
0.0204009657972279
0.0165475740339962
0.0187619596424297
0.0200415741674815
0.0201979509506794
0.0197943029225065
0.0216285566720532
0.0217293411623482
0.0204134965769506
0.019486882088473
0.0178105127045283
0.0192361629003514
0.0205966475277069
0.0201901728081997
0.0164711518224088
0.0186087114536255
0.0178780982605017
0.0216558422804897
0.0212090824150472
0.019061591385264
0.0187330380710648
0.0202034152527597
0.0187520177177371
0.0180004350493637
0.0160788578068618
0.0175738989953047
0.0205079498041233
0.0191836250730344
0.0179881741186431
0.0152253223359682
0.0205612039504892
0.0192245607506337
0.0161454968395634
0.0160960077675564
0.0168868295011088
0.0178960053837081
0.0207641702760457
0.0175926118270799
0.0186783881841662
0.0171752456436177
0.0168019358101994
0.0183548515499289
0.0217243586769366
0.0158199473935749
0.0243163597446491
0.0183451578498322
0.0196912734541348
0.0159711279965746
0.0204092930865576
0.015609646013126
0.018208402062801
0.0173681889551125
0.0184177775722571
0.0143418147154574
0.0198203299706636
0.016494668605489
0.0189890147016019
0.0156069762500231
0.0178237533961992
0.0152076309517926
0.019147114959883
0.0178426266008146
0.017852968878872
0.0166542811976847
0.0184782882271488
0.0164003091742994
0.0187820824155969
0.0136592888196171
0.0207723117236697
0.0149156963155668
0.0154496918031996
0.0178620351472729
0.0181668722565138
0.0166063286757263
0.018231036625652
0.0174719836550685
0.0165548659077095
0.0163230456833606
0.0148765667468588
0.0185083900814315
0.0173617080398771
0.0132733105405502
0.0170908200792062
0.0151470334522628
0.0143998400583911
0.0177634187536257
0.0172678114984732
0.0168169433012029
0.0181628158704971
0.016323783755403
0.0158159720975653
0.0132994859564641
0.0140752057738501
0.0140411533315416
0.0150619825511085
0.0137711285443344
0.0136940117671747
0.0203765801829638
0.0182977040391463
0.0170146618596635
0.0170108776385384
0.0183109457372498
0.0142069927064445
0.0162214289861684
0.0178552100607586
0.0157696552004413
0.0178888006320025
0.0165929932834616
0.0150485640554273
0.0152633562532827
0.0158424699940306
0.0155591789577582
0.0166216169871218
0.0157820729609825
0.0150426900778162
0.0155699989005821
0.0142821580827779
0.0169588460138074
0.0129148018728033
0.0150797395263333
0.00992490624662179
0.0181786076293582
0.0121179755257589
0.0125548455826377
0.0263405134790168
0.0164300873510036
0.0184508583523277
0.0125818062113138
0.0190589004882215
0.011409909111429
0.0159722986389044
0.0132047992588791
0.0172336219822496
0.0137756593703569
0.0178358847670337
0.0102855332929278
0.0160504961852412
0.0121591437506922
0.0166265743901727
0.0143170320573444
0.0168510777981311
0.0121524124284273
0.0181839366239301
0.0114969674518635
0.0151947107737066
0.0206266808416405
0.0187309602736557
0.0150238505659411
0.0201825792379227
-0.000503221968740662
0.032958553603517
0.0162347162440147
0.0193794354531928
0.00949833996867494
0.0186453256043512
0.0101712090490734
0.0194790045453532
0.0112353419446276
0.013311118724603
0.0195855070083893
0.0125271095537256
0.0178538778314614
0.0144600691010912
0.0135117300350413
0.0142799171599247
0.0141599771023948
0.0150078135147819
0.0136450176663221
0.0166582099312854
0.0126596068428407
0.0192844616229813
0.0108285134158833
0.0190430921968233
0.00901357711685117
0.0134933898591584
0.0169638293326903
0.0193527063455118
0.0124795790114925
0.0200750896778466
0.00946711640311947
0.0104930887778632
0.0337445423629538
0.0148404125261991
0.0200239700928037
0.00997708721803305
0.0172225421699707
0.0166392123990592
0.0126405738468032
0.0123862184904803
0.0169975152813657
0.0146407323337224
0.0155310537326209
0.0114157005581931
0.0151066271509632
0.0143977029215731
0.0166257817642859
0.0175569394751703
0.0123193101307397
0.0191073636139582
0.0124693199047783
0.0191624714420913
0.00409022275519437
0.0172984886553534
0.0246961036800274
0.0196543990054295
0.0221049608568777
0.0179082182447376
0.0186237013338491
0.0151344837149645
0.0166428206242498
0.0119454438932956
0.0156019647047837
0.0150238528166454
0.0187806896225786
0.0124670900147601
0.0179026310362919
0.0102224869625942
0.0188561631932839
0.0110109763920943
0.0177652873820003
0.0109621460217985
0.0189552118588073
0.00674196139049365
0.0206412884121826
0.00360325810232956
0.0259090299709127
0.0129482056104677
0.027337511556345
-0.0144667566144093
0.0299469224078093
0.0313568871981578
0.0129451538753107
0.0262176149620325
0.00970130804279143
0.0209754212587364
0.0110562383448601
0.0115754472254821
0.0190450210854272
0.0177691329913132
0.0124825988439812
0.0148066950303464
0.0163891011100538
0.0232965741633596
0.0050157176482095
0.00216447079646436
0.036427120079898
0.0180804482710905
0.024715974198008
0.0142374580365713
0.00094704109373884
0.0385525765900406
0.0121071305446202
0.0209802695223637
0.0144766703414411
0.019466480834166
0.0143421458676749
0.0190211632119297
0.0120868837807596
0.0204688062544377
0.0166690571964006
0.0132073433749583
0.0165686167876813
0.0126109309619728
0.0186557551834917
0.0102498027874342
0.0149450983659364
0.0307640816613516
0.0139461563654579
0.0196097755705807
0.0194351867065386
0.0170238604357461
0.0158122049535319
0.0210095497462085
0.0109043366890861
0.0135935687459712
0.0280291806542776
0.0083988705591972
0.0198283488029722
0.0265123672491499
0.0108705291808885
0.0182419242516313
0.0154910021841833
0.0319639267947705
0.00876807377017787
0.000815737147333364
0.0419781859120507
0.00545217365752489
0.0440612185665144
0.00813024947995924
0.0293933542249178
0.00577579705908082
0.0312119978944192
-0.0046655827304016
0.0380377951982568
0.0137072051336335
0.0281679162575147
0.010827993171948
0.0169037971497475
0.023107081258291
0.0210939788668697
0.0229245494320697
0.0184925562415032
0.00871483788324609
0.0216989814416853
0.0274598688172707
-0.0117756654023511
0.0419333785837291
0.0208575381508118
0.0373466243314348
0.0289103888317363
-0.00549323818210292
0.0555667859992561
0.0211021112197934
0.0277231973711791
0.0169185187296741
0.0242423484366251
0.020130670706598
-0.00243310569038908
0.0450977883916169
0.0276670594784701
0.0151980742591162
0.0326718964444938
-0.00274021949449934
0.0358619042764316
0.0274580564121273
0.0259103782240656
0.0176176233783215
0.0338453584062903
-0.0105822965079002
0.0399605917471854
0.0392581718363324
0.0102302950540646
0.0467445862669474
0.0195641009404072
0.0412723470908567
0.0216707283918514
0.0296425914174128
0.0142156844963183
0.0418941584816915
0.026219564288489
0.0185256442801972
0.0116724498397749
0.0605547918467721
0.0121133842392834
0.0424881080926798
0.0205204387230437
0.00814375913570206
0.00130471553033452
0.0703359520998242
0.0447366641718588
0.0404915754655696
0.0107238552032268
0.045917299764896
0.0286473943245609
0.0346657849962478
0.0285758522797054
0.0288278284762332
0.0304045754272061
0.0249657748887382
0.0370013005996965
0.0320265503558785
0.0311879368400411
0.0407135041839296
0.0120047775654427
0.0283976091102976
0.0284749822919047
0.0822706921394392
0.0147000195886254
0.0581447102034967
0.0447529807462143
0.0432204692667128
0.0383775311627608
0.0332572087168677
0.0412240588615105
0.041815059652019
0.0428710521227974
0.0261701247363747
0.0481041746416094
0.0517539480142777
0.024397004926461
0.0797846719849582
0.0278730742248024
0.0537052896894988
-0.0655541236427867
0.211025836784057
0.0565041137617665
0.0607539990546477
0.0490687613491276
0.0012858083570781
0.119615827217501
0.0682171838116932
0.0605258594221886
0.068522453634755
0.0604614983158752
0.0624149044744557
0.0750975225358939
0.0670336049631293
0.0774573213666609
0.0833701327176855
0.0589370913940888
0.051583905910291
0.108747627007319
0.113688711935247
0.112738956426692
0.0804208868385559
0.10056370938118
0.111732445570488
0.0921693775754899
0.0978852846827202
0.0999381136159758
0.0454676703940047
0.174448824974805
0.100532650714341
0.124587774014582
0.0873821243619994
0.146624354897965
0.0850697218335428
0.139805889941642
0.155240729836099
0.126601138987366
0.141328676123693
0.117048672937271
0.149580945327469
0.107650804975465
0.164267676297542
0.154579048774479
0.143617157481047
0.151326321431329
0.146903662816975
0.153097302469107
0.142787897684425
0.160906571259092
0.129264447789784
0.159836749656171
0.100816451778318
0.22220174411016
0.20574961752206
0.148422378311531
0.178177164248177
0.125107328362572
0.188182360660898
0.14579732265693
0.168825384979009
0.194561696700421
0.150033648902257
0.167155310396565
0.15238324773571
0.169073971662241
0.150052040187896
0.169703222375501
0.140751381016136
0.168419680581354
0.162305519021773
0.0933529956423732
0.239173377252586
0.151621842167235
0.174141838929889
0.150735360211268
0.160956631483513
0.146760809742385
0.160646326530419
0.126999836305686
0.184726574875764
0.144083155416403
0.168831393522386
0.137917333651317
0.152057372424927
0.174362410215251
0.148727701907893
0.149773045513927
0.145065622398112
0.146221753875849
0.139279060670178
0.0885457192254333
0.207048516245595
0.137017927959475
0.145764149592379
0.13856811856667
0.139165160631113
0.135616829792061
0.138183717749951
0.133435256805405
0.153654357952141
0.12647636881665
0.148105044196158
0.135718001916938
0.139671675334824
0.132477041413407
0.139753084104746
0.136288851796882
0.135962490434608
0.138354038620874
0.132687500497691
0.137231796594145
0.136482431081282
0.130714936484883
0.134532967808484
0.131197949574313
0.140139189581419
0.131214559933572
0.130744810186686
0.133597251473461
0.133572218911298
0.132186018021223
0.130394989375109
0.131998859028355
0.132115894332309
0.133180825762526
0.131382926445238
0.136626624288431
0.130503450397501
0.132078211626897
0.126851795226212
0.133650381585731
0.121432647654635
0.135279248725549
0.102541681351032
0.141210532436593
0.168337901831639
0.11062997372554
0.141549922630775
0.111587086827872
0.136993921566206
0.0931687632493404
0.134441464715556
0.149887033714782
0.118599870714721
0.121136192864004
0.116859218427525
0.110006334130563
0.141130874942154
0.105714604422744
0.125583126951696
0.0983583266074886
0.0880204481076614
0.175210635896816
0.0536347271886325
0.196167555882868
0.124774072634293
0.11941392330744
0.0737522117401802
0.1591105159372
0.104365656369638
0.116525932238867
0.108256571623547
0.10432298448108
0.133048351720244
0.09839163798333
0.121733012304852
0.0978555498475792
0.0944210814024812
0.133547644011965
0.108837286063416
0.0874239469612375
0.140276503050238
0.0967562262659859
0.100975932798797
0.145967457988981
0.134104927282737
0.102734324449114
0.0979890027162199
0.104493567552971
0.0704635742836369
0.129713178316264
0.117515559798272
0.0958929278553917
0.106119107017183
0.0803206141749672
0.105371513207993
0.0882504597456873
0.115435027154329
0.0592168885959054
0.128724920863274
0.0911692419974241
0.0754443352269306
0.102442371005193
0.0755729179768782
0.138988657431956
0.0969717639202497
0.0851409352476045
0.065676104322295
0.131381746917942
0.0863817331566027
0.0969472630939032
0.0894894454378171
0.0684731846277893
0.109650654309179
0.0849634843845127
0.0683636082577963
0.0962766754632354
0.0652637595602795
0.0954399353755137
0.09348735503339
0.11772245377322
0.101213212771575
0.0736922480901866
0.0791244373839437
0.0770137828327223
0.0828365221789079
0.0754279893072948
0.0550978440046121
0.113802542227262
0.0399078897970312
0.108681229998616
0.0903616816577436
0.0769185472661957
0.0807269631092913
0.0810476135878935
0.0742909514053174
0.0910285327823971
0.0960391513523038
0.101829953290628
0.0598418459402642
0.110048867869681
0.0849666159936651
0.094030241410699
0.08493293002196
0.0953055353233146
0.0819790175713652
0.0994945563656678
0.0998584773077264
0.0983867817928351
0.0937020845455207
0.105725520645144
0.077848571744453
0.141898239680156
0.089406638439503
0.104719691154314
0.133022416788307
0.111481733477987
0.147108247702015
0.111911413413323
0.126622563672949
0.118448345483389
0.125869703143942
0.129279254295268
0.101613551313043
0.156485181838237
0.133786096850093
0.134213821750206
0.137882295951047
0.133792133151755
0.138482358699328
0.129183626404619
0.158982733175428
0.104266730765158
0.19809990300052
0.139158704599521
0.16442294249847
0.144898733742973
0.146298593345029
0.158402188763915
0.144581551912144
0.148311220471284
0.134025925052435
0.161828448687548
0.161386808307373
0.147737222749945
0.160130995291759
0.147791445491606
0.157652915784278
0.154080859245266
0.156811027806294
0.16174212537875
0.160192242721949
0.167376453585163
0.134901400655984
0.190280344334556
0.198177693545366
0.15253945875143
0.180831084379583
0.160860440182321
0.178060388324324
0.164520689637009
0.173407009863101
0.186355801701969
0.177952911782878
0.183415548114223
0.17954893598739
0.178072839236356
0.177867308014387
0.192763750912722
0.196092942570976
0.175717331905677
0.195991963022831
0.126688340946837
0.24577735228338
0.179714784778804
0.201527843871186
0.19238603573844
0.195012241624075
0.191730213064866
0.195583747261931
0.193017025270876
0.200023721063823
0.194164992247483
0.197095688441528
0.197913026523068
0.193344390679987
0.197017908147922
0.192063290591078
0.200586883626834
0.202725769407136
0.188797993027355
0.196770524874956
0.187318139594863
0.1889028227992
0.18402328813451
0.21424785833126
0.191690459874817
0.199001710949955
0.183689394120722
0.207652969119484
0.206472092435758
0.19698992166116
0.188971530251957
0.199942290503938
0.186849450754367
0.198428263644637
0.173533447714074
0.211810935200426
0.200662952623727
0.201670201206392
0.195684678803731
0.199886015487194
0.195773861950306
0.199748865491788
0.200686728808765
0.200270513823463
0.20134434467733
0.199515980528
0.19784744411774
0.19763881928048
0.199672890484846
0.200910759052727
0.207638170243745
0.204673788684132
0.195620494734914
0.201990754129751
0.191884924043731
0.201800182089249
0.192034219951009
0.191277263532313
0.185110876862784
0.189301135833021
0.182554104279694
0.193016091936949
0.195275739917942
0.174901788079075
0.190874844219562
0.170442415493147
0.179965243338125
0.17176530458968
0.175315620732029
0.171090101452954
0.172606156226494
0.169195635926249
0.171234533722259
0.168550445655574
0.167483396225057
0.17012836606416
0.167677147361908
0.165628254187183
0.163078552524873
0.162280271866277
0.161203104690768
0.166746937895327
0.161685861057153
0.158604527684397
0.164724076337635
0.161712847663267
0.173778549772396
0.16374188123764
0.172241294128896
0.162155953009781
0.17175090212968
0.160937639937001
0.163003096366553
0.162864360266155
0.161190799996971
0.163351145152272
0.159424297143587
0.1658044608812
0.160463839627542
0.165676704270743
0.162537854626186
0.161537947015598
0.158060100741207
0.161126744394653
0.160311146722062
0.161197633574873
0.161490167763066
0.165048018335964
0.159089990961624
0.1691329559766
0.158705105956159
0.164167461711746
0.161090673766774
0.157791514629036
0.163252348183109
0.161185533789545
0.164077688892559
0.160038233602409
0.159255371021828
0.161655307436161
0.158869638873634
0.162205390177164
0.159251546597294
0.158256380832655
0.155744530538022
0.158613874313575
0.156189198773285
0.15793280781405
0.15477170665683
0.155833411852784
0.150559347476776
0.152906551885989
0.149453576542993
0.151366635967234
0.144955800884299
0.143993846984459
0.143171686880192
0.145165001153004
0.144822005366041
0.141631231676706
0.142291253119972
0.137494084555161
0.140545420554401
0.141880105555549
0.139457515179397
0.138599956855402
0.138432772069179
0.136978624782286
0.136199700029894
0.137656530602653
0.136509481431002
0.139932785754213
0.139129996702418
0.140962763470207
0.138781145195557
0.140759618118321
0.136809052710646
0.140822891881466
0.13979618051559
0.143708992079897
0.145164077875486
0.141934948004884
0.144267104750198
0.14143370739649
0.145694689611737
0.144826652376637
0.144676290667013
0.146640364295522
0.145273144202224
0.145707583784122
0.143387358770989
0.149375444295085
0.151560433503809
0.151844032167195
0.148005449885289
0.151040130460213
0.147546234147522
0.14764355694908
0.147126054408824
0.14918226444277
0.145021222434211
0.146836187176389
0.146663241249401
0.148121423189384
0.146892126861068
0.146189090942049
0.145033092361899
0.145182882750267
0.144409650552965
0.144810253601166
0.145556211051911
0.144123355689412
0.143302009079859
0.142105166094213
0.141280115033029
0.140225674027377
0.140406615781163
0.137609132987047
0.140954499285848
0.141325907484593
0.139800092209248
0.140003246842729
0.137101293374567
0.13590206687639
0.135892617990825
0.138807588169043
0.137672961631154
0.13555925812525
0.135485817920203
0.138130678514093
0.136767984351716
0.137858601000066
0.134083444550025
0.134348483155279
0.133834521125573
0.133613931245403
0.131834086680545
0.130818936982506
0.130355040692923
0.130952631798055
0.129644371045374
0.127370708853179
0.127529314073044
0.127745687836055
0.124687755045646
0.123807015672871
0.124137734312592
0.121191471592886
0.121454233374665
0.122123962781466
0.119849280669687
0.12045934132783
0.118835207465591
0.122326622219005
0.12091590455938
0.118431676542224
0.119132324069757
0.120588731651089
0.118586636325798
0.120367189170337
0.116546243366374
0.11597643839183
0.116829645244193
0.116360217122219
0.114893013230297
0.114550256878172
0.110606269733198
0.111368026047349
0.108783009951446
0.110075023856905
0.108761542812835
0.108244845171682
0.108655763666518
0.109636754310305
0.11088796085408
0.113873413790381
0.116103986475681
0.121102504571952
0.125411552500284
0.130146834175464
0.134112962328098
0.138593704198057
0.143924632135382
0.151160512073855
0.157829877808218
0.161273333444126
0.170300556564058
0.175876067730435
0.180964656592614
0.187715112635826
0.193223391988757
0.198555250493815
0.205331624032114
0.211303552223935
0.215611596042667
0.220591618213044
0.225193613790863
0.22977354455196
0.234291994798535
0.23783892193239
0.238266879719045
0.244240583773248
0.247856935228233
0.249563945276648
0.251085544255948
0.254306435773359
0.253209828948602
0.257710443585183
0.26015899601288
0.260412479400491
0.2625310527494
0.26346857275316
0.261564728285128
0.262473579516413
0.261833727129077
0.263819696664726
0.266530557945639
0.263760224692363
0.266560458443109
0.269584032164289
0.267979995012172
0.268862275796197
0.273650657258677
0.275087265735305
0.274885726639616
0.276921576997047
0.282008655999991
0.283651658960831
0.284045984536639
0.287590432466694
0.29232394814884
0.29377835218698
0.293201983052409
0.29987719336132
0.302367092114178
0.308615256717272
0.313901651183289
0.315265306605457
0.320486670654167
0.327676365927714
0.330341494817668
0.336409611269928
0.338943585560545
0.344614529724334
0.343962000066757
0.346009208158575
0.345427315423527
0.34823919469684
0.345762350939382
0.345304692674325
0.349062673562491
0.346578168748207
0.345177987541196
0.345873033569885
0.34376528165506
0.345275844932035
0.344025016464238
0.348283617891721
0.346714387697748
0.353329008392806
0.355316083715876
0.361314633097777
0.367213721174965
0.375829802834023
0.385458648211205
0.388129705294316
0.399626110572254
0.402221270499483
0.407338982766199
0.412258191822196
0.419868123049433
0.427321997557794
0.438060092427005
0.435399476284371
0.449889627686423
0.453149159502685
0.459057764071033
0.467961051216612
0.471108756206847
0.480434471770269
0.491289309758783
0.495711719656474
0.506965967227632
0.508143007214553
0.513689872817319
0.525447587773885
0.534596215420683
0.54125381366946
0.546254415895482
0.553609555095244
0.561055566926662
0.565193811737843
0.56812877518356
0.58385395099229
0.578569218098744
0.584736720280786
0.583396725042896
0.582263318756122
0.577478857853565
0.581881716519347
0.584780378177827
0.583015926851287
0.579896707367945
0.575811681427113
0.584031706354383
0.581730802110419
0.569238649629781
0.566642012876704
0.565862177867298
0.568845214262651
0.568590840400867
0.57328128750783
0.567508311383148
0.57269476843307
0.578792183834528
0.581483676220592
0.576567415725385
0.590947776454513
0.592810389374793
0.591848042318641
0.597388519255241
0.599874044274435
0.591680858097829
0.599031145690287
0.598525601487393
0.599485653262104
0.586570655705092
0.593278060601578
0.594281792109322
0.587999472820012
0.590444086739806
0.584143226328044
0.59417668823289
0.589814930389535
0.617990117028082
0.625404439031438
0.603797790124775
0.599576347663312
0.578791660751
0.569625241466832
0.570076093083954
0.569796736143447
0.556782345385705
0.562242359513008
0.555916158467207
0.550131190468506
0.545231599489698
0.540170326589864
0.538402466998221
0.527011502146844
0.521059516141692
0.517348197753116
0.509258239622238
0.505026639319221
0.493506729368306
0.481112558319291
0.470424632497824
0.450329933567425
0.43206032141952
0.422998685574214
0.412923293777218
0.397418643766744
0.382181956610825
0.362784648925575
0.357390522414047
0.341867730932262
0.340341135824256
0.325028619617135
0.321019540444172
0.310130480169439
0.310808874556845
0.300557737975271
0.303561197761625
0.296368159274045
0.299056139522359
0.29284929593233
0.287899410670443
0.288111487432092
0.279314412254637
0.284463349070773
0.274343807416723
0.271653043501637
0.260552509514148
0.261377458416773
0.254231430288099
0.25565845946192
0.245582256057401
0.244080221801925
0.235283772569165
0.227449164223357
0.219563775517325
0.214089865681011
0.208954897007244
0.200099020867904
0.190305861029214
0.184055177173028
0.173472975588985
0.164997131727334
0.160289078432282
0.153972649720677
0.145332748247724
0.134627939894331
0.130067043595556
0.127030638630847
0.121355346127144
0.116783935159171
0.113159149374164
0.109935569255304
0.106423596474825
0.102143864595366
0.100521269200446
0.0992445028813713
0.0978961202158636
0.096596298293508
0.0955739206365888
0.0915126899776465
0.0935620630863945
0.0927261309067407
0.0915004444351382
0.092756782090394
0.0933451074404558
0.0903542603535412
0.0877628829351068
0.0901278953692603
0.0907144840307717
0.0963631805750588
0.0955242045843899
0.0950513676344311
0.094954133959982
0.0953026289627571
0.0947904189238
0.0931697799059706
0.0891930294492166
0.0908389050937766
0.0921155836386145
0.0899679467308976
0.0881336731963187
0.0878650745202139
0.089689915200686
0.0852835468345987
0.0888378150048598
0.0868555316017682
0.0840114344854303
0.0905971097916599
0.0879270211863568
0.0882842519890268
0.0867534841262689
0.0847284077159592
0.0860907690261903
0.0888715452089636
0.0941194381696086
0.0895401547861018
0.0911957780195458
0.0950636142624246
0.0934172796395072
0.0952490249401607
0.0970419661387924
0.0985094910051859
0.0998123323523726
0.0994809327433284
0.100418407844633
0.0999566685705917
0.102417522919235
0.106338762754964
0.101153902428245
0.10114856729071
0.103811066123531
0.103568241028133
0.101953406390456
0.106319388922822
0.10222394284432
0.102496317218829
0.105754560124392
0.111169869106592
0.113208424613432
0.115399969081625
0.11943835114614
0.121263706276729
0.126517610663607
0.124057400100973
0.126480468557828
0.131956267881602
0.14143838051124
0.137509412174046
0.138808794481538
0.145706871868714
0.14348635383208
0.144124221554638
0.142040370512703
0.139767179229363
0.138794155469879
0.128305006463055
0.129104672762187
0.129271347331193
0.124634151692997
0.125657370633608
0.12546246125866
0.12155362026652
0.122604478233661
0.124080891876822
0.11654542654238
0.121758326862128
0.124415162127349
0.12533034160527
0.124941322754199
0.132509636236961
0.11789474684639
0.116548506297201
0.119971792489873
0.125505361366125
0.111084954288127
0.110628457916651
0.113550227948991
0.115974483344602
0.112164933429244
0.110524188865749
0.10552632668433
0.10497498697659
0.1132246361217
0.106816505239965
0.103249959518522
0.098983580838509
0.10413819817781
0.102973912873179
0.0999429898970959
0.103336527609318
0.101268525318383
0.102058250879442
0.101266190623631
0.0991851498413092
0.0964835624562665
0.0971922823145289
0.0984678193801029
0.0925203365927674
0.0881674364687466
0.0961081245146625
0.0968996112220496
0.101931578482234
0.100168095457839
0.0858928662771797
0.0926325446357208
0.0890983890212901
0.0929253406972692
0.0940261094375038
0.0918315474692312
0.084858965573159
0.0851060183160954
0.0865818457825445
0.08662539348555
0.0946788156204136
0.0841017136769943
0.0846739893783164
0.086852292281612
0.0955976666257798
0.0833539970220297
0.0883900228651688
0.0899231776149857
0.0866756809982289
0.0867475885819371
0.086163796073009
0.0948490720146573
0.0899173602871496
0.0883647677381299
0.0865193785719473
0.0884696884347514
0.0911292047189803
0.0895360344472965
0.0903935784015584
0.0915601755920394
0.095403426358176
0.0940891576104463
0.0956005385832771
0.09233155085026
0.0879045995069115
0.0951708439423902
0.0935492004351472
0.090750743773355
0.09775988182123
0.100996561091475
0.10822024621996
0.107650638509151
0.0940477613955485
0.0941027820069985
0.119841703219707
0.115932757758167
0.112951473368162
0.12579234590155
0.122365397591014
0.116830131025093
0.118998514776049
0.132913657473035
0.140114797108921
0.127966210487715
0.141382909782567
0.138724380958719
0.146944879705796
0.147758346556159
0.145434649590903
0.159605952289559
0.168373244119368
0.172071450774527
0.172276488257541
0.166619185493449
0.166585683350387
0.183236910052717
0.164356873089105
0.159913480793874
0.172074637171962
0.167947710403744
0.185633015326343
0.17212603859862
0.158571326198068
0.156557770316834
0.160156635672845
0.159882984019844
0.172044701187669
0.156031131495218
0.172629773884728
0.148073267935053
0.156963298615698
0.141713818985843
0.14921452244674
0.144795228972255
0.15943413320996
0.150855722323473
0.15658120673873
0.14724438192763
0.154212899727352
0.141883176861689
0.160778628271667
0.137802436844106
0.132328550624473
0.127223959943418
0.138261917843681
0.150531816476999
0.146632455186153
0.147619909372005
0.136690594519942
0.148238385935985
0.128424930856547
0.134357282309134
0.156026845582824
0.139535339042154
0.146954131075499
0.133051709897483
0.143172240577525
0.131670490242344
0.134038542538129
0.145015615641191
0.143266657095776
0.158906981715619
0.153635086477241
0.143794377223304
0.126956705434161
0.126478129041724
0.155625442529714
0.145732003548389
0.131196709278182
0.128508990387422
0.158497220447917
0.169475211737945
0.100163101804775
0.154584379596807
0.16852170436651
0.13970696561368
0.166108936540993
0.166896160041418
0.168608160560337
0.146392376683242
0.168220662891278
0.141823403321468
0.140570288021574
0.131875554179922
0.165121730281185
0.168117367176577
0.159154162296179
0.163440863641591
0.169049986293479
0.16370221038374
0.195703591225557
0.170299188216684
0.186436727666264
0.220772905908722
0.219834746554806
0.155793084712729
0.188875170595996
0.195380267962839
0.183726114194378
0.18800039347381
0.212663959960465
0.209077107782217
0.205889366617571
0.200886470624433
0.175023547872217
0.191227473366735
0.188485326687843
0.252893933609759
0.218266002247101
0.209276177323639
0.197952075917171
0.192880614382218
0.194626121693004
0.194530374160934
0.19967078760699
0.14731348696752
0.199519939550342
0.175163171420689
0.179649621163375
0.192843538042837
0.207913659224699
0.17432735443883
0.20922753453087
0.20026125429835
0.220728325560424
0.174281572142928
0.167717714334877
0.122906275284126
0.218669212627589
0.294049015224701
0.246485225654636
0.185785222488586
0.208337075892003
0.194147241838179
0.170829241161927
0.154974272956378
0.200932693705901
0.177574137293759
0.544115137035777
0.193100195473129
0.231868322827433
0.140350053363826
0.276438182669884
0.197840125819248
0.141510428428986
0.186859287038614
0.22267078437199
0.262918123729412
0.192465704588362
0.105178385954192
0.271858312977663
0.202964924232324
0.242037065618218
0.426077977279199
0.248425040442471
0.24821986124659
0.422851781650108
0.153030038995956
