3596
4000.36533379555
650.420452594757
1
2
2
0.0709940010657197
0.0474196773146862
0.0628300308158761
0.0547486420927824
0.0703163851842229
0.058052103368627
0.0773554379800717
0.0566283721205829
0.0638450799122142
0.0550728395655057
0.0678705903844429
0.060768072489598
0.07607727678217
0.0431509961296807
0.0620497512170516
0.0467433744234416
0.0643583103568418
0.0396285868732764
0.0644079016095725
0.0434455324503109
0.0673165822789149
0.0500223262335561
0.0670346084622939
0.0443585958455351
0.0627929927346209
0.0576008690872811
0.0592939077900573
0.0479608154805332
0.0751127999530498
0.0526590272843166
0.0668270015870338
0.0432704340059541
0.063527016389624
0.0456150339571827
0.0723725347011466
0.0521684483444258
0.0654671085272667
0.0459319117056857
0.0611640036705115
0.045439603100629
0.0713706978045675
0.0539841936883114
0.062030933388062
0.0519151173489472
0.0679227858634971
0.052502934709808
0.0641497128368949
0.0576030480152691
0.0614388038552936
0.0469596028974042
0.072436628339127
0.0446208151619104
0.0848677680408216
0.0473052467858744
0.0583979538810009
0.0476898904110313
0.0597229082888577
0.0515049879068955
0.0634771285201869
0.0262541910867438
0.0657949947650499
0.0635597178387625
0.0606128614939537
0.0502066858712981
0.0680978186760256
0.0457622150462698
0.0636070405054563
0.0440191350402675
0.056787134383226
0.0347694041435531
0.0458562610316689
0.0640053299913881
0.0865622837876
0.0567339904982268
0.0632291900861751
0.0504121681117158
0.0631604932854332
0.0478094279965052
0.0554645766578805
0.0456577438506391
0.070231186611054
0.0505757508610677
0.0578230008144873
0.0447069487871073
0.0575207272169128
0.0582395786409638
0.0508236988126575
0.0249568806013123
0.0852569028666704
0.0498705644791505
0.0541165871504095
0.0449091096866485
0.055880485329834
0.0402677610190817
0.05043373302751
0.0392673858391913
0.058810518057332
0.0404765417560548
0.0431317032555478
0.0384479125819828
0.0453094689402095
0.0234727215519108
0.0802551953821197
0.0169143936680773
0.115222599702275
0.0524470229165928
0.0373169930399595
0.0718187591860676
0.0854743808744649
0.0486641362043279
0.0553452129631236
0.0347223962951065
0.0607408507631821
0.0429970994054502
0.0317598009694602
0.0420463742915737
0.0948262088590975
0.0559408380727125
0.0512608496966802
0.0381193357633411
0.0092747915382359
0.0352830497151508
0.0950404033515336
0.0440711006349869
0.061144626959945
0.0425039197634807
0.0261607561463564
0.0584883883960135
0.0951727831024791
0.0451707133507463
0.0426885307158176
0.0293006488170284
0.0402268355208939
0.00374653277822542
0.0821151487867493
0.048340664301605
0.0500246287942175
-0.000460858315261418
0.0520647513044111
0.0844859165270965
0.0845075589011011
0.0416253321329302
0.0285142858009574
0.0124469785785025
0.0854018524396524
0.0515111793349373
0.0340375247401693
0.0437479263061368
0.0649513010747707
0.0271258139847905
0.0517863788581177
0.0118546525861807
0.0781814755420711
0.0354786672200901
-0.00984414094713227
0.0595419713525734
0.123942963325363
0.0511242223094846
0.109962165092938
0.0466509399971404
0.067693682264491
0.0404936638430346
0.0560838718246533
0.0250248903087473
0.0510062989089242
0.0205101672220188
0.0427890088668366
0.0648260528894472
0.0362158080958246
0.0189782437230337
0.0768832930548658
0.0385337116885176
0.0303634230366452
0.103062476071143
0.0640193609342996
0.00254942636596308
0.0670011979572155
0.0523457649374906
0.0330726185741764
0.0265344758648895
0.0807411646506526
0.0457723424237685
0.0413894458380222
0.0284600869299615
0.0381924647265565
0.0489216569949979
0.0627627911834945
0.0315217552861423
0.0580035550933347
-0.00598195162750521
0.0455842482888405
0.0704905161807474
0.0870651783023844
0.0372751148291825
0.0525459875577457
-0.0164173361411688
0.0913060141539348
0.0743788871862595
0.0505073392942
0.0341984239869582
0.0521444082318826
0.0274150399853518
0.0430405137873842
0.0354341650898502
0.0445733465650729
-0.00668448647507295
0.0874568356872354
0.0575142102416894
0.0461703710033744
0.0184324939432966
0.0326522838737383
-0.00963011914045103
0.111696112286836
0.0714600671526243
0.054789399104454
0.0410925103592706
0.0341947660251722
0.0268555313564642
0.0732378818888992
0.0417678930420355
0.0522309121070745
0.0380858363915538
0.0508117577545159
0.0288451395813455
0.0586687626758291
0.0379339588586691
0.0506851862750684
0.0343763675761167
0.041654928273257
0.0322737285550786
0.0656552441530437
0.0456790147788197
0.0664380112853258
0.0342118768046993
0.031594525111741
0.0304721105099265
0.074892351549984
0.0389901862711465
0.0563063772337097
0.0289401925577563
0.0448902534607717
0.0289547490896288
0.0532287901224584
0.0323358207710927
0.0415355783890684
0.00315958710989691
0.0867648555777845
0.0449925336322475
0.0506866359669269
0.00793558431587563
0.0699359754665596
0.0532800888458463
0.0549529127938373
0.0367002958668809
0.0652699289657994
0.0133329438564165
0.0316209212730143
0.0580807571146656
0.0597726163710541
0.017117277606136
0.0636254037077022
0.0396910128655093
0.0473378031021312
0.0162597790628992
0.000618257538018682
0.0928283958580814
0.0643055301344169
-8.08719405785811E-05
0.125955020775938
0.0595835137566583
0.0846765928064138
0.0167807498499658
-0.0194129398167784
0.0815970754378581
0.115210259338563
0.0446947410786787
0.0494417193184896
0.0596901799527878
0.0521981176144423
0.0415074564565143
0.0398540144396808
0.0347788893185111
0.0624422430297878
0.0741741374775931
0.129645607417292
0.00162134921819624
0.0797365212778014
0.0541425598962276
0.0511378394835642
0.0326486745161343
0.054554954149899
0.0278991982273827
0.0682582459643708
0.0578724946466492
0.0696776080007603
0.0421294886807731
0.0544675089564539
0.0801030889706821
0.0678748800764076
0.0303912227932248
0.0599687323326195
0.0514172561694041
0.0541734785121131
0.0536576883833473
0.0423825838316904
0.0577135376113243
0.0411136372220425
0.00149567173772928
0.129926365972969
0.0482889406369646
0.044801637076859
0.0759113587149217
0.0673017649327325
0.0453957823584672
0.0545697530917217
0.0484535160561559
0.0576091881898316
0.0275828481649787
0.0383102841540836
0.0784597702385549
0.068235477508918
0.0482940556004676
0.0624228538537207
0.0468618409361853
0.0576189199012728
0.0454691565434483
0.057864211600327
0.0418623416712922
0.0702547935002067
0.0295737270584707
0.0685878085408969
0.0635996700413232
0.0273700212579667
0.0608805425034939
0.100703346984858
0.0589481524671889
0.0741950526679359
0.0495581470362956
0.0726720268217508
0.0509030632020751
0.0696274253014665
0.0426704550412586
0.0508111217162134
0.0683836890793864
0.0783756057864905
0.0327344730335008
0.0455143598088063
0.0703142829046991
0.14066531596474
0.0808637484523893
0.0786096607973015
0.0157710754600955
0.10760856446176
0.0756659611193344
0.0903420873700102
0.0903301620034018
0.0839341043082358
0.0729207715220426
0.0779868097361218
0.0620218904895265
0.0832159580092861
0.073972417086064
0.0779196712414008
0.0696064922641708
0.0807267786668052
0.0773993741109834
0.0672019027980967
0.0620557520713399
0.131630108083805
0.0877507576887049
0.0981769042279847
0.0840327823551653
0.0692163304603821
0.0851758407907613
0.100400507343477
0.108927561859631
0.118012830073909
0.0889691440839917
0.150400117108459
0.0884901841500407
0.115835598808291
0.0990728944236956
0.106467221576229
0.0969119234504329
0.11450078253158
0.101092961773105
0.112524170903872
0.0984215227285195
0.122872574512032
0.0993068227246809
0.121250699454491
0.10176720805773
0.146150243886378
0.108891044149629
0.132968253519846
0.0956963394021865
0.121586020938046
0.137212967912005
0.194884910382642
0.126490635324154
0.144539345390736
0.132110552396176
0.143248842590367
0.130124544822136
0.140336444304986
0.132167828793809
0.144306393680374
0.146742366506261
0.169654541034701
0.161197333677703
0.180278942772631
0.128577541173842
0.181199366451543
0.15327207141054
0.165935350424386
0.194533897076466
0.192998413488538
0.134410248801453
0.208321941121755
0.178183409358276
0.174208171995344
0.189836348754582
0.181363891131148
0.177518369549832
0.194075469698045
0.184879158233502
0.205630826313867
0.186482684998986
0.210112748972818
0.188754735362899
0.210295703429736
0.189518353530986
0.22327816361226
0.221709962489107
0.212516402146781
0.19886525161564
0.231141452089934
0.205242122790786
0.238042538982114
0.190066686820594
0.239205829773683
0.22959726458379
0.247501664385142
0.249998284939937
0.257916751541906
0.241062768476159
0.254549951316725
0.239128403450562
0.259405744971922
0.24298911879832
0.274913849179307
0.240020145852593
0.273841592203725
0.267930610924101
0.281966392870009
0.265016597443839
0.294060964086419
0.284751379234314
0.307749597192056
0.26586981819614
0.322702741137628
0.252964780755409
0.347165031259771
0.297162809929753
0.317821872933509
0.334829171886435
0.331781229984961
0.314121211698344
0.319233366266314
0.325924854769245
0.323493619260781
0.330809985629033
0.353426777487212
0.325335236815563
0.359419248274838
0.332484114571868
0.37146115971453
0.362353979693794
0.368548117621241
0.331669372779997
0.410342803259738
0.378868059507744
0.396294716964656
0.369713486914924
0.396624004790111
0.371733106302811
0.399184348407121
0.40170765463112
0.428711371890668
0.384740856456182
0.423604601873163
0.392703949528346
0.456768244105039
0.40565006814776
0.447796694503852
0.410681826119352
0.465523756152823
0.432187404923577
0.454770735811649
0.440030293883278
0.496519520240517
0.455544045991048
0.471476683581915
0.462157586515531
0.524068058527755
0.466442186967696
0.50743041639176
0.487206047983782
0.512433442304174
0.47832273511107
0.494323024643163
0.473614327447518
0.533377397875741
0.511807505454673
0.523273000461617
0.503799936946406
0.543958289575037
0.516413665490076
0.572332047219209
0.540412736694945
0.570293697732339
0.51540504872375
0.600322156595167
0.581007451866751
0.584458350705618
0.531468389325904
0.641717526476055
0.556543988836734
0.597557795804339
0.609177788332574
0.597842523543259
0.575375369459292
0.643802990073459
0.628685787126813
0.643366611203965
0.634132591415707
0.648716216741008
0.627811101207298
0.644828175918939
0.607753809684204
0.669190658058059
0.61216174711205
0.675057282408721
0.650750304291574
0.737935481919298
0.684006527997544
0.746404037269311
0.662516042386527
0.697857724820183
0.65556231201956
0.750102681581557
0.693106353518113
0.744736907037226
0.692274663313292
0.732888790091451
0.716414678032977
0.836387980893894
0.736940469112135
0.801115497937008
0.757317098264485
0.790083540060794
0.694220465100779
0.767497988957232
0.775463351115253
0.80060210294836
0.710522625317419
0.73989513164701
0.741880858294891
0.855014443939911
0.794301306543662
0.864502639898498
0.792090875569238
0.862257077607488
0.803597723169492
0.918869124860402
0.816693000736999
0.808228126964008
0.796336839115189
0.871239200821636
0.865067883149232
0.929100475179531
0.844041619665258
0.886281951885719
0.828533530590091
0.901979212945996
0.856547601375749
0.946818723535462
0.932793442897306
0.927521883408835
0.879871307704064
0.969518415713271
0.870613445200528
0.991667929894399
0.907724481882955
0.961693271501697
0.929921806586632
0.95790013399361
0.933381137035175
1.00571607056413
0.954815255780198
0.899072176132712
0.891582778049377
0.936141278662774
0.869558965598882
0.967453618357565
0.957295524148996
1.07303608011046
0.948187072790021
1.00004440713854
0.949551375486165
1.04474656454365
1.11514079403031
1.04193226203871
0.937408420640255
1.07668148991995
0.956182412379609
1.10286463410439
0.982249454287756
1.0071359876176
1.11441857907109
1.16872666909833
1.02666293296785
1.07317270915468
1.03927202236548
1.05849610424121
1.02704825772779
1.11418813736275
1.02729491837462
1.05676847359517
1.03894811815039
1.26548208865275
1.07338826475613
1.10281380946265
1.08686054294982
1.06814964750457
1.0708531393532
1.22494547121641
1.08611425020615
1.12441268831982
1.08793378393304
1.14125764652071
1.05773032256956
1.17513202299962
1.18461687590747
1.24095387661882
1.18641834471005
1.14347731698419
1.09822336458414
1.18297067348785
1.12391636286883
1.17461229285845
1.13096188806736
1.25654427595244
1.17360809851583
1.21140784233215
1.09206198012806
1.18475901991316
1.21809293551397
1.25077835435765
1.22686635782631
1.20636185172789
1.16917108129382
1.37577794495543
1.22960366242034
1.14706082094794
1.25974825980444
1.21979742983478
1.07345845701462
1.30992707942018
1.26132454974253
1.27518063929466
1.20029529712032
1.2204649898327
1.16912088787949
1.23554819065646
1.16005372890739
1.2175213450083
1.26231125070249
1.2159396425744
1.1660428526583
1.32169547735314
1.31839778971003
1.30090710594629
1.24006103899074
1.28404920832156
1.33352876439664
1.31528787434507
1.30123109687315
1.32590338956729
1.2260246146753
1.32920674678143
1.25832489445576
1.31810770740792
1.29886834927832
1.36443768335167
1.17240995479223
1.24661883098568
1.29755971527535
1.36754332420498
1.29471091192164
1.28787724551424
1.27311015816695
1.35679491369283
1.20259934242223
1.26955890333686
1.25204992236487
1.30343927403199
1.27694653343568
1.21675451983701
1.25473929719428
1.34471917272288
1.36192548262112
1.36906108814888
1.26943848462628
1.37404732905415
1.31251740512997
1.32364910674442
1.26360035945207
1.2784921908088
1.27132841208645
1.36648497097413
1.27741817481611
1.25522352683117
1.31203214932255
1.2961562400928
1.22731617611286
1.30664845488083
1.2008992357835
1.27170372208287
1.25444970524768
1.31303252637042
1.27909078182179
1.31647210106286
1.32583982428232
1.26231016145356
1.28908946429931
1.29644074390752
1.23725427096727
1.33802013499403
1.28503670358772
1.34243857948484
1.33035260176993
1.46153875323158
1.39637245020916
1.30294497326862
1.34264935031545
1.38985937153591
1.27809382453697
1.2482417845177
1.29100057252811
1.32523887496131
1.30420316034317
1.30632743320763
1.29308614323154
1.36718801568146
1.30119991141816
1.26892092855653
1.35881340478919
1.29519660105261
1.25904206008741
1.40336643470675
1.38574132080629
1.28852023605515
1.28569917150383
1.39736116976046
1.27434186065763
1.27101331905397
1.29751767346779
1.32210114935518
1.31643896012779
1.34931225913055
1.30794520737292
1.18073301311355
1.21103473771345
1.33740082810217
1.36402210212193
1.26951517326716
1.23186818011282
1.3089836128595
1.36302071289223
1.32210016335826
1.32150074729298
1.34995174063852
1.30137912492893
1.27366061111342
1.29312829352992
1.27102479339712
1.26751280791399
1.23582673521718
1.23798246598473
1.27204385952434
1.25558793308491
1.26337907381954
1.29101583928144
1.29800245253648
1.32095212951462
1.22106875429797
1.2017500606046
1.2885919854887
1.23696859629483
1.25243675725626
1.28065602002651
1.2801251890289
1.28774061955721
1.2473150483944
1.24529891312227
1.31975455443943
1.23467923390768
1.21675929225105
1.25980876642131
1.24516379421581
1.23737954307024
1.23773959967278
1.28207557924593
1.24129276033492
1.22227126767851
1.19915061961658
1.21916987705032
1.2932994032509
1.26069757513366
1.22159056934574
1.25144792431491
1.14691537825975
1.20295554588627
1.23947520950429
1.21270076901681
1.19031130147075
1.14293529768658
1.14534098046083
1.179354947624
1.08560123163734
1.13199083945991
1.2266209583121
1.13854970518519
1.12300585666801
1.21054417242108
1.14865919597123
1.18171170114813
1.22771351837846
1.15860421309209
1.12243242489343
1.17130961741609
1.14268610608719
1.12261695439143
1.15812529061049
1.13375898853433
1.07290937571406
1.11988962241139
1.12262393855332
1.11393650997284
1.0646686946815
1.17615593924706
1.1420672476446
1.0832350303311
1.10162727068595
1.13385819904823
1.08892868627617
1.09962199776515
1.13301165520348
1.10282310740045
1.06112302946147
1.05174542482625
1.07220837787319
1.09561831197057
1.0352345654765
1.09228059927816
1.03341915549866
1.05297958600876
0.985604760365493
1.00837814638155
1.03243289448499
1.07051794511988
1.03450346309776
1.07692744553266
1.07780392595055
1.04345665108877
0.99548256543163
0.974380029148793
0.965459992132785
0.998478054283327
0.968165793881919
0.979007658824573
1.00346627680055
1.00232817830861
0.97541760747125
0.956710778511701
0.931536301340875
1.02464678584263
1.02178259698116
0.9511476843706
0.962819823210202
0.989711589286538
0.928710613229252
0.939849028649234
0.934740524047255
0.941912360662431
0.923424799245953
0.928139162789775
0.871433016127525
0.912539085596358
0.895762683519471
0.888442032663835
0.900998795730695
0.914952168758897
0.884889748850896
0.892431337254266
0.905553354399508
0.895892263971513
0.876777251937383
0.912122170291775
0.877932856812664
0.889007498996497
0.849146920279616
0.827772589984434
0.840944190316394
0.858040143464402
0.841356977987731
0.825607209761308
0.827285670630924
0.839610167888711
0.81092770736255
0.838285583975461
0.808263421279534
0.800855348895735
0.794625668644777
0.821895472098723
0.809161754353863
0.795165710112914
0.794824805597698
0.795320270483451
0.78511746874963
0.796631505494848
0.808302637434161
0.780775519776974
0.751820209682292
0.78153592693853
0.747054267887794
0.753368630619098
0.76368695178268
0.767188510984313
0.739992971271642
0.765805723227953
0.745282709515128
0.73357739883996
0.710536924083115
0.737977539623812
0.722380856213442
0.729846227361393
0.707747005502378
0.720410330637221
0.70987499567813
0.707958017662534
0.695673082268402
0.720966937940283
0.711947336924499
0.707039492286419
0.686181733965798
0.690437024958036
0.679450008492324
0.690031578986176
0.671897118608677
0.679244634501286
0.685402232205876
0.683845476571427
0.661832293360298
0.677531429910367
0.656305805169411
0.665830102216901
0.647876499619546
0.646599483347388
0.622427154687609
0.648845185828882
0.667986667138993
0.655960491428707
0.626037746344195
0.628328441110899
0.618400470068334
0.626000308682243
0.612559057466229
0.631827013405689
0.607880821226705
0.629473387759102
0.609197735158496
0.623232576414432
0.605274769310391
0.6146374236038
0.596667569354336
0.606372560157855
0.586303483501279
0.600172615163302
0.59105808947868
0.59677059190871
0.5884452779981
0.597606363971506
0.5760564881302
0.58911604921599
0.567577611664966
0.568431627547554
0.55822464750205
0.570420545286953
0.554115734909391
0.559931083918906
0.551750986932383
0.556113753529571
0.544617058705345
0.556236752606011
0.535755967460624
0.554223200390493
0.539735383704913
0.528455247872738
0.516740791564246
0.544405934984156
0.538418424667703
0.528123883169432
0.515428865755904
0.522556753714364
0.509276623685848
0.522281921407898
0.51090608564107
0.516558568384517
0.510638410555759
0.517559180172559
0.509367645079535
0.513429525463406
0.50858017533028
0.504815478950341
0.488082298225206
0.500468866780245
0.492133694871444
0.499401489225176
0.478627104576389
0.492076424353106
0.477164748260177
0.490623639766679
0.472130865517835
0.482322207913968
0.461801960691759
0.474028186728362
0.460727034792474
0.476247901428259
0.463892038291001
0.482857547537898
0.457538639304434
0.46523854379598
0.44893562445234
0.458871055730167
0.44600972779283
0.460968228838395
0.441267729840948
0.459066452758436
0.444004246979889
0.444599506281359
0.438891244347094
0.441467038376345
0.426066507486803
0.452346912574248
0.425947684961526
0.441791972576401
0.432312375969017
0.443785097193364
0.422285550997557
0.443653059822639
0.42154194838108
0.428863590265219
0.428263437824132
0.438003397115471
0.421964373506717
0.429555111374754
0.414140688032606
0.431907391393714
0.41597110114189
0.419260856546198
0.414964401243085
0.428059926826421
0.417039234098701
0.412194312918436
0.414297613427322
0.419782832018643
0.404828959048325
0.421645600616478
0.414703954583153
0.411336894198392
0.403659481307354
0.420576546493923
0.414785760012561
0.427141670533905
0.413390580341803
0.42478424488242
0.412125897729563
0.427043612301541
0.42086621856093
0.422005892230687
0.421004167053188
0.448285801476641
0.423832234711005
0.433956293721261
0.430688673071026
0.443629719036443
0.422634101332356
0.440353399848185
0.43791324599226
0.448450507321042
0.442103760848685
0.459802156716716
0.449739343612085
0.450098441084823
0.442649702362787
0.459986661087616
0.444567412812233
0.477270459152526
0.454226858671014
0.473804751746194
0.457183218167609
0.468343198197093
0.460477831419468
0.474330649758655
0.461894838513322
0.491169555776554
0.461854378874056
0.488889380411441
0.474442288873179
0.493315312984467
0.489126174963795
0.498085786620013
0.496072215886699
0.506495389861951
0.495848460496024
0.517835771032977
0.499266127173759
0.513596822019364
0.509240392822807
0.539506610448982
0.51330470021297
0.532866317095337
0.525817366038774
0.545946501886781
0.517710335195736
0.557549984182441
0.533321762476704
0.571238861066183
0.548607305012134
0.570404081850543
0.555955494215231
0.580925828199221
0.577161972644194
0.57786115787386
0.579954156456106
0.582091830690475
0.565029494803865
0.585690969543466
0.568813509960251
0.598301940272201
0.573703485024755
0.578950447820824
0.575238247179312
0.607104916800657
0.579748562474325
0.603704188709921
0.587989072445459
0.577228790814207
0.561716489113158
0.589125403969805
0.574235202967276
0.575389113964872
0.565402091722873
0.599265304316884
0.57116538161042
0.589008374786734
0.550662522564799
0.580087198645792
0.574231415699976
0.58476838302148
0.564055639658858
0.580858875967637
0.573132083217437
0.588726572654665
0.583851763358082
0.60560808153033
0.584959903755551
0.580061470931672
0.570866183841268
0.596009723750222
0.570354286549391
0.60888691164442
0.570890629199777
0.595136078682195
0.58439713833015
0.595278791272495
0.574251480818082
0.597178643038771
0.567391655515691
0.588044666319918
0.581096790002683
0.593424545189969
0.581828657157999
0.59838274007554
0.593100280662172
0.586643157482626
0.570744855447014
0.593510307651668
0.568017873503831
0.580901603829261
0.575205726734067
0.594522320492716
0.590168543628812
0.577714260102827
0.572983834582192
0.578006581653673
0.56922728122274
0.591103783349782
0.55104581625465
0.564382043643986
0.565357553947258
0.564119626395245
0.549425120537272
0.548119585412243
0.528840668931941
0.551515241210922
0.536503988105895
0.556458090725032
0.533154391079753
0.536878338405163
0.502620744126544
0.541994615784838
0.512022094686731
0.51498269440302
0.51014438867266
0.524134032279633
0.49610482603757
0.514668437857799
0.494481142732352
0.500865780237992
0.485678365130718
0.490188546926231
0.47411230995058
0.481546397054363
0.472465845237011
0.470678274027966
0.459935723074858
0.478474118977547
0.459630649089802
0.462314733012873
0.455549430435443
0.456257094389397
0.443659696671949
0.456668185911188
0.432000435295701
0.452261838011469
0.435738425768361
0.442980418447953
0.428096168137467
0.43770237370964
0.417544084232743
0.4352792875892
0.418698332764664
0.425966672998902
0.419977608150357
0.42924414433887
0.414983530471423
0.420648192687607
0.409151103724179
0.415584370669634
0.397662788950948
0.415241972760624
0.401188643325605
0.416668595598184
0.402667178282093
0.404581948681122
0.39716324379422
0.398342618835195
0.389598847977366
0.39878137725209
0.390821548363247
0.400803221213601
0.37516188766549
0.395734353908725
0.380977953678212
0.381521265363526
0.380486373959068
0.387022111075013
0.372747841105902
0.384855345408521
0.374861099670505
0.375371895657451
0.368508471910423
0.375800611422602
0.361332888089624
0.379931163256904
0.365828040080636
0.37374895598916
0.353351162247134
0.363184410192908
0.364370901676691
0.369679917457973
0.360794141285377
0.367162891085022
0.345116794238032
0.363626963819923
0.353076239926051
0.358277272912529
0.351204192033703
0.36681276918495
0.351236406076062
0.357609083973681
0.34777274179133
0.362788693468629
0.348881828050447
0.352381116170268
0.345859844988897
0.34879344674509
0.347506592071473
0.348710248333387
0.33713943894193
0.347087354923195
0.330691329860093
0.35371791668462
0.340677534253912
0.341405388339587
0.335618680989232
0.342962147025849
0.327183395401721
0.331425743151545
0.325989502553405
0.334436154008742
0.320386985873685
0.336250664418781
0.324095290032395
0.338654660494282
0.32297573857177
0.328668757122791
0.328927507580139
0.33185916254927
0.327027895883406
0.334399076162461
0.322160166616033
0.332002407221657
0.321999398042685
0.32541454676579
0.320433890711553
0.328559583130105
0.311830365057639
0.32706769977426
0.318337257398814
0.318930012150626
0.314890380619561
0.333027471830792
0.313249800534268
0.323509799741658
0.317284143030831
0.320664746465011
0.313882207642074
0.316028364440063
0.305706869571105
0.330569748385236
0.306232749793958
0.316376156402109
0.310760519465587
0.311890801392801
0.307705139540297
0.322788938915922
0.312171688394106
0.31709240779189
0.307220916593312
0.317379059591276
0.304273307093056
0.319737360969991
0.311432183251027
0.31494774908659
0.301168675207694
0.312491817341181
0.308130369789634
0.31378168285885
0.304018279488219
0.313658005334123
0.298886738664449
0.313873723798397
0.299458205877675
0.308187893319742
0.301700759869132
0.308569313901902
0.299537170071268
0.306636733520993
0.303071515068435
0.305559932945522
0.294336502740062
0.303447813832171
0.297282705798557
0.307974745404902
0.29202022910076
0.300689991038572
0.299850460635524
0.302574669421589
0.28707135687767
0.302035994408603
0.286475217309026
0.305158626997227
0.292439284642657
0.291907464162854
0.286202992309703
0.295397684404256
0.293682162692573
0.290038361217723
0.291071658904654
0.292546742891873
0.286377020770927
0.293876828348573
0.283587265703596
0.298575037960778
0.278682760334849
0.293503454852064
0.277235922690085
0.291542284571491
0.284508323525495
0.289031855585966
0.276050654819709
0.285249755789257
0.272618244649456
0.283846004149612
0.27446296866079
0.286111425055837
0.277717380264397
0.290581697006368
0.274417129727425
0.285085028795293
0.27026547183828
0.278330410381136
0.268814712135764
0.282114384675827
0.266243582416313
0.27826026655385
0.270412409984147
0.273062751322555
0.26664632448857
0.274224540424895
0.264994528502878
0.272044675537974
0.259844085162278
0.274257293928026
0.266213686590102
0.262873419641791
0.258599951696194
0.264563438885351
0.256209386874066
0.264764069573909
0.256438414700239
0.266171071770477
0.256241655515014
0.258355500489337
0.251226788195248
0.258173907588627
0.253712747852357
0.255541254360139
0.252088297408983
0.257794087789798
0.246279378261999
0.255372244493325
0.244313444148435
0.249942311262813
0.239917968676422
0.248037636311758
0.241655475483825
0.241460948940858
0.238653618210073
0.253859981078556
0.235696679909493
0.251216444991493
0.238321344695361
0.242382410779938
0.235734229855108
0.239890931397624
0.233998704832349
0.244520769432601
0.23491001804446
0.242659562930967
0.228047637565905
0.240538263987557
0.230478294475747
0.243136220982868
0.231738784706776
0.228235991061232
0.224783836316253
0.231289870030177
0.222324135971674
0.234503342327032
0.222701154172556
0.227442098049793
0.224136119732555
0.230149581401248
0.222969313777101
0.22776639330544
0.222504874403794
0.227946883104933
0.220622405923496
0.227190005190626
0.217010347484994
0.225390929412181
0.216051306151789
0.218219052140356
0.21167936326792
0.218063205062973
0.215286756089715
0.220147191452487
0.212173569823816
0.220258178033059
0.211826039625209
0.213848282908019
0.210448334525244
0.217021998090779
0.204618070074532
0.218383146067542
0.205884538448668
0.211482297182697
0.206220675060676
0.213139557713065
0.201900710770388
0.209464115115746
0.201849272430562
0.208495540011958
0.200310430474982
0.206074884421146
0.204539655483794
0.206569982133654
0.198469056440569
0.206860419969468
0.198874420640934
0.207552607443532
0.196554635628887
0.201373006415395
0.200152791132908
0.205101731188218
0.197892316028938
0.199799094670155
0.197735581796898
0.19686126595217
0.199028045085304
0.202933475849167
0.193367782613335
0.198622936790371
0.196197017588643
0.204777468707171
0.196172144385364
0.202288235852757
0.196496924806422
0.200741544393211
0.190223618870257
0.198405863123257
0.187836055074833
0.195494005679317
0.191347366834102
0.192327812574071
0.190063398164959
0.191864975706043
0.191027805212588
0.192161490369518
0.191433195533914
0.196108857682565
0.187609330498997
0.192430383351392
0.185522041203575
0.191453961816743
0.186905574950427
0.194601735338123
0.188705532426659
0.191478882143354
0.183750685375786
0.188990405015896
0.18380552624894
0.188369342201888
0.181914943716586
0.18782736521836
0.183199259504777
0.18782122078488
0.180248167194497
0.189937870535815
0.183299247956345
0.185860838522632
0.180551375672344
0.180162812280457
0.183036848286554
0.180719820783745
0.17396287493845
0.184944969959719
0.17651518798799
0.179208852594629
0.1781837241246
0.176124896016905
0.174959588283456
0.178356104971123
0.173069305493524
0.177507041374977
0.17795896787756
0.175192210404424
0.171525836799862
0.182428605458557
0.172064142875899
0.174955448106875
0.17538857712611
0.171949490086495
0.174281208220222
0.18078066684511
0.168668914288949
0.171144106120311
0.17295301055606
0.175115219234722
0.16880799596846
0.179058938222984
0.170785212051821
0.171124797792848
0.166519912147313
0.173007018367066
0.166973888500538
0.168861525798763
0.166338665111959
0.170776787932323
0.163018642016339
0.169041394180542
0.167545734763795
0.167074768625608
0.169013503633619
0.168161391152206
0.163879955837558
0.168284003086851
0.164240050622022
0.162267008195813
0.161909300149821
0.165829076079979
0.161218725329303
0.165762183870278
0.159536579017799
0.159768479151512
0.156328717049899
0.16550906379802
0.160757125336676
0.160448000247589
0.158450028874943
0.157467735698942
0.153554607999935
0.158658724526066
0.154077914665363
0.158057936762051
0.153885566440266
0.159209644222796
0.152014185807824
0.151356190358051
0.150395895738541
0.15017712980875
0.15047067459748
0.150108915501721
0.147851036399282
0.147736352573148
0.150672726418163
0.150294998726426
0.144228310771228
0.151438821856266
0.142313779083013
0.147277582950453
0.147736371628837
0.148341814603601
0.142395747571526
0.148698991168951
0.148656552740629
0.145977055437732
0.140264279686093
0.146665318794298
0.142137611912509
0.142817753409732
0.139241875798559
0.139431837786259
0.14013738467543
0.140770795768654
0.137352953508713
0.137336568620118
0.136604083416556
0.137218854039611
0.135062945908603
0.136415788410036
0.13575830185709
0.138277807227356
0.134754632228846
0.134816972042432
0.133610814157618
0.134357085969924
0.1267374286311
0.131596997506684
0.131289678865847
0.136914351985694
0.130906611024974
0.130312307242356
0.127956602574691
0.130385672048874
0.128164575118667
0.132010426856534
0.126169605727782
0.126708538851727
0.125030427833681
0.125947255828841
0.123694797318299
0.125723474433996
0.12193340409652
0.121698377121525
0.123442441351641
0.123033813302382
0.121857622625101
0.121496158857107
0.119306104166682
0.120251081669381
0.119167682481199
0.121504393201667
0.117702798430698
0.118326211540459
0.117546091534369
0.118801003518774
0.118705998500013
0.117976676519318
0.118718169503491
0.116264245573064
0.113215952476203
0.115346633160611
0.111601220922612
0.116727336808481
0.114917027679949
0.111696565727047
0.116168636419202
0.119430407961701
0.111984435099996
0.110036345662703
0.113305904938396
0.113999199215807
0.11157121967332
0.113512019896964
0.113052829570503
0.110125700197937
0.109818582187156
0.110789427915366
0.110607566893041
0.113509532273452
0.109833220097124
0.107954673903004
0.113675528055487
0.11343063917846
0.107814820165149
0.105565250259603
0.106962314235696
0.109555444960916
0.104739841061756
0.103985774490943
0.10313800899059
0.106331541978485
0.106855777737247
0.106721443040275
0.109443601829296
0.109735695885162
0.107248785226902
0.0957072975079699
0.101159298705748
0.107411270453103
0.105848894507397
0.103010361846007
0.106196078066869
0.11056694496338
0.109175901131454
0.101057093934196
0.0978920332937262
0.10815843754652
0.106238972872438
0.104396752826896
0.107002108272916
0.0941707594119387
0.108334117452169
0.104137234660998
0.105414825353341
0.103597454281161
0.100947543963109
0.0906774792210916
0.103603940327756
0.0973933840574333
0.101615524767593
0.097618638667004
0.107583786247256
0.0909624186291098
0.111738344466358
0.0945595371094586
0.111913601416178
0.0896464696649423
0.11133686775438
0.0834701804171483
0.115223894934893
0.0937446984130642
0.118406318718643
0.0814554201779737
0.112651400210973
0.0763128881704469
0.113385962963626
0.0766307685278292
0.123555812530239
0.0798989221066134
0.112891794537347
0.0667502889814717
0.125608186046745
0.0842001540405055
0.113263424495476
0.0695823022853814
0.12083043286219
0.0852277574511263
0.100931857162315
0.0874058812924723
0.10039291508212
0.0982027089173005
0.0878970032950217
0.110271846303362
0.0811739938100308
0.107072548391019
0.0786873313975819
0.108512340473943
0.0805924892492403
0.103227586526345
0.0846332205383112
0.0986903771275201
0.0888963564692036
0.0948831503818323
0.0927799567707982
0.0901827632214546
0.0879571416607969
0.0902554344045373
0.0879771266373116
0.0926225190327793
0.0860618734749087
0.0925991986847702
0.0853944699541368
0.0927448713571888
0.0862834970384992
0.0923206646213961
0.0853007323454199
0.0896116416435057
0.0879424323517663
0.0906731206437081
0.0858767194104438
0.0859503962246767
0.0868534556516319
0.0918852790227085
0.0871323334118542
0.0915295832073189
0.0854048388410413
0.0904083847141539
0.0861954218280183
0.0942672162264319
0.0877757009517384
0.0904400287027878
0.0839867642880298
0.0859381986075005
0.087771437158205
0.0897760964044436
0.0862919087170558
0.0879328434841887
0.0848346707998724
0.0879040412683137
0.0826481102169601
0.0885763446016601
0.0873019915715893
0.0918848505766293
0.0837347674270705
0.0864091047146081
0.0846216947266882
0.0920283157747
0.085336163640112
0.0878320268815229
0.0855560340655093
0.0905887111966253
0.0875107809377932
0.0849994424097405
0.0861728609719462
0.0864994724764834
0.0855469255912587
0.0892556544163004
0.0824700030532587
0.08579543347457
0.0833536678465658
0.0873947606652383
0.0847813172800578
0.086775472839103
0.0862108879282788
0.0874462205313547
0.0806589368010872
0.0855115619107666
0.0862582414898586
0.0871505372204293
0.0811339235039232
0.0860308267351108
0.087320839870707
0.0868448386085288
0.082394162116301
0.0872726050863361
0.0843227437013325
0.0851797528726896
0.0805099407757087
0.0832258745225676
0.0839058526795045
0.0886096584859358
0.0839715348108133
0.0863670523527346
0.085401981653178
0.0879138967129073
0.0803616018947066
0.0851419492818625
0.0847658326126965
0.0836617070640231
0.084192869459822
0.0874612756474039
0.0832505068775996
0.0859272645657585
0.0825970403530532
0.0858652841655762
0.0885938943725627
0.0897707599843439
0.0840051926317616
0.0849463426333359
0.0839637562948082
0.0845131704935775
0.0840453479133207
0.0860274794737923
0.0839641313627723
0.0886822898730836
0.0848300027908458
0.0871580994757695
0.0859295095492613
0.0899900368830455
0.0858880336745857
0.0856526783517914
0.0835131928306301
0.0874150594738998
0.0872244118914008
0.0865367406239485
0.0873822054674995
0.0892411329292792
0.0862124790142627
0.0893470818089317
0.0848647085338309
0.0840569818589019
0.0864374085686914
0.0867894864260367
0.0858308621934132
0.0869432634232488
0.0854827400233829
0.0880704509310354
0.0871002858786448
0.0843500929740623
0.0846077910867704
0.0868531680034554
0.0868911823271164
0.0895887166790497
0.0824444235858426
0.0879124291812383
0.0867557343069431
0.086724417151702
0.0875587292468969
0.0882134010855245
0.0872593010743069
0.0892825236467
0.0897862029928204
0.0875180108595122
0.088266618667772
0.0927843660700335
0.0888702819906165
0.0880174764319503
0.0907666081891663
0.0877497809673341
0.0871085950764341
0.0878903801570141
0.0866420910847605
0.0883427867212715
0.0900896748679597
0.090668249648569
0.0888878725658516
0.0894643253824422
0.0872188999966577
0.0903415254862773
0.0915951629557385
0.0882068826801972
0.0888015875098248
0.0924745299013275
0.0909741052642801
0.0917186218646141
0.0915387397241364
0.0922007723926234
0.0884751079901009
0.0906059842546768
0.0890882671484932
0.0891985897231478
0.0899537235209077
0.091091467174262
0.0896019704044061
0.0901535244609156
0.0875405152514207
0.0869793415940433
0.0886362449555948
0.0865286686109155
0.0864646619689454
0.0882939077138675
0.0874131619187815
0.090900541765135
0.0893627156973604
0.088182754344256
0.0860971223727257
0.0885452541400345
0.0863688208064348
0.0843171824242
0.0857267107760502
0.0854168387401735
0.0831475547062483
0.0867054249579344
0.0864892552349967
0.0859077446497605
0.0855308638760604
0.0837504396167889
0.0813975825665929
0.0847570299658474
0.0829758657255412
0.0840539212498884
0.0855368574329458
0.0845085952247926
0.0857657515795844
0.0860621205857174
0.0839718984260396
0.0825751259424099
0.0827205487244359
0.0853037277353626
0.0868496383574144
0.0792460609667058
0.0803664475766747
0.0815397670092421
0.0828413921460843
0.0860101721185402
0.0832690427013899
0.0832707298125499
0.0826785353349749
0.0822195649070363
0.080804191247884
0.0804489684661431
0.0824222951557296
0.084207939252946
0.083408396763784
0.0801561963585905
0.0839438947106473
0.0834516358884291
0.0817118718433997
0.0834624320364406
0.0778679500007669
0.0818053021629673
0.0797862564880104
0.0807670339003358
0.0803329133918888
0.0816208202744357
0.0815836272540177
0.0807857234320263
0.0817719389747088
0.0790353481564346
0.0811123198853443
0.0796906295799198
0.0804966104962224
0.0821633977560504
0.0832496532316236
0.0831178048945708
0.0789261955184163
0.0816050550397544
0.0804959619172625
0.0796470388809327
0.0851953525714268
0.0812065536109083
0.08100733224435
0.0800155652988607
0.0800460164892914
0.0819850079587317
0.0803837263529152
0.0792024995801509
0.0795538215263067
0.0794533864953202
0.08459718867786
0.0820949544240862
0.0808145666662434
0.0811622581842843
0.0818411620622891
0.0792393576395337
0.0802108027511963
0.081031868739691
0.077147784537869
0.0773209619548279
0.0820503731332059
0.079125042785738
0.079746624737566
0.0795478770362706
0.0818568867185963
0.0800368942874511
0.0812314430603283
0.0803400650380055
0.0771273573242462
0.076687270699256
0.0803696654939175
0.0798579567920929
0.079722141050245
0.0789828728271889
0.0782796598175192
0.0805805384913912
0.0816664021063267
0.0789201465003825
0.0805072283452959
0.081109692327544
0.0781505953614302
0.0764841838080406
0.0767507694876835
0.0776561681185581
0.0797858236700597
0.0740157451244995
0.0740973434278876
0.0762310203628949
0.0769126564055572
0.0757437856879632
0.0754127384692069
0.0734668515339682
0.0755547750562735
0.0756619146065736
0.0737257029873296
0.0745016643312312
0.0723214654538222
0.0754574368850666
0.0735687038511778
0.0745040286800616
0.0742991308222819
0.0704666965988285
0.0777670673139338
0.0731398526897243
0.0756581730930335
0.0709072795755174
0.0730626072606324
0.0696904704160864
0.0713803111737073
0.0705258159008782
0.0727283809655865
0.0683784905074244
0.0695530645000023
0.0713847118898086
0.0712123047314101
0.0708063176682967
0.0684598771683588
0.0691551890429993
0.0706662160525988
0.0684299891717937
0.0695528158708871
0.0688423090170058
0.0699506214590176
0.065661116337448
0.0716796474139984
0.0652646033812406
0.0685494671794673
0.0670200601028543
0.0709794784527912
0.0674265677855673
0.070878193574805
0.0654513182231355
0.0684731422488368
0.0695354365133453
0.0661704674590064
0.0657319668302336
0.0643218933751633
0.067598937086472
0.0667404328609685
0.0652351098108017
0.0654525565867677
0.0642255682708707
0.0635851852961622
0.0669769287068793
0.06564982990024
0.06519736669179
0.0662558157637909
0.0646198948223562
0.0649424739138522
0.0632450991008445
0.0658005538195196
0.0634400553319353
0.0668568238552555
0.0624313045787041
0.0626507412024331
0.0705638746780249
0.0673207732745426
0.0650043569168664
0.0646866419420108
0.0658573507055596
0.0623331846448133
0.0644880832161002
0.0634733949766575
0.0647781043360026
0.0619946974337981
0.0639720864402051
0.0634660572664314
0.0627469062846086
0.0635839836304473
0.0644532114338062
0.0646777856148745
0.0655543904367452
0.062963427405452
0.0617754047719085
0.0598653307432111
0.0644015931813955
0.0605505473376462
0.0630987075717178
0.0573579070145657
0.0661964306112968
0.0553592355500604
0.0622174049940754
0.0732454838116283
0.0624346947084279
0.0645708031963275
0.0607408975081577
0.0661868503368041
0.0563021983607727
0.0630935014399738
0.0603329061895094
0.0629442196047115
0.0564606107794146
0.0617173396573816
0.0575157771628597
0.0611292205275459
0.0579446071289669
0.0622660014706844
0.058657954419739
0.0624930267008801
0.0572534747616241
0.0647574462077765
0.0538644377326339
0.0632372858125504
0.0653131647160338
0.0635741587313975
0.0636001977052019
0.0642914965308557
0.0464986881113276
0.0805130673042192
0.0608254480679464
0.0683187671408124
0.0543848339306562
0.0687852098326808
0.0566222165587756
0.0628726842263907
0.05428181912075
0.0637604183243862
0.06303068922804
0.0581184267257998
0.0615692083075072
0.0602210040679173
0.0570439157899635
0.0581241651744287
0.0578403669655337
0.0579075027582439
0.0596224214528869
0.0613971741776941
0.0598291714338782
0.0623883556765154
0.0548400261852326
0.0643304424458054
0.0557517990281024
0.0592374518529453
0.0611134345228093
0.0647557764076746
0.0573152063944623
0.066004489074406
0.053330741074749
0.0599841153792815
0.0739148262735668
0.0605109015307034
0.0676276839301585
0.057248904572846
0.0624412546869677
0.0587268838326723
0.0604450725104037
0.0580179238443013
0.0632035552018687
0.0573569791057451
0.0596100479890592
0.0583946429746208
0.0606426505447095
0.0610283090839682
0.0605070911037377
0.0626557570357198
0.0599099661041481
0.0617521483565103
0.0559630686193494
0.0685518070237875
0.0489560706281911
0.0639655817457615
0.0687624181159224
0.0672759137578998
0.0631881756804407
0.0649708869056513
0.0603023681912252
0.0597060843537337
0.061705420931643
0.0582839916870452
0.0597840750315435
0.0608847897088388
0.0634905428113027
0.0593358074013967
0.0619443155544717
0.0602056472557876
0.0617720037330385
0.0554306048464326
0.06155024906282
0.0569361190645799
0.0637237374665693
0.0543554424959804
0.0680374949548297
0.0494765907275915
0.0723998278000453
0.0559993629514659
0.0744566472913801
0.0312029746310805
0.0857074075065508
0.0758703140923512
0.0626297551973338
0.0711900569380048
0.0591370521848874
0.0640964571152311
0.0560807678800478
0.0593664081246768
0.0642418548525821
0.0634758114609681
0.0603794638116506
0.0611343178006574
0.0650477068004077
0.0677568211629405
0.0506810922344179
0.0508827376333496
0.083694860174914
0.0639613819248979
0.0719110356453949
0.0597882451594936
0.050575924146131
0.084519231197723
0.0593449065746317
0.0712824243406344
0.0607687029817155
0.0673914263171847
0.0621822378431551
0.0669763512125656
0.0580259764292834
0.0688364798134882
0.0643531961546852
0.061938044508037
0.0631691133122881
0.0595357040601118
0.0686560196458725
0.0602896300051452
0.0702015832352613
0.0764415250920559
0.0611900814324608
0.0707865537369249
0.0680797447117325
0.0678057570183382
0.0641968062750744
0.0696005069639392
0.0597292824025248
0.0674731695818814
0.0747641532422191
0.0599927695130501
0.0712883892340583
0.0784240372690696
0.064476361935695
0.0716654937894655
0.063294181873128
0.0851179346508616
0.0571990745376395
0.0616242914039461
0.0855938108479704
0.0627124708861088
0.0925764839641868
0.0607157136438803
0.0841976284093396
0.058687911614284
0.0830037679887794
0.0490342989199006
0.0928120164652561
0.062505232315782
0.0823644771732866
0.0579305834104694
0.0802596178208465
0.0735995203726799
0.0810291806516312
0.0752749344798138
0.072758493114392
0.0634214709545202
0.0808155762237401
0.0793586149786729
0.0474661766363826
0.101335028939471
0.078254721576883
0.0904477223880118
0.0849288700387675
0.0529008240311125
0.116624536384183
0.072767670626076
0.0867053551969355
0.0721842697685448
0.084772220568887
0.073978079791011
0.0606298729692185
0.10132065648874
0.0813179224342077
0.0771780243461676
0.0915434625336222
0.0614241106604451
0.100360993820064
0.0865473766823454
0.0886257536138762
0.0767996838349648
0.0942686860347145
0.0493302599191866
0.120641489860617
0.0939370495735224
0.0829547341553617
0.106619798626033
0.0898864315023365
0.103087656620652
0.0921961987419259
0.0939898955263995
0.088437958115064
0.111202017881618
0.0988336226011412
0.0863012254265106
0.0889904103735363
0.130447228988521
0.0822502529989957
0.115820955050722
0.0917884219936447
0.0907482004122521
0.092560670108927
0.150378026915779
0.123065897671341
0.119883440326249
0.0917580899580746
0.127417613918063
0.108138990459751
0.117554724060723
0.11019910637917
0.115939718032744
0.11541938656432
0.112530503767493
0.127442675215743
0.118471801414005
0.119173426369773
0.127801950937792
0.10855417351136
0.129119406972612
0.129202974545161
0.176874648217264
0.109982188174349
0.166288542360448
0.140331612351982
0.138915356398442
0.131925728172029
0.132164618774253
0.144592412734789
0.137316690027256
0.141577061476972
0.125142345594931
0.154218145116489
0.15233295085
0.129474752448933
0.183436517661777
0.134990564197179
0.16801567173983
0.0515502104564778
0.356022455852429
0.161123423724131
0.184390031698005
0.160835614306734
0.136186543332461
0.245256140133182
0.190796916193011
0.192655041693431
0.199717775468513
0.195266942472703
0.206802245564828
0.212307043165822
0.211729051583493
0.227003219790566
0.239571452328373
0.209894874953516
0.225734684510825
0.278310339170644
0.280924281156243
0.282595576759199
0.249729298734317
0.278002860611615
0.293237574373697
0.275062373874022
0.293371612067992
0.294288798340486
0.254146310539503
0.371805888364658
0.305932277168653
0.337676838065284
0.30754806723616
0.371169123511026
0.297858254833747
0.372322382727987
0.384695756363105
0.36370963563702
0.381955802302666
0.362972970523232
0.401405110323578
0.366198179862406
0.436691105484131
0.414387866118969
0.407517994653941
0.421273163639871
0.417914084532052
0.432281371509816
0.425203267229112
0.437906638440856
0.416598304905644
0.464762311476651
0.399175045661206
0.546342787628587
0.487960203609396
0.434523105943266
0.469983832967024
0.39863090543969
0.487631955767382
0.443301716910527
0.48188932591675
0.484033095032493
0.446657871636129
0.460233584897129
0.448556348838
0.461405552369506
0.440505753512947
0.463864488284563
0.434811867616704
0.468362985658026
0.455761369758721
0.41961410422045
0.554957358031273
0.456227626356196
0.471993393780945
0.445060313448567
0.46312777733002
0.446849972083727
0.464480199656484
0.425911640169199
0.490980396237077
0.436617338339628
0.480158557419936
0.442367609268391
0.470278558290626
0.492376621662333
0.453095218153358
0.449324320193953
0.442277787295949
0.442130492207002
0.434578686742456
0.396122401048911
0.508447220758451
0.422436295902219
0.441904200020808
0.435712158453992
0.438574182005479
0.427280318174889
0.431677974451137
0.426723590148845
0.447360646515275
0.410897401417405
0.447650010085377
0.421839777505061
0.430717196341235
0.420269797378784
0.436993974143117
0.428352506692526
0.432114280585153
0.426496792689189
0.420726714309911
0.431156256708649
0.429144429548274
0.420818207501847
0.43461858142731
0.425106169330855
0.435907274740787
0.424065049473784
0.428893918354973
0.422201344693212
0.425163936388541
0.416845905142594
0.417445410536186
0.419210034897306
0.420417570895526
0.423806210537155
0.419395896111189
0.418751675638382
0.41971342460648
0.413926783364091
0.411831718345524
0.413423507717708
0.401712559534206
0.413409660835274
0.382566009126437
0.434821977136684
0.446122176622119
0.379948466640864
0.412606801030267
0.37811007835418
0.413413569852365
0.364611874278753
0.416121321421296
0.413751260712837
0.376818669722052
0.376063967373056
0.373957832336564
0.371109694541694
0.393930746367024
0.343664032686186
0.371458858933526
0.33614809805761
0.339849837685175
0.430019219812837
0.305824655657809
0.433038685162838
0.355516245748751
0.345841519643039
0.311238597098769
0.392614796456612
0.327946685814879
0.345200170115311
0.329528376744972
0.338715301758127
0.362891599254663
0.324645451455718
0.343259242516701
0.317680949405826
0.311509515201573
0.35112315673986
0.324854241543299
0.299165971327531
0.35938950316976
0.30227473658518
0.322330892823056
0.349866361050357
0.343816655641996
0.306643246117039
0.300180218570828
0.308414283173226
0.284686454173349
0.342506259485307
0.317465841375797
0.303304261194614
0.302988284222256
0.278002725730939
0.304907897024655
0.28159755468448
0.315327182382026
0.248906126163301
0.331593575994182
0.279709938091967
0.268479024086173
0.293112305347349
0.27886681633292
0.321990869668402
0.28100443571606
0.27011490656681
0.253881694733155
0.319044099755185
0.267971904481971
0.278973743759977
0.272577703177962
0.249045538103216
0.294228828707878
0.265932392332718
0.256460698966813
0.281925734439767
0.245539909105686
0.282704151966105
0.286927856155641
0.29284334126031
0.267519298803144
0.248547794711525
0.264593985987995
0.252767822397486
0.260272490161698
0.25265101426618
0.235139136700497
0.294744159665716
0.2201181315859
0.299063913479321
0.27349696735672
0.26281636402368
0.270719959028027
0.27168618656316
0.268916492086672
0.289932311893736
0.297275939909046
0.303155237932469
0.259117660834835
0.31143141839187
0.288462443669362
0.305518098789861
0.291221195625862
0.306390713827183
0.300034613442601
0.323494421071026
0.325322257884664
0.327208875200113
0.326865431507882
0.34684858382428
0.313766305493508
0.393025011784172
0.334734086170572
0.364042929958056
0.395935581941083
0.384861749924077
0.415357198412032
0.386402609372548
0.411060139472753
0.405655607065969
0.414895703078829
0.41064115936806
0.387611783106525
0.458517806325658
0.427005416149837
0.440166790071333
0.44773002752061
0.45035463909012
0.450905493027039
0.459151851191624
0.480141732053686
0.432458285794815
0.553255436674666
0.469807047946255
0.49522802738524
0.470201715108135
0.485319882211432
0.496303441223714
0.48180131111002
0.49614639644905
0.479443185414288
0.508929587146148
0.504311261689175
0.494336821838538
0.510395536938062
0.501531175163208
0.508793082193241
0.509358962571735
0.51426880939221
0.523207106763481
0.522480783044212
0.52891504976113
0.494051666524979
0.567113514845394
0.580998322051823
0.526395395344016
0.558032037967225
0.548608431837543
0.564324128002931
0.540552751407223
0.565137066607864
0.585471360497075
0.576353858596781
0.58556641284173
0.581522891586144
0.579424679120221
0.58017287687922
0.612687471301772
0.607427806407808
0.587898990096496
0.609396633118493
0.550329607596804
0.694760649142113
0.602174700379545
0.638874701221259
0.624236820230209
0.626716796479749
0.622676443517005
0.629024785473179
0.626781947185176
0.643537417478497
0.637313435322354
0.633629265643416
0.636475194898389
0.635830190196497
0.634237204665953
0.62654146949833
0.654629494264497
0.654423714619958
0.636100560391919
0.64471329401387
0.629687615316478
0.635931667518178
0.631429280970774
0.667474248596108
0.637185761285265
0.631972229786819
0.620556570607703
0.662565507891902
0.649577395972186
0.631185543796115
0.627123774938727
0.642549034972723
0.629407138798377
0.641627743715017
0.626841156689059
0.679821983505507
0.642707586652721
0.653509931332438
0.654398546298621
0.658002286328674
0.65654248638899
0.671931155727415
0.662503844264476
0.668279430627514
0.678536962060099
0.670260361702787
0.671068106490251
0.676810002745437
0.675345486798264
0.668411821821429
0.687374370636705
0.678243316201944
0.668341301340587
0.680329526467888
0.662210583382403
0.684186973874481
0.668593692240731
0.656438966355439
0.649832377452719
0.650296445418814
0.632060662708924
0.646280304074843
0.641714850741775
0.627315691290533
0.64108697215013
0.613843237658327
0.634648597054461
0.61557195664601
0.61586187621621
0.610744073116606
0.609938330019643
0.604387582485557
0.596535805289563
0.595204274405724
0.592728851858539
0.594419679059152
0.591218948149606
0.59173756756119
0.586022596279778
0.581261885652231
0.583894199101844
0.583707072879509
0.584785230449301
0.586337205040233
0.585854461181122
0.583144074569767
0.594194639363055
0.586953953034517
0.587940056417043
0.573422051046982
0.593283137055473
0.574958588569589
0.583136730465755
0.585559286659388
0.583697861212615
0.580628137898901
0.575635981027311
0.579213162090885
0.577258005340477
0.578534328483477
0.565596509024555
0.575977614856055
0.579676307620066
0.581076983215191
0.584595838191815
0.580122531151552
0.573024738674272
0.583171875630032
0.578017189682152
0.585757200254883
0.582703749340226
0.581528644888505
0.575731291959154
0.579732353587597
0.585452844575405
0.578452010062199
0.573533024619256
0.574047448771851
0.575707676157504
0.581434702407306
0.572399998076867
0.573591260785013
0.577247758996565
0.577904044023649
0.577358582589805
0.572799647148123
0.564005625655674
0.567240544390134
0.557534929590928
0.557347362944679
0.550902106768019
0.55365430615644
0.546544631874071
0.545831042413322
0.539966638342654
0.534753721057429
0.52630648245113
0.521941284966614
0.519212037126825
0.523917387746427
0.515333616379581
0.51311510176531
0.510301720830124
0.506220673314282
0.508702019634026
0.505369483028262
0.503225910651993
0.502823152080116
0.504282354429934
0.50180950232302
0.498901551953728
0.498038761014193
0.495115449157709
0.50050725902129
0.499241636970782
0.50274209809173
0.501724899343823
0.50128703167664
0.504024422182144
0.509384423605717
0.512406399002918
0.511243130562492
0.515711967552222
0.520149342355708
0.520119966516261
0.517493003360628
0.5212649975151
0.520095309421841
0.525035556645747
0.529238427184633
0.525835079424163
0.526914243522127
0.533388997391571
0.531493938107407
0.533162982284007
0.535893600422801
0.53242196568332
0.525873992619807
0.527743760238806
0.527478143820717
0.528396217306441
0.529026572881742
0.525376951624634
0.527296488520202
0.522984953811703
0.524593090856048
0.521638789195774
0.52410851188858
0.519174867686573
0.517804417055493
0.516587809448315
0.516541296960504
0.510362995970313
0.512378022297956
0.511637246900359
0.5060593227409
0.509629419197375
0.505021796456762
0.501325984959827
0.504437882205191
0.499490687658193
0.499692988708613
0.500393951613081
0.495630179954142
0.494737199562125
0.496733673729934
0.492370288118297
0.48864485956112
0.490800074037679
0.490441609794935
0.490539421774125
0.488373251585757
0.480302864443968
0.484419691851182
0.479432487323597
0.479825302664469
0.479414622438059
0.472663473096089
0.471634495139247
0.465796872161814
0.468177977601009
0.463288958390252
0.459307784280326
0.453864816472303
0.450453542940419
0.446507631780399
0.448447578590073
0.44431109755918
0.441076355519985
0.43678018902683
0.437785768890452
0.434355674991789
0.433076208085816
0.434713736912357
0.431618986693546
0.427675239838257
0.427375387495047
0.427761237249334
0.424507813793465
0.419387479204343
0.417280308233106
0.416952014913013
0.413580796076816
0.408054124809506
0.403777262657059
0.401009203831007
0.394961725681307
0.389410407722973
0.381195118094707
0.381801938755963
0.376472795704216
0.37726788405962
0.376792678066991
0.376479162684733
0.380455066319067
0.388782637229417
0.39262968531535
0.403692897892266
0.416776631560527
0.427545185139741
0.436797665864063
0.451298683444198
0.470986059218226
0.48555130928134
0.500516646091457
0.515628247393046
0.539928116247209
0.551617544276476
0.568113021154266
0.588206256198492
0.602656078115295
0.615222201744527
0.638822367094188
0.65677935479286
0.670342868741024
0.680584402523266
0.697437894280082
0.706522924524523
0.723319880956199
0.73407624960793
0.745082122858655
0.757162948678504
0.769236759142986
0.771206112252824
0.792929595185031
0.798196313709301
0.804204699284999
0.814713654591613
0.817270076823314
0.817984101844288
0.823968782412007
0.829005988926495
0.828655223559154
0.833056363321093
0.827785924574901
0.836222190099061
0.836647362238285
0.837900869902681
0.837094370502542
0.836998375043981
0.847144339863255
0.841918609800239
0.855217542400533
0.862669190856069
0.861470531417699
0.866982074004178
0.864066410001967
0.880121316056795
0.893866893224726
0.888380502476489
0.904483954155071
0.906175006437412
0.912403088630857
0.927270480251177
0.930757509866491
0.945152584453442
0.945961630746719
0.954497896341218
0.981572885475633
0.984382701408457
0.99526102531428
1.01213700088485
1.01904364535861
1.03809401084969
1.0342486583742
1.04666505525318
1.06048097635864
1.04757062399743
1.06070252429945
1.05445298969434
1.04737393252169
1.06566436279594
1.06229384692261
1.05834021872284
1.05317290725871
1.04186212511804
1.03936212358556
1.03968107125305
1.03940105719171
1.05315532190179
1.05702838828325
1.07569731020374
1.0999388049148
1.11228870638831
1.12557810632751
1.13661520655634
1.14885313290757
1.16889945416352
1.19632650788606
1.20614390115763
1.21302090304445
1.24226856565854
1.23394585034951
1.29129386091767
1.25388359781736
1.26342293476446
1.30506015471264
1.31925636231387
1.31713833743094
1.3218319086212
1.38957713575081
1.42901414595025
1.4904838378764
1.45257120529468
1.50065605254939
1.49048730225804
1.51031533216181
1.50955977068136
1.52772921802014
1.56213779586273
1.56335049172066
1.67549473188275
1.62520564026492
1.61339583241996
1.71512706838803
1.72905539254921
1.72256958196964
1.74473998760221
1.76178006242692
1.76102739336492
1.74240354834124
1.80195488730032
1.69768901096525
1.72364838506486
1.74518513355759
1.77545957393221
1.69637113297649
1.82776061253157
1.82137259055846
1.80987072149803
1.84233808295555
1.86838941263878
1.77427501129351
1.74485352600971
1.74659026868516
1.79520330743334
1.73729229854111
1.86961592779657
1.79974478729435
1.94253884820074
2.07338272869373
1.96872196671947
1.97487450008132
1.8835367621668
1.89166085607863
2.1465068472937
1.94431093015487
2.23177636103147
2.07099586814862
2.17692208321537
2.39679390369032
2.14833709114102
1.93479062869264
2.13812328416972
2.00472620829609
2.14946675467538
2.2092268957899
2.76429237295903
2.39195891739468
2.16603815878931
2.21907491286202
2.43159452270321
2.37279724583986
2.42109368233035
2.1271625345919
2.1002504802333
2.28488463231774
2.61691577244433
2.50011092488507
5
2.13797427730146
2.18924370508596
2.14514248079065
2.32183443400932
2.05555445705622
2.38749198089556
2.03469546249512
2.14636914969603
2.09682356014124
2.04273134973244
1.86343105202614
2.48912376112707
1.81632803553623
1.93748164681308
1.76976373017972
1.79753368212396
1.70782220108113
1.85920247921057
1.64716895811407
1.71176548336364
1.64296960737594
1.70692845229236
1.63254535720192
1.73397686549794
1.55971287632657
1.63382173674611
1.55578128377772
1.59467132148371
1.55864542479272
1.58289775411489
1.50175888251455
1.50321177865307
1.51488848839144
1.50258072045439
1.46833417513703
1.40747710297313
1.37409474361607
1.36251470208467
1.37679344925165
1.33932049850441
1.33583895808008
1.33553705869375
1.25979561845666
1.21345888213517
1.17581695148884
1.11500579547177
1.09065961234744
1.03535039742322
0.986090993441164
0.945216622059586
0.901074612682869
0.876653249969833
0.807126656713972
0.809737142239134
0.752949109073756
0.726532007398653
0.690014681615773
0.674431242640224
0.645559571467801
0.637050690866617
0.604291827296905
0.601991240567316
0.576394806554247
0.570882680941512
0.554255140783156
0.549803067061209
0.537367641875436
0.538030044048661
0.535060138465062
0.531759750707785
0.529284495742492
0.520666059713081
0.520742421151191
0.523218314151652
0.529600546235799
0.54250308287928
0.529697982314565
0.536765277423112
0.52684409848203
0.539309296291879
0.527483246880268
0.517516783038156
0.516194762887765
0.519958055863886
0.519763839741608
0.50391430152301
0.503446007821526
0.505053508718841
0.491793111401061
0.492131641449956
0.485229485285872
0.485360728876055
0.480104448105725
0.475518686132715
0.477061207492188
0.473762412086393
0.477457677648597
0.484342995169769
0.490505398337089
0.493170971787918
0.492854579021877
0.487591330030756
0.49184826797399
0.502363541155184
0.502477344394738
0.51218825184683
0.513329185632173
0.509461544079386
0.522929230941028
0.526784252257868
0.525791226270445
0.516489985250365
0.528697372925386
0.536428545861925
0.531758031853452
0.531339171259676
0.531437652096354
0.537296594093065
0.527907445096289
0.544144947656929
0.545542411004227
0.543548212472035
0.540286425220056
0.552187049926306
0.569830446171617
0.570716467402007
0.590995286913278
0.612293740649032
0.609906746151107
0.630474949652301
0.650459572866488
0.664030980006014
0.673549927185614
0.698361379321468
0.703393844704609
0.728758266048194
0.717757212628324
0.728882733546174
0.717180945360556
0.700142520595344
0.706629135128834
0.656289416029349
0.65802508468246
0.660511439160378
0.636124271051747
0.633346994569225
0.64199754923383
0.625734220460097
0.625794575607979
0.632295467056403
0.630097625025776
0.62206411683819
0.641639169084291
0.627429967548692
0.626324251150115
0.624339027516987
0.63218299542056
0.609667654539398
0.60319242098849
0.606371017060707
0.612112072184619
0.585456225343967
0.594639611536978
0.586608042124002
0.570075077749323
0.594267762686368
0.553427969741968
0.561635133584728
0.543199450445016
0.52812433806667
0.529559046190425
0.546138494902348
0.527024221039637
0.523769156335823
0.519537896500804
0.536166711749986
0.511533504392441
0.522345959613933
0.525604635199554
0.505265089937487
0.48708698234727
0.494841715128509
0.495699391740295
0.495965829756805
0.471224348179902
0.496135820771145
0.470239528490985
0.483350223208793
0.4782972626242
0.462190024873847
0.460638419511406
0.46378478106796
0.457375600950661
0.464414460634624
0.443128705876263
0.463925335744528
0.430066488860386
0.449978885238755
0.439505522805774
0.450834798443986
0.430408976264399
0.436027706880174
0.434066902343343
0.418435332764594
0.428944488577294
0.429652175936351
0.411833063497241
0.440727936045747
0.417552676122061
0.416525117500059
0.413918815357394
0.442451657121263
0.430007468743729
0.421205352062961
0.435603106428842
0.432659943305839
0.453710408771641
0.448499591726802
0.427280499934081
0.441070781262151
0.428858171069021
0.453196229769552
0.439768594003679
0.449596234853009
0.445333147559963
0.454311559960143
0.430621805843994
0.485213296898288
0.460112150019718
0.485446061529722
0.475791133399281
0.483899620776247
0.47199278812408
0.517067570627065
0.517235782178285
0.519371634886127
0.541276652964738
0.562659227857409
0.564292246071657
0.574519559114968
0.568059373202396
0.611533104271943
0.636804845745617
0.646603509308702
0.662413135954844
0.664974855132538
0.684731504167558
0.762784193764767
0.7424394524839
0.730453442713114
0.751410406304661
0.762130251675713
0.81145133123344
0.888751183114452
0.800756119875112
0.811551924838735
0.779330093286223
0.821043712282379
0.790196144719731
0.769754994624322
0.743880204807112
0.767758227381325
0.755365639771303
0.774097366267858
0.788466462160199
0.76040278330189
0.786848156872246
0.787766903877834
0.730588425762815
0.779062505522447
0.803880915523405
0.740876128703989
0.742913838209536
0.769936381703995
0.726135537659784
0.759169745451125
0.711621134508287
0.695931224096974
0.697459937199265
0.690734065957114
0.644685741902072
0.67815240906506
0.620587734893102
0.650041361222517
0.627790192359019
0.670091755827981
0.648259538311685
0.655006686437714
0.625838532342699
0.647669455720588
0.709038558335127
0.685008830262079
0.62501711334161
0.735315087968994
0.644863379833105
0.732057874530816
0.679111009925963
0.639663284168967
0.655078582718118
0.75527845563592
0.662784064480515
0.700509056232024
0.660147685719711
0.592440435885661
0.708127452872667
0.690695573671646
0.658336683197988
0.733007601471729
0.675929229393236
0.695350362109114
0.64166888432575
0.724903430713019
0.647476382945543
0.715733552265292
0.656026549727716
0.678239599065222
0.711045546555255
0.855298040539748
0.758041700577457
0.795868643951709
0.685774659473677
0.700249954914544
0.67596273497151
0.898637173674815
0.805959733427539
0.886915965758047
0.761275897714408
0.799109151758603
0.783782237315062
0.959084273098002
0.809405697902274
0.909104870850939
0.905240107100454
1.05099024008036
0.825818016055844
1.12509742918383
0.865084581860511
0.972844013585533
0.799447188056945
0.919750806425017
0.912482461438418
1.11028494685428
0.842571624680537
1.15639366578068
0.818143185984609
0.928240643507521
0.88354630713194
0.903992017612189
0.827310454896686
1.05797074483372
0.822163123842746
0.706608194908347
0.796499975723124
1.03457028056225
0.954759507613683
0.899981493319829
0.749916383807482
1.04874992814977
0.82249133653238
0.730012296395508
0.828518012825716
0.755543382386375
0.8927290474138
1.13655752872732
0.610621888203718
0.892067441165852
0.884257476989679
0.825091322137208
1.02652601425637
1.19664120977798
0.838046828552723
1.09146538069486
0.798566313293272
1.00520852375498
0.69455986514654
0.972113409795533
1.05637297989705
1.3581188718069
0.666708523578354
1.03959110531174
1.51433302739765
1.23157925533916
5
5
1.26656997856779
0.732393290841995
1.90446559086859
1.40002146288741
0.56612451339824
0.822810780037273
1.04276071142887
1.49171675872907
0.688657079235962
5
1.12012461752199
0.904195637474143
0.413954100033097
