3596
4000.36533379555
650.420452594757
1
2
2
0.0701728364316765
0.0584760882904284
0.0596456804330438
0.0450827133780747
0.0740035917140066
0.0594865146188891
0.0785989164603356
0.0583371665967957
0.0560561349158337
0.05095923624604
0.0702322175354414
0.0537887067094713
0.0788974151570507
0.0528565626177798
0.0644070582156569
0.0404244864779717
0.0653153655029568
0.0429831573970092
0.0709106143327274
0.054149258934179
0.0687283245227878
0.0574381982448956
0.0767075041936909
0.0393048206279237
0.0650073452478623
0.0656581610920344
0.0629433688324711
0.0481766886355714
0.0731179785098399
0.0466497924202841
0.0668998600889782
0.0562427717332831
0.0719729861319783
0.0544238264135161
0.0797135093148359
0.0535617461811893
0.0702061403307157
0.0473131586650451
0.0718711018593516
0.0455001977573418
0.0762956245318281
0.0426016996629283
0.0627513344309534
0.0510508771500137
0.0645048598903973
0.0550081622182468
0.0597642925921554
0.0588431732772105
0.0677156013686468
0.0537379301936969
0.075827462596602
0.0447532779475803
0.0681788947393073
0.0532802321595202
0.0664988264812738
0.0524548278410274
0.0673751619382775
0.0538867246945294
0.0673519484518283
0.0405438439693207
0.0710556362054184
0.054019899420677
0.0637533122411937
0.0476683735898604
0.071998746609583
0.0438702390148524
0.0632549050919033
0.0479351366649068
0.0613361242257326
0.0446253397989364
0.0485667018974029
0.0653228538385063
0.0876358570681374
0.0557567469126084
0.0678401498306204
0.0447743134324125
0.0655633201091923
0.0554413635169525
0.0550638128183099
0.0517078880474523
0.060258387363207
0.0599991236033872
0.0642756253972584
0.047396045998625
0.0656843761078871
0.0571230829590605
0.0553007554545055
0.031524224030096
0.0829714975768652
0.0606546844525351
0.0625451930130756
0.0535506856910052
0.0603606725526733
0.0431414159380336
0.0575694161465696
0.0462233700856881
0.0627367064398468
0.0429627004359905
0.0518557291338007
0.0395386507068214
0.0543887892423286
0.0313278183070119
0.0958981653015745
0.028433052144478
0.114908058193121
0.0579389169397953
0.0460865418176542
0.0720946311940168
0.0870387010725146
0.043011577056072
0.0640953281483021
0.0467594189676698
0.0622474943542705
0.0376871984764787
0.0408414932747445
0.0428944156313908
0.0985321637687442
0.0610439391374912
0.0661202447492193
0.0353965034750625
0.0209221217100393
0.035567156104921
0.0883959084945883
0.0412802672346209
0.075049238734187
0.0476485164541558
0.031703431857768
0.07672215470067
0.0983829024241106
0.0455551746972051
0.0557055574863493
0.0362308121189079
0.0505026831467504
0.0120387045560565
0.086236188297881
0.051573773056169
0.0570939047221416
0.00402926564036449
0.0691596176451265
0.0749205477591449
0.0796330787777539
0.0534568072582183
0.0328660355923356
0.0214562383884922
0.10320997330637
0.0526473560172375
0.0438858314445374
0.0503084139397042
0.0722973147473109
0.0433919915199203
0.0609732587667336
0.0224890098073408
0.0753676828400773
0.0400846069573343
-0.00473979908195705
0.0515379613566339
0.11460406296336
0.0436803537137548
0.113548629016282
0.0403177618288248
0.0716466731805462
0.0502147031045558
0.0607346571879923
0.0301300515565504
0.0511620765015273
0.0227070168664974
0.0602668562661401
0.0596900257843536
0.0397108449944165
0.0180932455039099
0.0883725294215276
0.037326895436609
0.0287447773854955
0.115523413154804
0.0717535661263496
0.0185777649797482
0.0878960383101888
0.053415096288236
0.0375640612932932
0.0477731951909289
0.0908430830610202
0.049739427571098
0.0517015470327957
0.0395974407133125
0.0431223468088181
0.0556325851889381
0.0737913021885602
0.0455252430405598
0.055955822078984
0.00329401052354286
0.0609776160581365
0.080792157233112
0.0904217476982679
0.0543186232653362
0.0550609906466443
-0.0134013162662003
0.094568254028785
0.0718187064839861
0.0666208341775999
0.0424066027223957
0.0561591898192172
0.0393952109583011
0.0503281514047075
0.0497312805760333
0.0457951729846905
-0.00633441243477775
0.0938764365001735
0.0614285813622333
0.0541348347815916
0.0331231528951204
0.044472108989926
0.00792754912878347
0.113810364476745
0.0744724776995213
0.0514304578443007
0.0425939710522163
0.0405874594097618
0.0411153134293256
0.0876767729372681
0.0486645134489644
0.0599963444362708
0.0426741407289176
0.0668223365745793
0.0389964337805062
0.0535007681500513
0.0490982265509914
0.0639741534977898
0.0365176880541879
0.0563542401234664
0.0468653034489932
0.0793848759579826
0.041877119284133
0.0579701639018289
0.0398409743895411
0.0391762318440965
0.0335734287490347
0.0784316759495087
0.0526453451735727
0.0595963358095563
0.0349930661399211
0.0523642913939399
0.0392098924909667
0.0579994819559281
0.0402478451076769
0.0532125627692397
0.0136691628423503
0.0972607922289411
0.0491790545443992
0.0635447864605056
0.0170799576745167
0.0754847399659369
0.0536530607110028
0.0636388481309622
0.0393319504003859
0.0667538171139128
0.0196868758231537
0.0462274471185208
0.0627005015588093
0.0717156716972775
0.0246338278083572
0.0714561015680968
0.0468256872912251
0.0578521631120364
0.0310983016390202
0.0250413310642749
0.106751626653991
0.065769942543081
0.00584417583577093
0.125070074085869
0.0609024076343983
0.0787893986193755
0.0228051150085556
-0.0112224548990321
0.0920607694804051
0.123446845541139
0.0477026413671093
0.0599554936848873
0.0614647734778151
0.0537024588645002
0.0374291143484936
0.0558181075736878
0.033608136495265
0.0664251216433214
0.075853715691715
0.126896371712772
0.00336520729734377
0.0970729518700654
0.0666177906243703
0.0540802411674611
0.0450997589923106
0.0593023663926864
0.025997087646735
0.0697460934976646
0.0597077303162067
0.086596550488024
0.0557952252390823
0.0649099328484452
0.0745865059706056
0.0801974509422675
0.0484991861261592
0.0686937910115188
0.060359613611349
0.066304702588897
0.0508660194663833
0.0545952077869991
0.0594027635678812
0.0456101241608978
0.00675661898798352
0.117921244500545
0.0571821954931825
0.0582246166919308
0.0812110531488734
0.0742816404409532
0.0456738918212928
0.0664922184940084
0.0556798989372449
0.0681825540503747
0.0371814371281915
0.0480180246745029
0.084875163354554
0.0829237996111657
0.0599448487647937
0.0682100727941343
0.054617132459097
0.065748231432974
0.0530867141711878
0.0645465680231624
0.0588198716807993
0.0694057308633166
0.0342644335047244
0.101255857701381
0.0776118085769502
0.051540248570772
0.0850207873183054
0.114037861987089
0.0728164445508491
0.0856085866978364
0.0599103086593698
0.0792144830134919
0.0593159049679844
0.0806651553336919
0.0554909878595157
0.072086401022138
0.088712770981673
0.0886056270154887
0.0509350817334793
0.0709408851498242
0.106657114017482
0.154364635288716
0.0927017997495875
0.0925330774226993
0.0395974192080739
0.113824549578743
0.0940460966360051
0.103074500865076
0.104425882094733
0.0954337924162281
0.0890939605929097
0.103572333801205
0.087678240078387
0.104385334996602
0.0937591152975655
0.102345497865407
0.0974798443615522
0.100312205994506
0.102392039086974
0.0952560286148539
0.0869866355805094
0.148352842943888
0.109507702078746
0.123770852681065
0.104136405484716
0.100764734543522
0.122144148512015
0.129804658335497
0.144477730891962
0.140061858684135
0.118888203661997
0.166616213712382
0.116414158792624
0.13802936390198
0.1189477135615
0.147426358512897
0.127175131407691
0.156246518748128
0.136862872751834
0.149977209106866
0.13351447945879
0.163329984308141
0.141181949050119
0.155484356812175
0.135989215706383
0.174701522570434
0.146491712855699
0.163061677320388
0.131548628558372
0.176172215847144
0.18977886066191
0.218971052959029
0.162889577304588
0.192121976969133
0.176713128552182
0.172565675915653
0.171093787773559
0.173555648804727
0.168355145142038
0.188348395301801
0.191514703291173
0.218901252819451
0.198806956434503
0.236748722356827
0.190352781806759
0.224711522442079
0.207058680456162
0.213376439032628
0.237709394733826
0.244364192806086
0.189244557464521
0.252053155802283
0.226400496684114
0.232489709686679
0.23952218730645
0.238345325695662
0.237724585257087
0.256623010667458
0.232047178401733
0.262118457062888
0.252983925823573
0.269599055237783
0.258660157316551
0.274179932464082
0.247701992756666
0.274937867148831
0.280350864650531
0.288746910393502
0.267714565002629
0.299992621537001
0.276675707280077
0.297178848945475
0.263137305987048
0.298920726915197
0.295977681741005
0.309266968448185
0.300148041551275
0.326440323523934
0.319926784298619
0.348509024205761
0.329158447712181
0.342807982157602
0.315608301322885
0.35911501431801
0.337031055765745
0.357572112992396
0.347478414931875
0.367302284917854
0.33520684072775
0.367781726981281
0.353665401007999
0.388680377613347
0.34736182493838
0.389926951636025
0.354521495703743
0.417558351192094
0.38989177199553
0.442994253103383
0.413035137549502
0.425445960889395
0.370695113206236
0.426665691567204
0.404957150963391
0.411890223712639
0.422370982376967
0.426097161700628
0.435198005525557
0.445894468169833
0.44385421014445
0.456143286034683
0.4579876105802
0.47489060267737
0.433781435795566
0.506254086738129
0.447886343976401
0.488786649626265
0.456247602999699
0.52682087098667
0.501275999138684
0.488671575117798
0.474418417061043
0.528585307053844
0.489072160591328
0.547848228823301
0.48544375817542
0.505728795771784
0.511735927829273
0.578205861099938
0.513666491202658
0.544326689254794
0.538403006283283
0.572202127534949
0.553589318591239
0.617233940267304
0.534395818422538
0.605088097918213
0.58231433049329
0.609691617155181
0.571655217799287
0.606140172377344
0.578769873492395
0.640877573146231
0.573534765207393
0.663268929940493
0.579225647256126
0.625378759680096
0.593927878263508
0.641341988437491
0.646432726624169
0.647298950384559
0.646313491275569
0.677961504234527
0.623722280091474
0.692952689283512
0.618205215484649
0.687621198186347
0.680026306533229
0.727121253167419
0.682879172326846
0.729570820806696
0.677666831861623
0.734359040682798
0.712861066695399
0.760088062537673
0.708710758713879
0.762725581278136
0.707260676204301
0.775454608860848
0.740657667875373
0.740434440303246
0.727597121601433
0.794890403031734
0.765923712544032
0.852914215617581
0.786993436162732
0.820089792348751
0.740232750127022
0.832873207736866
0.799482000085775
0.842048524789531
0.803201668884805
0.850328349901945
0.769108568893335
0.870845510920627
0.808611765124212
0.88523692540755
0.831876411723188
0.930313023436166
0.809902919097385
0.857522200004998
0.84952776308748
0.974915803556818
0.843719332661862
0.892938581420762
0.813051718329573
0.876948011851196
0.874862427249629
0.926510048837567
0.861270440009036
0.876169445456188
0.904100746957858
0.989302986534277
0.896551046969439
0.99667763282759
0.917224932312548
1.00960100052735
0.90600428712463
1.01629479248741
0.991750373093593
1.10203314566774
0.931479585965054
0.954339822736093
0.998569839360121
1.00777544354728
0.930847770967398
1.05437417044705
0.997091438487087
1.03391826756488
1.02700133748227
1.06464064378183
1.00601193196381
1.03308213240217
0.997071713177958
1.00928540786642
0.968620094402724
1.01907080332769
1.04384959994804
1.24586925022455
1.08969566231232
1.17672095369365
1.06805674924664
1.18055728457662
1.01649502200517
1.18132547129502
1.01868235893345
1.09858295963824
1.08023324292213
1.1252273031437
1.04795854910714
1.19188647365951
1.20104983245782
1.24135734401171
1.02877047717482
1.17026700184526
1.23722526482503
1.2103050128774
1.11159390685832
1.13499043276519
1.15206848507428
1.37523380542533
1.15141069406385
1.35078246392918
1.15224261901694
1.28519100994406
1.24105136729769
1.24561881608686
1.16305922314984
1.19529512822299
1.08118887160677
1.32553782934113
1.14841254735406
1.16852037482701
1.15532632244786
1.2310565750632
1.21397166192804
1.34035506573598
1.29536515264949
1.33155783564299
1.30290273738235
1.45471364419154
1.31897992190665
1.41885642198132
1.30855951319272
1.32090065404785
1.09663290656622
1.21512566280718
1.35049796874111
1.28009457722456
1.27770513823154
1.30295891510395
1.2940986511204
1.36838200203022
1.12803097347319
1.21517589679262
1.3423076316933
1.39617247656294
1.272807387569
1.36073549341577
1.31765181233121
1.34485943975791
1.32473589282207
1.39250510230805
1.34130541957938
1.50006119650291
1.25901176821792
1.37094454636395
1.4550040391557
1.37584366964318
1.31888429997319
1.48272656806608
1.58430354391894
1.27493072876292
1.32081537175582
1.518807692218
1.41749082323127
1.4819211467453
1.37304831049205
1.38739743962581
1.35446238929764
1.40640661720312
1.21092647137431
1.49232684407889
1.37571851578469
1.47460440014043
1.48265805108911
1.41433415547712
1.34484092603395
1.41630790678382
1.46747099676309
1.51183447434437
1.39732830633123
1.40580396354565
1.38828504828494
1.49017473616472
1.34946098812709
1.35068464991567
1.37850481639778
1.56395864596117
1.42967805539672
1.5432325317711
1.58243323068333
1.69837768478813
1.46150066092137
1.54267584728077
1.49173164542046
1.36066391549607
1.42472360940561
1.49266013292304
1.44647824442938
1.3662113734159
1.38454103660603
1.41137643418007
1.43386756070751
1.57303204056822
1.45555448522498
1.57206941689499
1.46361718634807
1.4602903189053
1.40582672041849
1.48960790385566
1.52767304633167
1.55971273507688
1.39737733337384
1.50014482616487
1.49380854925026
1.70398819554818
1.50935956253764
1.43548481612975
1.57624759426337
1.48981715068151
1.40613741387591
1.44689116881464
1.44559341388829
1.61569987893591
1.62373833554269
1.39709057188066
1.41069265427913
1.66906536897223
1.4148917342646
1.36158503196999
1.45677993894264
1.56844286965015
1.62055962134499
1.52427325602749
1.38488042047264
1.38660742694307
1.48254697654184
1.4562747258215
1.61722471056303
1.71126907000624
1.51204113940242
1.56355888091604
1.37607421248457
1.43742696636457
1.51212974649221
1.46065169838448
1.48261609161005
1.39145748988679
1.40632276007976
1.55825557103532
1.47976446069155
1.42535225953654
1.5595015897073
1.59491699287297
1.40723885775133
1.38160932594076
1.41476473222434
1.5246902793515
1.48293081568393
1.54649616263831
1.43417597680924
1.33557006074947
1.36905827705362
1.46271220855683
1.41456081986741
1.38603762150433
1.76126409079529
1.60299676054334
1.31089891601269
1.44240446800486
1.48710934831462
1.54603030960073
1.542024889389
1.42963585709847
1.54397539601066
1.61538288247075
1.42092408750889
1.3881956970745
1.4865678460271
1.49859400612796
1.53384292360612
1.6204892054514
1.47769061551133
1.46404777370931
1.47526565616052
1.43489621314352
1.40048152831732
1.3829120784508
1.52035505859651
1.42921580340519
1.37217774987831
1.44378897525188
1.46674739498141
1.4486699494794
1.50279273251383
1.41252540598502
1.45520712498897
1.47805236707342
1.31938976742395
1.31016132478712
1.36133999777758
1.37337142983811
1.5731521306909
1.55701107763217
1.29836498123281
1.31245757232207
1.37901074424637
1.37036108089697
1.41766423245586
1.51364571213722
1.46278965543965
1.29214551073379
1.36104913968192
1.38629744651545
1.39258716196691
1.36526042230924
1.31622604556415
1.30681310967176
1.32474101151408
1.38017941127394
1.33614128239871
1.30096036508003
1.37604656615219
1.33462761141211
1.31163255376148
1.31747526849986
1.35755649438487
1.35394442243791
1.4193933055413
1.36964172712301
1.32514952995144
1.34225004232339
1.36388860947
1.30298342906101
1.29883543786686
1.23137941428361
1.25762243010668
1.29679429150651
1.29519713956023
1.22670607016786
1.31894039035117
1.35822442715451
1.2847678521423
1.31830371722266
1.29434417923235
1.21593245958299
1.22083011886546
1.29302235732327
1.39478843566141
1.19339321168449
1.20286889761197
1.26080053474384
1.27116791932335
1.31600886971641
1.24585295213988
1.18832192293474
1.25064609640529
1.28454907667208
1.25725855820252
1.16925028662126
1.21873737826159
1.15458167545926
1.21034926901811
1.13712727849391
1.19420026705131
1.24100186550522
1.17540481905933
1.13315465106346
1.15340028009735
1.18120252863209
1.16353126048689
1.10367536668235
1.13678643612821
1.16845487993352
1.1677859980131
1.12608442668476
1.15855794005488
1.05298933020816
1.09097053633804
1.0738435141036
1.1374186656181
1.11772617733134
1.1159430756105
1.09514977654559
1.15024474063606
1.0734332871684
1.03960757240871
1.09869835514815
1.08709289276497
1.09510108111227
1.089100623672
1.08618455555476
1.09362659106063
1.0322020619767
1.08640046986626
1.06291456878577
1.06225815376874
1.0292464072215
1.09308332486532
1.05555463462562
1.05003885556236
0.973503563440113
0.995564448304463
0.987318189788463
0.974652400878297
0.981818744875541
0.997650460198589
0.964288754332637
0.98096691458637
0.965308998786604
0.995216829319765
0.974008173256987
0.999079595690632
0.954067570290998
0.948019832671519
0.979376396284978
0.979300871681759
0.939393826855946
0.96759331937185
0.935843322568667
0.962678103129102
0.937107304852573
0.932446788839055
0.879848954001829
0.925559684396759
0.905657399049293
0.905046192840346
0.889692082114133
0.912760922097708
0.901115060159989
0.889034181301868
0.873023658294396
0.89724783344493
0.834800376673194
0.854019110643974
0.838739826230149
0.87675314789761
0.849478741808872
0.851502973825533
0.82205381959177
0.848301297662405
0.833553030986916
0.844286225116482
0.831600398357586
0.832848623991733
0.830893916666962
0.849109624781154
0.822918068715303
0.808727259155249
0.773674021341564
0.830741576392099
0.810071709105159
0.78368491109226
0.77056617788068
0.799244869901503
0.747189718749774
0.769548584612749
0.768487345024365
0.782249885072733
0.767188009914005
0.78234705351128
0.751415796668374
0.754792129688052
0.730694973192447
0.773465767016103
0.759832040094947
0.760869249224065
0.723550483478708
0.736753388075103
0.704501925677213
0.718308548341601
0.72249523059039
0.716637370797206
0.710932373316437
0.711131247981537
0.690754167938949
0.722316693906645
0.708292082456256
0.711337774716348
0.69528816287656
0.700907061137322
0.681703180925356
0.714923681360364
0.67615142458065
0.676592086842539
0.663090376736818
0.66810283434448
0.649800496039425
0.663954394931875
0.645288148984774
0.676666549481624
0.64266445952922
0.646772042400534
0.63989752664166
0.658552099022158
0.637975886659788
0.663728314561573
0.624796072620279
0.641974201787146
0.617058364815917
0.620949496228999
0.618387428916019
0.630597422310782
0.609240565209031
0.624468663076456
0.602808917000628
0.607905632883784
0.591761529590378
0.618757079901593
0.605637707044459
0.600026971008892
0.575340655387829
0.59334617514822
0.578944035582747
0.588560689096917
0.565671348212919
0.584199325397829
0.571728607112971
0.57939087745484
0.557847241022577
0.568993965521906
0.553714039971547
0.573027803431692
0.557886836546401
0.566725960339364
0.548120119329086
0.557854085653722
0.556730441025356
0.559956707583831
0.536008451999213
0.540134991824654
0.547727649000649
0.541659585693056
0.52552965575022
0.543307935063776
0.537666731242393
0.535322655773195
0.510428503022823
0.5286787402372
0.512857654604613
0.525214876060586
0.514629576307159
0.523978234264327
0.508068621290049
0.51042008618679
0.511888197866147
0.506037317016394
0.482388921398876
0.505475478660662
0.497328722105331
0.505399074758101
0.496258153722545
0.507387112718513
0.489185953157673
0.502581991907513
0.474610120640618
0.487824237911123
0.473380948641779
0.492322383470962
0.476540712880065
0.491018956369337
0.474872294615302
0.482334852885403
0.463999902491547
0.49521132963572
0.462966238896886
0.487220568880122
0.461273995782011
0.472515470925727
0.473791142966968
0.487985835302854
0.470901569799938
0.483936036966896
0.477709689162131
0.47438844608801
0.457869919156413
0.479208105660576
0.467302171392015
0.482904251614635
0.467507221016305
0.468844398165625
0.474930920529578
0.481745262593181
0.4765520559624
0.485473491529218
0.485406713498928
0.478861567737306
0.462947965720892
0.490307554458074
0.473603855828595
0.491506529961042
0.477891394925124
0.496612993096927
0.491206682512022
0.510297912681626
0.49246812802433
0.503878100582388
0.492808191670407
0.507606161720951
0.49213357055738
0.521699773750621
0.499253275575006
0.527550945008108
0.495820655559464
0.519115689931566
0.509757953557094
0.517625235684806
0.507907176337418
0.528666634423491
0.51912968530726
0.542541857576727
0.527484369933144
0.546562980419985
0.527880054352701
0.551260486089025
0.526654954448816
0.537267079682117
0.550418080306074
0.563009103142372
0.554784213606208
0.575762310679907
0.560777094957092
0.562715429099319
0.570277507634309
0.58060749190098
0.582356688733129
0.60197590903901
0.593995097986569
0.610057939905386
0.60277861570488
0.606355480359441
0.611148608298497
0.607756773902542
0.599054951413884
0.628860512165464
0.605236831782495
0.632049161088797
0.613863802110833
0.631741286931704
0.633235408071557
0.640014314373042
0.610197800663856
0.657257288912163
0.632628803432917
0.646896342133223
0.632252884128895
0.672279225316199
0.636975326274262
0.652172309361646
0.616293336601158
0.649559787919623
0.629813353348894
0.635226213330251
0.633961798992403
0.659530390845636
0.613461942542288
0.640141430330828
0.611650046481874
0.641912266416605
0.628340728721353
0.648377287884295
0.635175915203925
0.643985614919649
0.619684155503694
0.635133896571096
0.625628997625764
0.640772906489862
0.629056917978211
0.638229416681972
0.610070606197568
0.657015901466874
0.616713619137793
0.642195043596871
0.641780032425452
0.654592165441624
0.630438888042067
0.647456229380936
0.63381474380275
0.660603979827933
0.640027762431943
0.638774283787166
0.628163986801828
0.653941315773265
0.627407430293013
0.638921960083327
0.62996587626423
0.648177813357102
0.637925763397761
0.658011838438919
0.620099082120274
0.64025501411852
0.633226443525318
0.639513354580288
0.623135226531728
0.642013942272553
0.607207646848105
0.643223720649067
0.616795883327812
0.631285113545976
0.609909270039095
0.626620096216405
0.608902773484116
0.631031939611475
0.599796018880898
0.618012348201345
0.607455468487514
0.630768742953172
0.585230480463369
0.598469051622143
0.588743770547803
0.604535181324613
0.577495334220757
0.597247818836972
0.566121070382673
0.589957617390798
0.561773929589508
0.569117809944654
0.558427973825003
0.568928463721369
0.540198722407865
0.572484875938266
0.557415712775064
0.560420370802776
0.531977491695077
0.556613225708131
0.510337173639688
0.536426094498413
0.510903782934895
0.534944266811971
0.495737015026236
0.515877348215912
0.502813647052525
0.511063110077213
0.501947554668866
0.511017995670555
0.502432512187346
0.495768814243732
0.489935596530853
0.490232020726808
0.467310105269317
0.487023809288118
0.477427689044644
0.482436991108275
0.472481746497751
0.483306177844644
0.47309268532666
0.463881869947534
0.46077485535891
0.47220978100026
0.460445434809437
0.466950233730707
0.444602410627636
0.466803343051995
0.442347269992811
0.45336014063402
0.440431949912303
0.457265317118641
0.426880394737272
0.442522549520626
0.42695699227198
0.444025163889851
0.424031563465506
0.438780986661643
0.425093020456298
0.44295811279495
0.414956510931139
0.429621966523995
0.418234733788774
0.428239220114209
0.418175374435179
0.431304784857623
0.410110733574826
0.427705204050232
0.397859549455344
0.411847067185505
0.40310469817412
0.410020438978179
0.401402706291096
0.410998228217428
0.397950992045599
0.413720426857938
0.392216865746571
0.405469603560625
0.39460800709621
0.403714112666899
0.390608436808667
0.407110784973433
0.390787674522939
0.400570430466348
0.380924669807224
0.397921322952133
0.371201327758901
0.391679991436669
0.389409678846742
0.391194039609843
0.380906623827588
0.380207660495042
0.382565729958594
0.384853461939635
0.36832336060374
0.380582544935418
0.37358566064574
0.382402044531335
0.371102890411675
0.372977793512083
0.373482794097684
0.373428136043459
0.361275175598613
0.372720936996104
0.359660122151095
0.373043875880611
0.365943771815322
0.372667031709689
0.364277697001875
0.358860502748476
0.356280881377894
0.364532181948091
0.354309533437253
0.369414707008517
0.357665427581838
0.366348830096602
0.35323031557342
0.36260883146185
0.350710257352958
0.356616707982175
0.356699492524735
0.359341775972614
0.34901226266499
0.360378552302194
0.347433270613911
0.353141284230365
0.349589543187563
0.35710215659313
0.345643167520374
0.358511804261529
0.344530405724181
0.361253812857383
0.343291534669456
0.355944046700998
0.340012888943836
0.345737981583212
0.337652083360559
0.352886897405129
0.339828278092415
0.340230619217995
0.350355104188844
0.348573659606281
0.340051489464892
0.351990805633272
0.337364331707775
0.344581510751411
0.339622632631765
0.338551137529372
0.337436171446705
0.34870210394125
0.333500437103457
0.343853330862457
0.328692652379191
0.338501066843679
0.333631345342516
0.345891553057322
0.321482814530084
0.34234527851527
0.330558191772288
0.337078330143721
0.327678900182467
0.34200268530717
0.321912270152205
0.337392049060855
0.327199937637428
0.337745194783525
0.329179109100504
0.335618971408574
0.316889559549284
0.332993343717568
0.320540049090251
0.330388659653411
0.321505556856918
0.326294422243818
0.324817352955573
0.331207506741431
0.31395506662809
0.331798307616678
0.315304877382924
0.327037469811307
0.316385061580944
0.328535214100026
0.316559571056244
0.32044136868241
0.313163230223757
0.322743058686919
0.30808553587899
0.319634511816217
0.315731422678165
0.31671530968521
0.311188783204289
0.315630731300682
0.307773650057766
0.312298494272121
0.305793866535647
0.321561682430931
0.298856131707227
0.314449011321825
0.304145533478898
0.318849357642841
0.311385111568782
0.314837500364207
0.298678636434969
0.302492840346519
0.30364029165175
0.313531810740958
0.294727204645023
0.312854992261501
0.295420159548911
0.307268527845666
0.292434795497925
0.304725761988022
0.293876895510357
0.306512419048751
0.289774409368416
0.300515150666275
0.289654832431868
0.304673773030061
0.288728217079659
0.293432012890317
0.284299113006975
0.294878681612163
0.288018912305981
0.294606797884458
0.279980104546989
0.289344518347042
0.284896418940519
0.286838226617502
0.278559664033045
0.286995571817017
0.273400338480326
0.28476550001905
0.274000271416304
0.285675729234738
0.275496968448205
0.276456537019517
0.26612558639927
0.274832448118305
0.276984001057137
0.275456194555034
0.27308655857214
0.273606324393459
0.263807439273666
0.275105178779377
0.262511837126872
0.274845880938202
0.26085670220512
0.27037779986933
0.257649797934942
0.265207693016936
0.259852828977226
0.26644166280742
0.254383666009454
0.265972565551215
0.253787174543866
0.269269486961452
0.258686490629848
0.256409047434237
0.248177216015926
0.258044810169507
0.248757229330209
0.259777943880988
0.244162938930101
0.257242509514703
0.243351860287397
0.25550289878357
0.247524167181636
0.249728488924585
0.242463145732557
0.252032003832539
0.242232124267745
0.248644678785468
0.234926435910331
0.247229808987235
0.245224840330485
0.246615417618416
0.242921429796887
0.241718272465981
0.235857327637566
0.242756793738567
0.236341977794961
0.240395629184098
0.231924398025117
0.239301716029584
0.231814350534804
0.237351867483685
0.228518403768827
0.230575667401829
0.227974260705322
0.235406126707288
0.228696074108563
0.230740584256084
0.228822764572119
0.232271227849049
0.227034089783573
0.230328828373411
0.221441238163185
0.232271163516586
0.225709348736653
0.228547806663139
0.221111737241608
0.22742888863286
0.219827714299728
0.227576989617839
0.218372875262093
0.223201731499607
0.218217264889713
0.220926346259273
0.217714744541091
0.221502721157999
0.20908787279903
0.221150169360451
0.208102038685166
0.214362293189954
0.216330750885132
0.218222648913222
0.211516589494343
0.219726153063851
0.210497125840909
0.21445329109326
0.211541243758594
0.215228171953913
0.208958780665888
0.214779253400004
0.208736576207606
0.215398322689342
0.211653476648537
0.217622719063314
0.205890053785605
0.212236816571943
0.207981421729525
0.212091811473586
0.205997442861566
0.209660839315362
0.203142525644519
0.208561502736385
0.204210620315568
0.203084690500618
0.202104295893483
0.209643017702328
0.204362921924936
0.204703791109057
0.202021285553255
0.20479051435214
0.204420917161125
0.204309720104328
0.20314611528693
0.205707474579005
0.198981042416727
0.205658797576819
0.195251976994509
0.199303118617214
0.199046329531718
0.201509654443272
0.196066018660231
0.198065078542376
0.194371760009094
0.196607441155857
0.192485972184378
0.200560668552743
0.192952420336798
0.198732899054413
0.195837688989005
0.194496324631361
0.192647959513594
0.197440370047125
0.192708614744212
0.195195627235654
0.188392600495335
0.196744581581033
0.191214016171131
0.192687477722631
0.184073417446686
0.18820259331934
0.187775886883499
0.192852363593692
0.183872540454177
0.190416026953717
0.189965285326169
0.186288585599148
0.180487385995402
0.190134182952024
0.183903943868945
0.188416518091314
0.186910473441006
0.186076101777201
0.185058553021
0.188221303869874
0.18193658345266
0.185141350514322
0.1826979486987
0.188066088230288
0.179303115657334
0.188248918794783
0.180658149655535
0.186304596826349
0.178171395589393
0.183323887089933
0.179037532390524
0.179524290148675
0.178335862604579
0.181796206946052
0.176731630904625
0.178880985708382
0.175657659710242
0.180383679511746
0.178542182947004
0.179633632053696
0.178301261962806
0.174796789311239
0.177315373508662
0.176875402397059
0.173628066834447
0.177390648079788
0.170684587457687
0.174988650070951
0.167728689224253
0.171401740234962
0.170581420789064
0.175606504181882
0.169117869063657
0.170575381648129
0.16987103427001
0.172316504360433
0.166669565514874
0.171574753181842
0.164091014378866
0.166789556038744
0.166521785067183
0.167366081768525
0.1645858066421
0.163576887582159
0.156525243945457
0.162566231586574
0.163999333093394
0.158923530912186
0.158020856424627
0.160476702821705
0.15931199404235
0.160442956535632
0.15423427457122
0.159903985173838
0.153701022568976
0.158181707640903
0.156479481929599
0.155531876672695
0.15118730650127
0.156233895890462
0.154156306502204
0.157527671101711
0.151039347885693
0.155069688545094
0.151245051302321
0.149821080009791
0.147177509433292
0.150990296236666
0.153005079967358
0.154209621267499
0.145288942440801
0.146636643195797
0.145662741843514
0.146915036662024
0.142885595877345
0.143206520640193
0.144598924227806
0.146891298094251
0.144578463018686
0.144154297126148
0.138725084509861
0.140051092791762
0.140074085556038
0.141962629149251
0.137452990289302
0.141982305160111
0.139264445563268
0.141418579342842
0.137000005330516
0.13732809777804
0.137802552464895
0.14132972378919
0.135333519631384
0.13369905723051
0.134389491014717
0.136314750714629
0.131687240415591
0.135053298937423
0.131903038020815
0.132189770169753
0.130172983320928
0.130560781832702
0.130461838170125
0.132038273701185
0.126747774953536
0.125273269155945
0.127407003081978
0.130710419745586
0.127790517018749
0.126840362536622
0.124751826632218
0.12806482919563
0.125405244692492
0.124597001141735
0.125716861798582
0.123082236336645
0.123686807563926
0.125106973912002
0.122084551748555
0.122439612497234
0.122543145388548
0.123492111783761
0.123138646126404
0.126411441094495
0.12024239453339
0.11896440429534
0.120472441244975
0.121346830877789
0.122341401065754
0.120667754618084
0.117605655797588
0.119740848311655
0.119526560260426
0.121748110983059
0.120774583552355
0.119070673070749
0.118853473081205
0.117611086944208
0.12229466596903
0.120636279497086
0.116668141226607
0.115718898107062
0.11392187448266
0.115455998191457
0.113671654262737
0.11297363864239
0.110761504718797
0.111373198765527
0.11242233045385
0.12006930557453
0.119722964977537
0.114791087906656
0.115075146802261
0.1069689296297
0.110722409534093
0.11723011194537
0.115327486533683
0.108976422150636
0.116925750535001
0.117918952097193
0.115491088101933
0.116336525081379
0.113231038200577
0.122315598779117
0.117998109043718
0.108701314494563
0.116070395085996
0.110223372325976
0.120028164453554
0.114568502518158
0.117074924138087
0.114378165342392
0.109847358320305
0.100340360695766
0.113572732714901
0.10981525220788
0.115225653760173
0.107032197898277
0.118901475887768
0.101764061865666
0.119124674493776
0.105639629731518
0.124143722209771
0.100659073960437
0.122286533130033
0.0945617316735538
0.123865239440017
0.105173257052235
0.133334996568584
0.0925119962148167
0.123247558847511
0.0861392157262041
0.125556616498291
0.0910239514558528
0.136747895824673
0.0861275983026151
0.123699274042179
0.0774536570801913
0.134586478549288
0.0960633592825919
0.122657741875874
0.0759532019924037
0.126388749963836
0.0940531047760716
0.110636155729767
0.0955313323283862
0.107056542874413
0.106589765594861
0.0933769778236848
0.118210011901902
0.0915382100425833
0.115712379265606
0.0896372381221288
0.122281858089287
0.0911660348817685
0.110791958188708
0.0961926079674342
0.107993506410834
0.0946359764707011
0.104154276545257
0.102003775467135
0.100712163202593
0.0988932488914211
0.0982279582415788
0.0996173282171033
0.101024508716163
0.0951432450473489
0.103534534523642
0.0949266551445668
0.103229653504412
0.0954633297812688
0.102482561039311
0.0966606147519764
0.0998199828004127
0.0981769905832553
0.10096909067282
0.095447379134486
0.0962027060869475
0.0960322304938117
0.102305380655797
0.0966193429877861
0.0976700240662094
0.0932658949050972
0.101559218462253
0.0962327637363393
0.101384341586728
0.0944503221490944
0.100216059774898
0.0976007915145568
0.097383778380546
0.0980684137775501
0.0984618691327779
0.09505651973321
0.0988947689111577
0.0973412273474317
0.100527763001929
0.0953343678642313
0.0984099303108581
0.0970048179935908
0.102913608686759
0.0964676605790655
0.0975343562036606
0.0945709668178755
0.100575495854305
0.0938867304789358
0.0982906216936394
0.0957904259799775
0.0982670429028422
0.0965183363171092
0.0957958164552168
0.0963259012107025
0.0982435586783455
0.0956758198189546
0.0999789264817229
0.0975167144515742
0.0995554696463033
0.0946366335248548
0.0999095366275181
0.0979435186972015
0.0992821654721117
0.0971638489855607
0.0994816920896149
0.0931362829156678
0.0950239773322077
0.0951246042116844
0.0982785719441096
0.0955484741032614
0.0979738153214739
0.0939511462798207
0.0970241480797186
0.0971609038322256
0.100421976209586
0.0962625115194931
0.0987409504461301
0.0942400806586071
0.0961082247197508
0.0962956285665593
0.100208186600147
0.0960017914615277
0.0996676002818746
0.0946603403641345
0.0986517472414023
0.0952313453381633
0.0990465267769356
0.0995899657660163
0.0954790813806265
0.097528777146512
0.103926161098854
0.0970803070078573
0.101126314538526
0.0987937620067888
0.0982165197798486
0.100608879375734
0.102804429639261
0.0985477293308366
0.0997246161745086
0.0965777747024732
0.0989306732037296
0.0976805132181681
0.0979734375260265
0.0958546259853206
0.0995860018382733
0.0986681548338902
0.100886895776478
0.0988136387530059
0.102895114130615
0.101493945255023
0.0991682791779227
0.0994481014702708
0.100505899404601
0.097542764658069
0.101083657742906
0.0999003285241492
0.101107269477257
0.10034764040164
0.101744541687301
0.0998052991147927
0.100409486869704
0.1006750306098
0.10241393300863
0.100503821682092
0.103161396323128
0.101746580492076
0.102853615140291
0.0998531336355641
0.101483829685524
0.101031492405204
0.104455277637388
0.101837810734356
0.10027524571664
0.0994729340833266
0.103084910178716
0.102701336857433
0.10448252124118
0.100763417603385
0.104344883323993
0.10213001698171
0.102451570510375
0.102174896972474
0.101538152960541
0.103136275378577
0.107794814175109
0.101955759490617
0.101733707871512
0.103436391543884
0.104917182381699
0.106125370620784
0.104619969403396
0.103149875811362
0.103273836138559
0.102942329065805
0.104065851103207
0.107463248179863
0.10586468249004
0.103358731007337
0.107901522827899
0.108203840689793
0.103879463300525
0.104148505332242
0.106394986027084
0.106149764720213
0.106477383676564
0.107316814007505
0.104117843219469
0.10292199407104
0.105270514520417
0.106874003997074
0.106774083888626
0.106431816213871
0.109658117404226
0.106609880349293
0.107881053991603
0.105051222658119
0.102022488906298
0.105913957575054
0.103276907173649
0.103262575035908
0.10414452965889
0.104761146243948
0.104810757451829
0.10374981482286
0.101639212685714
0.102185911849587
0.102329870869033
0.102214200644169
0.103653876146426
0.103528622120615
0.101462612422759
0.102187166415518
0.103143123956452
0.103831205561712
0.101191638696553
0.101454152557418
0.102878581314084
0.0986267469715105
0.0998682143866799
0.0998104318185605
0.100544235399905
0.100224129498181
0.0984976735789671
0.0985329280776705
0.100056496627032
0.101654924880572
0.103388642307283
0.101139064332299
0.101601053040201
0.101034637082448
0.0982184185850378
0.0979717454124831
0.100037147350569
0.10124713420345
0.0995518962130478
0.0985708956367174
0.0997890742513147
0.0987715575349314
0.0957146348795302
0.0972117816908601
0.0983828284674158
0.0987165640215828
0.0983146027352719
0.0997092226610623
0.0975438299332533
0.10156857643383
0.101349876498187
0.0982363882138698
0.098623001744322
0.0955801113285701
0.0967791957764893
0.098626349986821
0.0971230349612343
0.0945331057770751
0.0948615173774984
0.0974145092922146
0.0977029791250009
0.0965479650881731
0.095362894472683
0.0976425955292418
0.0979016203500555
0.0947628873160748
0.0987675882295068
0.0986962028235006
0.099889450447233
0.0980381265882668
0.0975575920899488
0.0946173349517012
0.0947185950147877
0.0991637503170165
0.0944281548865137
0.0991274084213096
0.0956054047535598
0.0931845945382004
0.0939672882350145
0.0975214710618549
0.0960849399861992
0.0969665679378081
0.0946244446396241
0.0986325899177246
0.0970721662176293
0.0979234982345267
0.0945272116131225
0.094885212817731
0.095357190105333
0.094916910213828
0.0963096367191066
0.0924261601955428
0.0928501740600981
0.0965306413109442
0.0926192396306674
0.0938037842494627
0.0951210318118552
0.0950775195506655
0.0940535505739562
0.096556541363449
0.0966702644747592
0.0907833759348421
0.0917317385180151
0.0946902207040685
0.0950875138383304
0.0924463637997833
0.0924444873090973
0.094039325002581
0.0950588144472412
0.091449863935098
0.0928041782137821
0.0923652057454893
0.0931612909730469
0.0924459071063139
0.089716549638621
0.0886715365213405
0.0892474789520194
0.0929881470857629
0.0897981090309193
0.0870693464420937
0.0901679048423452
0.090801317658678
0.0893543934760861
0.0909588244302984
0.0885243249416285
0.0904967259858291
0.088738189122207
0.0860992451741507
0.087401912339423
0.0855122818864341
0.0884908557611344
0.0853958259873071
0.083897198235144
0.0859589789752773
0.0851732247961426
0.0921949359335814
0.0860104717838864
0.0884755309400875
0.0855582779388643
0.0855558297083523
0.0827149607512841
0.0832565079133917
0.0824711479451398
0.0851004275000443
0.0792067740656824
0.0839788441056995
0.0811689092955895
0.0880559409740481
0.0824651812242343
0.0842951973404848
0.0811962307817549
0.0828126749055017
0.0799249724483994
0.0806545559793711
0.0809325422199761
0.0829634753342114
0.0804149692794237
0.0841620933706352
0.0764783952509418
0.0817171340640352
0.0757426149870399
0.0836596415991753
0.0778783231387224
0.0824047556114595
0.0783489243083625
0.0812437626864281
0.0811140513454053
0.0774319977250722
0.0739775060632041
0.0764922574172384
0.0768737685832661
0.0800971589872183
0.0757424627884959
0.0771811807186693
0.0771962631464966
0.0775404001532614
0.0765647678376784
0.0767777376224153
0.0771898513076668
0.0768609372198277
0.0764546694912562
0.0785803004895836
0.074757352896192
0.0766438913909599
0.0758318626011191
0.0780078173971187
0.0730905927732609
0.0743190409946311
0.0800348479566351
0.0768511248880098
0.0758164504740691
0.0744230483522679
0.0778132585891557
0.0745120809206922
0.0755088449319877
0.0759941787444324
0.0756410467586077
0.075838732508676
0.0777931035616682
0.0755735852977566
0.07208895564846
0.0739695264902021
0.0720171138267076
0.0741810769238065
0.0746188968205418
0.0702537580681672
0.0745676306647062
0.0710997383615607
0.0734543645216721
0.0706453344705261
0.0742568507036371
0.0660654586014648
0.0770489016488854
0.0693636547028528
0.0733890634687002
0.0819096278338383
0.074277855774027
0.074820784379012
0.0691733406753792
0.0734920398376107
0.0680625878646514
0.0736261821890033
0.0712133194256243
0.0753514155557984
0.0711939603522923
0.0709231401270815
0.0670604314058121
0.0698066849397186
0.0686492924726431
0.0717576125062957
0.0669075413926226
0.0721425429611977
0.0681468028436038
0.0741507360600133
0.0683413506738627
0.0755619396175857
0.0775882390550094
0.0728876024977454
0.0714058954420441
0.0727571726998162
0.0579864390017299
0.0880599761633356
0.0701338626950871
0.077286833488249
0.0650386404761011
0.0752780915189747
0.0658520626662064
0.0766936708231623
0.0665877904955859
0.0758897372743168
0.0744038171294399
0.0706408568790699
0.073214040055331
0.0697903205426001
0.0683936904996201
0.0700580813068624
0.0672785615305867
0.0680965257631437
0.0694820941222865
0.0699729168714054
0.0691447280780088
0.0741229658007482
0.0644946045723436
0.075360849300298
0.0642488312581234
0.0689707759386739
0.0738571205205519
0.0744532719140883
0.0679496098998453
0.0754916777526772
0.0648783575972422
0.0716665701942573
0.0837631661629091
0.0699545098087334
0.0761837877889565
0.0638770570169653
0.0724009969866821
0.0693022023590917
0.0702224287459954
0.0674086125478342
0.0720147062416358
0.0691624902705741
0.0726218394427979
0.0675563366144494
0.0709601877886089
0.071530599340601
0.0705214305396536
0.0725928924823807
0.0684191216614823
0.072406605487262
0.0684693409669834
0.0745599660996213
0.0590922059813175
0.0715897803459692
0.0780285020750132
0.0799392456113195
0.0769364015111755
0.0730039505247788
0.0707086725092698
0.071001520253878
0.0727241574548687
0.0675016496645731
0.0731029352699501
0.0708190183870537
0.0729168373706362
0.0713472566847047
0.0713474070988168
0.0679775408572774
0.0730421194002968
0.0651787757454479
0.0731909626301836
0.0679185400119091
0.0755322035203561
0.0662245273536267
0.0776629942881067
0.0614894910418719
0.0818679030930614
0.0660628750693776
0.082192422423297
0.0440517276437741
0.0951532818946253
0.0831277051787574
0.0733420219987142
0.08135917441894
0.0700800961351254
0.0755609437558754
0.0686327442314231
0.0730038823168815
0.0780873180468159
0.0756381880073562
0.071081892565155
0.0737999808051559
0.0737204967951559
0.0803948005171492
0.0657825625894142
0.0640890720531665
0.0962618400686822
0.0747605449455124
0.0836114183396392
0.0715893927772484
0.0643976939314391
0.0965803518040484
0.0733031814617882
0.0844789811761447
0.0736833091640825
0.0796219435162623
0.0762434921444756
0.0824999085618927
0.0694401549805136
0.0805964052115282
0.0767737566778173
0.0748300176482663
0.0788083804787758
0.0734326589873165
0.0806424916710495
0.0748364817807772
0.0809727630483812
0.0880777105283812
0.0732518398129598
0.0851463683595802
0.0807203454334247
0.0798331206767706
0.0793176941345012
0.0841611056239509
0.073437542693342
0.0816696112477072
0.0893364503973138
0.0751640734247175
0.0890938128458698
0.091118770525055
0.0780728485079646
0.086974319491924
0.0778213089305037
0.0966531849167061
0.0719791676517641
0.0760625760126529
0.10279163946145
0.0776269041547123
0.109459128765319
0.0737410735319371
0.0962537953884457
0.0739478014481827
0.0977797958792661
0.0646650728776244
0.106891570861304
0.0776145784612891
0.0980272312075431
0.0752997453713884
0.0939532695163026
0.0859433535729774
0.0960279372602377
0.0936686018859719
0.0901869004249529
0.0789669036697748
0.0951446372916907
0.0929658081893484
0.061793765194884
0.118224190440954
0.0973128416543688
0.1085612344596
0.0992024806887572
0.0730107275480713
0.12892358774418
0.090817950014575
0.101471853722782
0.0886769755249083
0.104478131704465
0.0926844156651817
0.0802936300972765
0.116839718844695
0.0994929605083386
0.0932819606166219
0.109482092882749
0.081299555930313
0.11647963782627
0.104116939283266
0.105127113068578
0.0961046666395801
0.113382814653558
0.0711531383102537
0.136812878743923
0.110541872011261
0.100939046656991
0.125751777636548
0.10515157679859
0.124140069193361
0.107001336146533
0.11721251103242
0.107872066768016
0.129997427948401
0.116794122273024
0.107960707842704
0.108943036423122
0.147079844691322
0.106992933493369
0.1408572733252
0.115605653077453
0.10974959248985
0.116286425191863
0.169943578211213
0.146367353132947
0.143907268579349
0.115570887541223
0.155035162724369
0.134474215492942
0.142253521043041
0.133400616239355
0.138224434778098
0.141789166746226
0.138666344931357
0.153881063610169
0.14409773058358
0.146031022489265
0.154646418076076
0.135419995386571
0.151825383596791
0.155501477335862
0.196978541303656
0.135498737362936
0.199495915340172
0.164883613216109
0.168618494202593
0.163367300763896
0.166370858515518
0.168760404317718
0.173920950029216
0.176990958909967
0.160358644335206
0.187057351977493
0.185389133416974
0.161594845084262
0.21538639427748
0.170477321080593
0.200112244825127
0.084956749064423
0.373819308921766
0.200671786628186
0.226845826401044
0.201165803213804
0.173306016971649
0.280959526739988
0.232701862010456
0.235298211735781
0.241952072261265
0.237723413640989
0.24858846126414
0.260293450745256
0.260576731217195
0.272130619077989
0.286218313785713
0.269419980235204
0.263758573490319
0.325235630541602
0.337621491536286
0.338185118866709
0.308776194544645
0.333931849419501
0.355105503401625
0.335890151003966
0.349881043671773
0.352169948182852
0.321800006216696
0.44098045627248
0.375858288306753
0.402153303288576
0.369581171575133
0.445853552669635
0.378779132846145
0.458891896113027
0.462309368679606
0.43675273651537
0.458744904154786
0.443533530856449
0.486005830783066
0.449518752022291
0.51684702345285
0.498520763893063
0.492470578758734
0.513740191829319
0.511170921292801
0.516758131110488
0.515214215063207
0.539717241523223
0.516748540672517
0.555345577450742
0.517178065464815
0.663458601826539
0.601215359550314
0.531720477867559
0.580313828043462
0.506217319407052
0.584825826921016
0.54368390283561
0.568426973191928
0.593628619464088
0.55143245371505
0.563850532930994
0.569164335611774
0.576885865180597
0.557876597120327
0.576526611411303
0.541850302385529
0.581696539131744
0.569149687285027
0.504445425089528
0.670331987362677
0.562301688408589
0.589257235514325
0.565998922115465
0.57314503549091
0.559924877027441
0.569073629365727
0.541197028978445
0.592174855397918
0.542615466198773
0.574837590915963
0.533092667239724
0.558954590177347
0.583994673007663
0.549163394357911
0.538637886336016
0.53521527749217
0.538426466341787
0.527649942336117
0.481659833570153
0.611073026555722
0.517367514392251
0.536204826785098
0.524223583973906
0.533494522020143
0.51242263632717
0.5092327371502
0.512405594638274
0.534740809793721
0.500926326055335
0.52264625923192
0.502634690866515
0.510079380977586
0.502192087332943
0.513765589777208
0.509502215780129
0.501080396531073
0.497868995010491
0.496751213746593
0.498758618048244
0.512003996299074
0.49472782907518
0.499591435682438
0.49649236262684
0.502271552816734
0.486907797105692
0.500194485047664
0.505285277772883
0.499266270683793
0.485018451687073
0.495530778152375
0.487298447610643
0.486152425894522
0.484657811606878
0.485514568921027
0.489254122081659
0.487695118778351
0.484896282844171
0.484835300889678
0.482306314178063
0.469997978160623
0.481516512796324
0.442997315281334
0.499736217606061
0.521425959189832
0.448431909844494
0.485340508953307
0.439968183454169
0.471432806182924
0.425620789580326
0.475164513490436
0.471066170612331
0.442338802588932
0.44388080660992
0.434384060517372
0.424043300867964
0.460614033234541
0.413748657766255
0.434722170733395
0.401142873142944
0.401709899242783
0.47031735934517
0.378713906380401
0.519876071080687
0.420355468349003
0.413389098466519
0.362419689516859
0.456105103943638
0.394638342189991
0.406849282447233
0.391377505766926
0.395857238578074
0.415882219474808
0.371992541140418
0.391790171998862
0.365919179615648
0.368344888714573
0.403742614092822
0.371254736477794
0.353242767280508
0.422388057225897
0.360560155626415
0.383041607831567
0.416519422154631
0.398553457740526
0.361564926537038
0.355130412747597
0.360248849567025
0.322920402978269
0.378901470580978
0.356924388014142
0.347542641744435
0.352067903647447
0.324737802356842
0.34912050761203
0.32513398460904
0.35996242032406
0.295363424269487
0.3700310997419
0.321028701878734
0.317925802301934
0.336638568651082
0.316734874963957
0.370038518180972
0.327077730262168
0.310087550727475
0.29583169432297
0.364255900168706
0.313833998005866
0.329751216488166
0.314365211197653
0.284147176513044
0.334057676555268
0.305264728663349
0.294921471724465
0.317067911653527
0.286545265558118
0.334914530163488
0.329995244297006
0.331094841350936
0.315487545477189
0.292441061615285
0.302092116133043
0.297157941291088
0.308066171974686
0.291509591566413
0.269971648233064
0.338213796145176
0.268527513742362
0.348241484488775
0.315880050201859
0.30950029852488
0.312495053163947
0.310808906502503
0.310539054255365
0.333017025682478
0.3393032056755
0.344878220625479
0.302953519844994
0.358111511756691
0.330565752121792
0.349257213100353
0.339682270675478
0.357763206348351
0.343453997081282
0.365716938219594
0.370175065975394
0.376784918093498
0.377988674738645
0.395408348290983
0.372233805414456
0.446653717806422
0.390699803140325
0.413369559204038
0.440211508787158
0.440758263449626
0.468389406354154
0.436149471931361
0.464487280959414
0.456096439994367
0.470926292517688
0.481843713296936
0.455604535218375
0.519506650726031
0.497712166186552
0.500007481445932
0.504852747316606
0.511632193663623
0.515489878576673
0.522279876676903
0.540998681548593
0.503588727665943
0.610440909639336
0.526199734222823
0.558422321536419
0.539736415578527
0.55348687828801
0.563257546197378
0.549494781322635
0.554872753866103
0.541648887036716
0.577354549167594
0.573518224974134
0.568733894747133
0.580024472605074
0.565598227756597
0.570623180866728
0.569159255508585
0.583949400561382
0.584084830433467
0.587061337779574
0.60525251582932
0.570671359994548
0.641326545372989
0.629153375684886
0.593434128095125
0.635843224966147
0.608726020442221
0.639164296278802
0.618580388257232
0.630221507425663
0.651877017717787
0.648481040189929
0.657568752599778
0.656052747146992
0.663361170092586
0.658949502033941
0.690912704263415
0.684055408779158
0.668269157665476
0.679975054966103
0.595550680208697
0.762751743749864
0.67988990031576
0.710135361649687
0.701361964995856
0.71304999270064
0.700139525941076
0.699715810008097
0.705142203860086
0.726033274683224
0.716312536818673
0.718134920097051
0.716374717173271
0.708581905898086
0.716777663030718
0.706024940613995
0.721960349332442
0.733332793801274
0.707228150304644
0.707611553405645
0.704979084605401
0.715572088961013
0.705916527040119
0.744793733604174
0.709828320701067
0.710629792143318
0.708709157945572
0.732858122283311
0.725706479259426
0.718020005302664
0.713935288618334
0.725914066035847
0.703952743306703
0.728790104413929
0.701837526759546
0.755389128638367
0.733500366553876
0.728265958722186
0.73025302279829
0.741819882659818
0.740025200808217
0.741931248532424
0.744465385293634
0.750493133982842
0.742836592181689
0.756475413943661
0.756761513866061
0.754173767224775
0.758556368567248
0.761288151614302
0.778163238988486
0.766352881674657
0.75947410038495
0.755857324397906
0.743201013102933
0.770894489939465
0.748612430642963
0.745031954332574
0.731511772626373
0.737230283321175
0.727597494969653
0.733676641801874
0.722269569682158
0.70534091559074
0.725844198619948
0.700164021974729
0.707910773137016
0.695954856222501
0.683854857722661
0.674844941798483
0.692102023103694
0.676342547509971
0.673617467223122
0.66532442763658
0.664675764573155
0.67078580945394
0.670436282912586
0.67087694564494
0.663375888462989
0.664264577666696
0.663554395920585
0.660376622879012
0.655136775826729
0.652869778016243
0.655631626718252
0.662980492917888
0.67292267437507
0.656759655716048
0.672951697369251
0.656536052741798
0.66856240611255
0.650725215806106
0.65337920876346
0.658287474815485
0.65679916859336
0.660899571225784
0.656095218521516
0.655828231159393
0.651110576239966
0.652519356272462
0.649013808723339
0.65187909666499
0.649418561203852
0.64032041266342
0.644037970179508
0.651357599436402
0.653494352572576
0.652660293496112
0.642266751067934
0.655811791671708
0.647719701834331
0.649126404126266
0.648100819221614
0.649709082572429
0.649774177464342
0.656559861891265
0.652318209112345
0.646860723595969
0.652140497798893
0.651356890739693
0.652920026772764
0.655727214217455
0.656067411570904
0.649842798772501
0.643262203399214
0.6483252636489
0.639767466678579
0.636211656352995
0.633354707791834
0.627317744809113
0.619987216420428
0.6259512437792
0.616871549616802
0.61428539653003
0.606292593487148
0.600847931021712
0.598395658678227
0.592111910052342
0.589741190017511
0.591489523304875
0.582242000403209
0.577279271848905
0.57405176700734
0.572690161919953
0.569277754786833
0.572627479266294
0.573438819928144
0.567137735061583
0.565145103954155
0.569227357951434
0.568913613570688
0.563964568577824
0.56263156972333
0.568860885252868
0.566888146287709
0.567088971586199
0.567819563946595
0.573215580586704
0.572619902911615
0.580465391136147
0.57603332340167
0.577818770435054
0.576690968488719
0.581654699507125
0.58957109171977
0.591612701463964
0.59672283313436
0.598401715657666
0.596947204687485
0.599906330522108
0.593853404930925
0.599689774254392
0.601468252620979
0.600521669271249
0.599768281810912
0.597731094920232
0.602870007631661
0.59984950340435
0.599634128257273
0.597469603193374
0.597304023105734
0.598436730654956
0.593555846587606
0.595420780057232
0.597264104716069
0.590729643735817
0.58604510504855
0.585334775038962
0.581172417685767
0.582388725499929
0.587274794004159
0.578952243743446
0.578670454997157
0.576368261361488
0.573051081003466
0.569209467783923
0.569395556548429
0.573690348630732
0.568948427777179
0.565571271062506
0.566230762482422
0.562338450364824
0.559180655017735
0.558433681734916
0.554331772186035
0.558504414155246
0.557034629900467
0.557837368886471
0.555414036697211
0.551196104347055
0.547396515812925
0.548122944146788
0.545328448713616
0.542592144986162
0.544149933511646
0.537702450748204
0.537584902795695
0.534610899388943
0.529210578238669
0.530212054845141
0.524609917100714
0.51958689852124
0.520138193500744
0.516142490556767
0.511200219366866
0.509349929133892
0.503536444853408
0.496505648435473
0.494981253017953
0.491383311249497
0.491332576260048
0.490834622507355
0.490579866715066
0.488767806575325
0.48985567326056
0.484291583853828
0.482622103953548
0.480703894035689
0.481523819132866
0.480441972540749
0.473079456733213
0.469285472460349
0.466571368466429
0.460911400821569
0.452788853401254
0.452030993932982
0.444775521886631
0.442340046683632
0.431151114129763
0.430273654214464
0.424294733597286
0.422686353358138
0.424502495516953
0.426889437089014
0.426951789608858
0.43824415355913
0.446033894866544
0.452458355729935
0.462437545589195
0.477979680322744
0.492277505982481
0.508215949962988
0.525883031637882
0.543660703620932
0.565413472855832
0.587253737688128
0.604523206419848
0.626414308047384
0.639494441305935
0.657925492460858
0.679480088177515
0.695915378816267
0.71546315769452
0.735396437727289
0.74680953875573
0.768730290681376
0.791952702918653
0.800839664153994
0.820161994436294
0.840630608045633
0.841688979663529
0.850163598238704
0.868173643304457
0.875516678522181
0.875830646218179
0.89943168068243
0.906954915253261
0.906539342833307
0.923664271111878
0.928396409014238
0.921599540562318
0.931702113399323
0.934217404004891
0.926227590947287
0.926823313005543
0.943373483847384
0.932702110929973
0.935493829571369
0.944859487595649
0.942605319828884
0.950132815375908
0.954437398113923
0.953162398687032
0.95498734718988
0.964425807000389
0.974639381535098
0.968414126946164
0.987710559615263
0.985097299266671
1.00348340498864
0.994832488702657
1.01632688600609
1.02530047344647
1.03297524086711
1.03461488132545
1.05856775115077
1.05114482270525
1.08765286016577
1.08646682343628
1.09994416207264
1.11010951481138
1.13296190694058
1.1433980354964
1.14589846041009
1.1730964434661
1.19953490008664
1.16559805565834
1.21570830306094
1.2009707201665
1.17219247366973
1.19568111957499
1.17608684871108
1.20101286902313
1.19212549262831
1.16704011332826
1.16512830240749
1.16421616123833
1.18044640051045
1.17644132617741
1.18329730587895
1.19286583303991
1.19070343157151
1.20956595177712
1.20905754939865
1.25841484402143
1.27935950996091
1.27587126271334
1.31131157360554
1.32979567973794
1.35279274099619
1.36273849786299
1.41163861314328
1.35128278019881
1.381441501671
1.43287389724374
1.42044617689123
1.45932748037049
1.4812478492247
1.46897968167606
1.59663357959956
1.52244494125796
1.58668771666327
1.55203985926784
1.66375864339066
1.65858132336459
1.7109286164647
1.66857188874196
1.75413891597687
1.79498571840434
1.74540693893148
1.76564699260095
1.91651130831304
1.82258888645033
1.92050599032251
1.8065227640992
1.87709855999645
2.14550321382819
1.97823091255261
1.91855245682299
2.08717202317687
2.12748655242636
2.02211748784527
1.99265072228269
1.93637687818483
1.94100396753686
1.92878477433522
1.95715364353034
1.90455829483338
1.94742336527805
1.96933788072434
1.87359957756545
2.0755132615569
1.9263782187442
1.99616927832268
2.00676754305124
2.22475372890716
2.05137239268272
2.01418770008081
2.13530244948138
2.18981238832228
2.03489247657192
2.0855706953752
2.36203740256665
2.30648076500367
2.29114766968068
1.98572263524464
2.35595121279253
2.24079537621269
2.05617583907598
2.21476931678316
2.59183431476242
2.44104638985733
2.29023101442367
3.23408592509711
2.52099526999114
2.85617402714761
2.36722916474072
2.2952669907905
2.46761780888184
5
2.02671332850338
3.27064080645408
2.06137479608745
2.57411794363167
2.62955198354545
2.65142431028544
1.92997969100104
2.22794337829759
2.34800708244564
2.22848772875127
2.43995980591916
2.4658177555754
2.2116979835272
2.91492511706892
2.25373372238814
2.71196431558834
2.19453841913166
5
2.09902248511498
2.0864384571647
2.00587576874158
2.26293929644778
2.00576868495291
2.36262913968281
2.02821783270775
2.06129325569046
1.96038395959473
1.96460070168649
1.8437841410319
2.04834669681366
1.84567110009392
1.72680614749425
1.72116765807071
1.833721156645
1.68595781994987
1.82589381072187
1.82031259375043
1.73457003848038
1.73846763158345
1.76459697991529
1.65169285533492
1.7894990309824
1.60216992594619
1.63578952646615
1.6486836341495
1.6410239822701
1.52653860024376
1.5618225504998
1.48626369278043
1.4986404176657
1.4881577161877
1.40392923090061
1.40591105067555
1.37135060273639
1.294549991555
1.25683818847359
1.18102246028618
1.19632868177013
1.08742737234701
1.05896247908631
1.00228219900643
0.995722110906567
0.932109877525294
0.887793169052654
0.847101928272818
0.816908680187025
0.794564862529008
0.781513787295326
0.743425749059928
0.728506730967366
0.701242532960751
0.689208773506348
0.666062165143058
0.659180806551202
0.650271697667891
0.646792224251144
0.630890701381396
0.637764094255772
0.62161283813672
0.633345271699917
0.626079878185347
0.618065306795636
0.623717878734823
0.627770274513437
0.619749043658527
0.63391594128115
0.624449213110866
0.631853737355003
0.623390145597143
0.635490909740801
0.606656172605766
0.620776849692043
0.607670053736819
0.608587145561765
0.603393887861149
0.603871180400821
0.594082511881725
0.593222363741322
0.591283227766903
0.581196220183835
0.572762392768639
0.571570490031535
0.570836853772739
0.56746106603278
0.572410515601361
0.576674197587451
0.564267896345187
0.577360063626842
0.578051919709966
0.582047416927905
0.582094036571399
0.581465205755928
0.581839848420279
0.592117008690344
0.595823721915107
0.610161046591096
0.595576748984463
0.619003702112121
0.612026516386268
0.616180347035124
0.611917365692726
0.620245832520847
0.633634904485592
0.629141887402412
0.619211587298168
0.637500013186468
0.622470864563208
0.613294578186131
0.637734910139416
0.634703785317778
0.648374292777709
0.630543994112998
0.635169888036585
0.657537494564298
0.665023676851287
0.68278276235328
0.695841173651368
0.700065894281528
0.71679889319221
0.742985740584374
0.752575342477977
0.789277256317333
0.801379342405214
0.800423238294292
0.829937256292505
0.833293788352258
0.842409593133974
0.860694298684271
0.798109292036335
0.821900244916762
0.810581670601607
0.791171564840237
0.780673490614036
0.774622337927017
0.763947218703958
0.766211745792838
0.72497629660155
0.732435033763127
0.746065893739649
0.766962915580431
0.748977736071215
0.749627187087074
0.733275007100773
0.753730042823328
0.718841950390369
0.73710809772975
0.731674292595425
0.75465561227507
0.738816945052963
0.751468319384105
0.716627231173002
0.711724779935344
0.691297168811377
0.715735065652792
0.686996027986908
0.683255568069274
0.675911732264175
0.680585208103319
0.668681962404794
0.678860564209904
0.653011331744713
0.668347119711321
0.636811660245454
0.656866013601761
0.650627869400151
0.630055821053831
0.651252741905083
0.647518705867755
0.639275773110646
0.641328113501942
0.616970721115361
0.627876416918319
0.603245385762928
0.605047752518552
0.60150728845526
0.598140630686992
0.598016588943007
0.612601603141988
0.603909279219447
0.59602234069395
0.591249472171293
0.595896408680885
0.580387247898064
0.57778396683397
0.565527076205061
0.572387334752546
0.572007142657405
0.574188870830656
0.56947875264531
0.570041876076589
0.570735060747407
0.560596079845541
0.556008770527677
0.562790147868604
0.564401407803572
0.552380741249574
0.54992329302503
0.570039089817762
0.556297440762705
0.586236873225384
0.570436312370666
0.573210429374762
0.581575275892503
0.572434113425839
0.559324936104188
0.562605470784166
0.571600155928953
0.569636262265464
0.58278300515852
0.598644086943436
0.582691719272399
0.597712702033904
0.58440814764935
0.600439181130588
0.57658539230512
0.603022380680894
0.597329240144955
0.635742350790372
0.602239168864283
0.611868207945865
0.629247338743326
0.638462008606675
0.625937330480703
0.663536936035836
0.65870818174347
0.660059703493585
0.656919770023953
0.715325126637175
0.704481058142337
0.765105812238033
0.738336053886272
0.787417177665626
0.786319712887545
0.873367045044227
0.823475351465863
0.853657918422423
0.816306591732254
0.95086161782227
0.885985267980902
0.953712324960119
0.886727858953218
0.998789588673759
0.933094196174599
1.00146274818278
0.896562388867479
0.986695793041895
0.870817300286095
0.991810898465149
0.898021571505814
0.936841597086967
0.964834556505203
0.94284285365951
0.921125618429461
0.951141298839678
0.983201591949902
1.02798413025709
0.927100054842484
0.996131186695032
0.932271385475807
0.899729802177242
0.973051159615786
0.904828155313754
0.931778327600432
0.928858320608625
0.935959038213448
0.980173987082752
0.878530973068459
0.971457344773556
0.862291526877122
0.854420114018104
0.837652080875472
0.893667839210707
0.837264824591736
1.01295165331896
0.792456832764127
0.942257084800874
0.7819429911573
0.845540273514583
0.887131955793582
0.867835041032171
0.836942213170311
0.922798290183412
0.797805978927234
0.94548899968389
0.832100098110525
0.88889048357775
0.89572659396461
0.858672900520983
0.85234932273383
0.945043749866011
0.870189839075834
0.885660408487595
0.804300898940184
0.833405025297888
0.776905641456166
0.884400471148139
0.772071700632803
0.940575910318276
0.810137365613925
1.05658984688849
0.875008548358278
0.900919860409715
0.888079487584914
0.9149002079448
0.921968682658604
1.00865171236371
0.83431714002388
0.885356802806217
0.8583055581197
1.11892635488005
0.843207653739651
1.03166701712287
0.825318235716022
1.02437256752367
1.02701383680551
1.00618359653184
0.956997442680734
1.06935535852435
1.00717372651369
1.36442725757383
0.982817339382022
1.04212960689312
0.952570249627007
1.38660913895298
1.12763729811078
1.08438779927996
1.07804616232561
1.70447878164647
1.13341194103072
1.24417714917312
1.19379630346971
1.42754497348956
1.16605426178738
1.18982612037862
0.991177316820719
1.27323636734499
1.01889467976018
1.24440133399948
1.2506475662754
1.4421135333552
1.00606857009877
1.05217428859992
1.19400716249643
1.09082046743618
0.806194333242171
1.19491575524514
0.891714414041517
1.18841611623779
1.14087973771653
1.5087184238696
0.933287541555544
0.942807035915326
0.961217156385604
0.975984222123032
0.93528743306949
2.03269466951965
0.803178576131837
5
5
1.33387566637857
1.46625869810297
1.12528971968532
0.974216464026851
3.30935133096043
5
5
0.942963975098847
5
0.957648291310766
5
5
5
0.75139211473373
0.751789464507949
1.30806599900145
5
1.12931808381073
1.13472173163306
1.03878861141618
5
1.20427128232493
0.878989243686537
1.55613881587964
5
0.840514528961712
0.938926564632428
0.815851129392838
