3596
4000.36533379555
650.420452594757
1
2
2
0.054139436463701
0.0430376995345867
0.0593832306477497
0.0449303052374317
0.0652732458325746
0.0515344007797356
0.0611452910218224
0.0429372375702648
0.0539747827781781
0.0415248948199403
0.0533956055283973
0.0439265508236711
0.0648790956543212
0.0354341442445549
0.05460580053652
0.034648238609542
0.0525990229593787
0.0367543044644215
0.0624223912269357
0.0484888690678315
0.0547056161330219
0.0453477250512185
0.0642526295655022
0.0361955435262652
0.0590946612566095
0.0519302765468943
0.047279445250537
0.0395098418233408
0.0642642337374761
0.0378299828346234
0.0515884343085556
0.0505428122491903
0.05824241314903
0.0429840450068469
0.0652214413188743
0.0420922705423461
0.0657892222338514
0.0370386070340047
0.0560051442756296
0.0362162439424009
0.060134533076153
0.0394755452942257
0.0571076761122062
0.0484910031384379
0.0594770985245522
0.0444771085737787
0.0546547428362289
0.0461984517130828
0.0600267583436895
0.043872544564698
0.0685455975824053
0.0281295909757945
0.0773438236106887
0.0457752502666366
0.0535199434066049
0.0524285993065167
0.0616235929105892
0.0472975135784132
0.053990245798703
0.0226825823345866
0.0669517869489707
0.0500247999006651
0.0522144585924232
0.0390157225293006
0.0600493454992157
0.0418135922303263
0.0612608312407014
0.0380080620258606
0.0452964538068251
0.0324451353000353
0.0441136039647272
0.0502965733652616
0.0762460293104106
0.0453459495546466
0.0590994932001308
0.0401013556699212
0.0610861092370456
0.0417852356927277
0.0460846922677448
0.0428323286624608
0.0593384431615911
0.0479157195000947
0.0523344400032802
0.0365663015496388
0.0452138287717564
0.0531887271068308
0.0429844148127351
0.0304764197355342
0.085202261291964
0.0530872706761525
0.0598576016130202
0.0408478035874552
0.0505967147087557
0.0378624615363398
0.0459862089581966
0.0409795779192341
0.0612304007978034
0.0321293405152057
0.0469142401139777
0.0296976383897008
0.0556209341802488
0.0186074495326793
0.0895305562503061
0.0210348360403577
0.0979693248779051
0.0427017544973728
0.0356246458937784
0.0581253643927931
0.0809284432635768
0.0404877901503819
0.0472671386964437
0.0337588631111676
0.0509305226235608
0.0406172483925752
0.0339782372698111
0.029183047233655
0.0847897878880552
0.0507366658187281
0.0524876309671408
0.0305272852972561
0.0158302423211782
0.0424916122736534
0.0831319639690183
0.0411099685893562
0.066360112469574
0.0341928204342349
0.0237885975160796
0.0640237791258909
0.0891947505981929
0.0407423155045744
0.0425879089108863
0.0327237856114674
0.043435786025513
-0.00149372289074376
0.0838554459132896
0.0454387196315004
0.0485884439137003
0.0234104665203979
0.0729324894956926
0.0825973412994674
0.0675751216444686
0.0423399157328219
0.02759748631917
0.0153200588230346
0.0861944000085245
0.0485160117357225
0.043667799315133
0.0377215186835983
0.0796370853874817
0.0293846038049847
0.0476774496072701
0.0163125228786849
0.063393141640678
0.0378790149586217
-0.0108580097426793
0.038457751689711
0.102454339213046
0.0549843975826526
0.102055988211694
0.0388973127303531
0.0654295635156507
0.0356889875144176
0.0522748962196864
0.0252221631557321
0.048289130680826
0.0253931225118973
0.0472917457241165
0.056433585761667
0.0413863343264358
0.0135740739845285
0.0783785048628204
0.0321569571802597
0.0324723682119411
0.0969934369776681
0.0634914953838029
0.00209652144469869
0.0731695780354665
0.0398378420970819
0.0268638504941329
0.0226571650078928
0.0762065557904994
0.0502701604676557
0.0463444674477206
0.0187147837396119
0.0466974717686686
0.0485664201597687
0.0544593164727429
0.0387501318475113
0.0535306057179612
-0.00686636641636889
0.0415067090771459
0.0785318872998258
0.0910392544581053
0.0394544384415402
0.0543846201211607
-0.0189663322765398
0.069566931853121
0.0591590356267061
0.0497452397787778
0.0328204185383978
0.0458777585969164
0.0276540390121396
0.0375996856643513
0.0383124253417254
0.0378555963569878
-0.0114993242593199
0.0903518846964268
0.0608442229647535
0.0492191260947251
0.0273766674239097
0.0381075514916472
0.00177767138380827
0.0996342614827071
0.0681987703450818
0.0538783887834481
0.0309653759928096
0.0334581427255727
0.0328799995596849
0.0789897316124503
0.0351364141445094
0.0572378885239384
0.0331569263966186
0.0582445080013368
0.0225807450963935
0.0475644661487482
0.032900318498407
0.0537785731833796
0.0348741431520968
0.0449172763704853
0.0421983815927328
0.0590466147714216
0.0402742517871231
0.0566252065921887
0.0323328029158097
0.0284988638967674
0.0307961595945112
0.0713231084556858
0.040738828094889
0.0469281150881962
0.0339436888207124
0.0420488719530235
0.0301097196609591
0.0509353517748605
0.0378806595561402
0.0397608321090548
0.00113122096201364
0.084932169387699
0.0417916123812228
0.0516128032262306
0.00738029550891375
0.0703016701374971
0.0471933790825994
0.0508700600527172
0.0331388485876871
0.0582984207361683
0.0214380660519898
0.0381148660182129
0.0552772881379101
0.0564448854992726
0.0172501639117
0.0635414222883127
0.043111903646516
0.052565322418986
0.0137751719080981
0.00687564697636516
0.0963526524808153
0.0636676663566591
-0.00205771728408014
0.11628726315345
0.0467020379528326
0.0675603272556661
0.020502494300574
-0.0255257396731691
0.116025874974296
0.104760419724336
0.0360545640656428
0.052281408223831
0.0569366991802372
0.0487917163877211
0.0362397279201265
0.0437815499121347
0.0349995525526073
0.0741414550603817
0.0742131939461699
0.129045136151853
0.00814173582400287
0.0724903036509772
0.0565885276144956
0.0541467960039486
0.0324358655705011
0.0489621031279195
0.0277803403784669
0.0785821901878875
0.0462517000217327
0.0695417924032914
0.0401050019175237
0.0542928437318901
0.0674982965218281
0.06946021721161
0.0286619411960975
0.0595781223568734
0.0504020103186628
0.0464979543620479
0.0511838610365701
0.0389599228865864
0.0500693416548052
0.0380978377488103
-0.00192671163473638
0.122246575984941
0.0504522575903178
0.0509340083378257
0.0737710753295367
0.061767471084526
0.0418942944842227
0.0555616608316948
0.0471286414434278
0.057777618979246
0.0281144671515668
0.0364130023016798
0.0650262347915909
0.0555318269431509
0.0407316868359232
0.0636305150720201
0.0480315604413626
0.0559041098784238
0.0436511172032042
0.0589565252581404
0.0449210238743188
0.0578718357873085
0.0244202133988725
0.0819329068434213
0.0656510865992935
0.0324838671955466
0.0570420100197691
0.0983586353413016
0.0495785903835113
0.0749465861105133
0.0547216607125696
0.0692270423011202
0.046935724004608
0.0660416390221917
0.0441691085627904
0.0632965989966106
0.0666479711334578
0.0797121272340961
0.033342952034581
0.0484541710834023
0.0773273819098193
0.126286487742792
0.0728150959815841
0.0791200554905069
0.0261416985475351
0.0979899663359677
0.0615628594561861
0.0943030234163259
0.0820050789440976
0.0787106788382882
0.0670865994223845
0.0757109224913169
0.0611973145679764
0.082097885755822
0.0715415884084816
0.0780168674767823
0.071372648186941
0.0828620711280293
0.0790112338490364
0.0785574913470298
0.0553326423871937
0.124127318289793
0.0875730962486202
0.0957969876945648
0.0807139697154868
0.077136974003182
0.0811219269847614
0.110162337007087
0.112590587617181
0.118021776034289
0.0889626022838785
0.12635431960817
0.0956795215647146
0.11145569652165
0.0913393379414062
0.107795801162991
0.0994495567595409
0.114887265731181
0.100570376561379
0.108406181258251
0.103200282006531
0.122280432078702
0.100762806530655
0.120437718559098
0.0979780593975449
0.147043360900081
0.111346042158048
0.125998304365911
0.0953099850453433
0.120531470860109
0.166721497181509
0.191360311107308
0.129017468517831
0.150285020320953
0.12641393571669
0.139026740649074
0.128970831823633
0.13336735713479
0.135319213827102
0.143197937641649
0.143467578044414
0.170144500029275
0.149319361583261
0.181230619292332
0.134124856664203
0.183307647326487
0.149298452428573
0.166048948123797
0.175098095365147
0.186717468531299
0.134561466751922
0.203500505317442
0.176952075926463
0.179883294834302
0.188713331003509
0.185790071651513
0.175522057307962
0.198308701326516
0.177564967703137
0.198063328553569
0.184005253649545
0.214463591193519
0.18921912520374
0.220869896908567
0.191038125421038
0.210613934782611
0.215130485883428
0.23877335947275
0.201123056571264
0.234552569901531
0.211128184043529
0.223369226612365
0.199482565353943
0.242221760864214
0.227240244400844
0.245570649268352
0.242637687374019
0.243376725360249
0.230921819629919
0.256682006425189
0.233224232792207
0.269959266755256
0.25136302668456
0.259654960251393
0.253775070596022
0.268267995331632
0.256948670579618
0.276588342456314
0.263389790478632
0.284489518786166
0.28792564560409
0.292326619474927
0.281962934366398
0.311334348515078
0.258125846477097
0.322365639618749
0.319930316672938
0.346471607699984
0.332458286058735
0.317563226520498
0.281432997801923
0.324838724368809
0.317315425554881
0.32829385147125
0.330373529413783
0.364326794861802
0.335155535700531
0.357858353087183
0.314116342763081
0.349261105714696
0.343474602256722
0.365019551605923
0.340154541429204
0.381907767315187
0.325002307474775
0.389218629844668
0.355327803571205
0.410833152982469
0.370546494718881
0.38868207867611
0.365647774229609
0.424657384861209
0.397532526190949
0.416509131932068
0.372374059502391
0.425475156342193
0.392485100959944
0.419653001466296
0.392768427050937
0.46215004212825
0.414218912421827
0.435267067235442
0.429208258465098
0.473767779091305
0.442905101279373
0.484174282498063
0.440094665705697
0.488663322758425
0.475419862637451
0.517295478350046
0.469035013818476
0.481931737733964
0.475422879150667
0.502136951863905
0.482414512000136
0.501242831240798
0.498016857793167
0.517750187589013
0.503654646755267
0.505673736233676
0.499979901667522
0.521979779212396
0.506400334608054
0.562477129245298
0.519879465945587
0.580495199668723
0.546421366316334
0.559572707432555
0.524564259805006
0.606743846672517
0.551934091137959
0.567909862288948
0.541905186318835
0.600329438103398
0.599169067460667
0.580459854881474
0.586447516230571
0.625652881576362
0.589285598303022
0.637420485426491
0.616953438232978
0.622796725522949
0.589752980452413
0.657962506032872
0.62347983761438
0.644376019532025
0.639199756207388
0.673056424227922
0.61034319212696
0.709615130529579
0.635898200200373
0.674381154276903
0.698297885081664
0.722290863760907
0.669006074422997
0.731199749967769
0.674361182457067
0.678420117055041
0.657914955543807
0.720807896085014
0.691456669662566
0.762099223052377
0.69956841235546
0.72400507087485
0.737327701261454
0.747509660280041
0.691755782454635
0.759479876273229
0.749657210351943
0.792059244494315
0.73425430849651
0.768995980369074
0.71325527112838
0.768206215787534
0.72978271359326
0.802163748316257
0.776365880451925
0.83295138816591
0.825357880861847
0.866120853859398
0.821123915124866
0.854716014842743
0.848097354784768
0.903171448502373
0.841884588808947
0.860460920142593
0.772770881214352
0.81558993944058
0.829065197054184
0.805731294971697
0.807120179843406
0.866235497811382
0.821076711124429
0.889688551910339
0.899149698223993
0.917486686502702
0.883649962911612
0.857041451877516
0.866963182964439
0.909243407715163
0.892059745300617
0.999765114757755
0.916683090932386
0.956096764756543
0.844214909846934
0.859350897380233
0.902555594612668
0.947626884255332
0.970264956551326
0.963061850996638
0.906888249459493
0.988625722173784
0.927085196435165
1.00833917484753
0.934659427747164
0.950057922809531
0.997437746217438
1.05812443385057
0.90484860127786
1.06282127143066
0.976485863255213
0.972423550662667
1.01150369032877
0.997526400472063
0.950198639469813
1.12948050104579
1.03195907511755
1.07417165469839
1.01750630148642
1.0297184693697
0.906351422446174
0.947341406603468
1.02803054947649
1.07482788517388
0.99018543554055
1.03478104919388
0.958488029867786
1.08799186343117
1.13392250829361
1.1023322467343
1.00359825712311
1.14666165686283
1.04213120717204
1.00828897941928
1.01907461968155
1.04302739216744
1.03027529678738
1.15051225966837
1.10447664020355
1.18345127501278
1.11986151830683
1.09713471750002
1.11272627384353
1.16487154758971
1.05792352304418
1.05767458918219
1.04735838854955
1.16909051184401
1.0630796603945
1.13273906865566
1.26722472185022
1.11861762455663
1.09609312515105
1.18109975395124
1.13564306139791
1.23841256482205
1.17529184830363
1.12580800534332
1.06436302867988
1.17550881660571
1.10695563675796
1.18626980422818
1.15762841536845
1.22964124740573
1.09045502596538
1.1558624212754
1.11051565543522
1.08625934075652
1.12071375415298
1.219793312887
1.16559806822971
1.20548629682213
1.13424146295202
1.19933274647294
1.16517517630447
1.16832024873408
1.17695629615757
1.12235735848543
1.15565783549281
1.20755417623742
1.13780307871786
1.19769161414491
1.14359801847043
1.22760600268014
1.17950032273449
1.29166696460315
1.20748116401821
1.14807689204971
1.17003352031175
1.30137167644863
1.1657427435046
1.20106519908664
1.16133650393938
1.15121137275325
1.20806928207027
1.23986370663304
1.1493167323224
1.16530079024053
1.20469534830293
1.21200458898587
1.18864784342985
1.19731174582598
1.18737587778063
1.35517570318043
1.28481280805468
1.23653457538186
1.23460940908265
1.31738187814473
1.31159836837352
1.17037410474336
1.15914550712201
1.30885678754104
1.30131850789957
1.18213652373727
1.19804375076003
1.20368298986419
1.21464269715525
1.26302938484571
1.15289081824568
1.17637961772721
1.17166184536666
1.21373021729174
1.16674199685158
1.20235239242332
1.26717235597177
1.23617631246605
1.2636714927325
1.27258964202737
1.21522199438957
1.25406885375385
1.24035147044155
1.25120992690147
1.17412885728943
1.15486505210259
1.18552806049986
1.21690027303892
1.23846704214338
1.16044539840991
1.19000711261064
1.25893797014756
1.17992004606174
1.27722530426883
1.21390661562311
1.224548009231
1.22109376498978
1.24429058059624
1.31673487124179
1.29319218744997
1.20988410906903
1.17654164245375
1.2868828257205
1.20690955526003
1.18908553968977
1.21272717989362
1.23471691660818
1.25631428750968
1.21017456836022
1.24952201792932
1.22628141763236
1.23664681560175
1.18396332903616
1.2406606012244
1.19850645561422
1.16306870334034
1.22981504121887
1.2239184202304
1.14599352712449
1.17006882257448
1.25112585754931
1.26451867082708
1.15631018287466
1.19042741682173
1.23042439690296
1.15132071026719
1.1341160531272
1.16458603707294
1.24685351217429
1.25723956881326
1.21660078854759
1.1761636055812
1.16192355479357
1.19583566751727
1.21732258114022
1.21016687310413
1.22046887382283
1.21259277781275
1.25361987138573
1.29799460072773
1.22963433971046
1.15592270230402
1.12995558339137
1.14718957597962
1.19801648268012
1.21633445258953
1.21519889805558
1.15895123597053
1.06365505962246
1.11268916419414
1.15300579781326
1.13040114354109
1.1699317896921
1.13099990163854
1.13058667837755
1.13142322303576
1.12943095772532
1.14755838313739
1.09778138715297
1.1444305591561
1.18060987643785
1.11497767739459
1.13129395425072
1.13406224156258
1.08774101568087
1.07834406834209
1.09944132423706
1.06463767246413
1.12313206160362
1.09982960779292
1.0514614501891
1.06588793668518
1.1253626033614
1.09432963286923
1.12074486530318
1.10734923473268
1.07880302271973
1.07448312635751
1.05902076911251
1.03304047248003
1.04195852501423
1.06284838455348
1.08799762763257
1.05718913060599
1.07257669007335
1.05153821855435
1.0354235101521
1.03818860980657
1.09050988158472
1.04858319282887
0.999952283097677
0.982210080448707
1.00180247540839
1.07002493427874
1.06849278240534
0.975575501826832
0.992055767484572
1.02130510881367
1.00951006094035
0.987122489900371
1.02551478528863
0.987463343385614
1.03157372127206
1.00037109391152
0.999025497893341
0.990528521560314
1.00038168990928
0.975051344419313
1.02463112708851
1.01172468016607
0.965497132204077
0.965900874494488
0.965750052510689
0.933993421636181
0.971614953421521
0.947734699255308
0.959965194593517
0.954631735026296
0.95874535549829
0.950428264097327
0.923792649169137
0.90287847985373
0.961923757161389
0.934397166640668
0.927202815813857
0.909410505480607
0.915878835806457
0.915671992229904
0.891727900917578
0.859205435677287
0.909672341309095
0.903575879605817
0.905159200451703
0.882833675271313
0.904942964363898
0.875242963999169
0.886410224206641
0.877354556623834
0.861876959293556
0.822792335783132
0.863590690846693
0.842632620530802
0.852545743363987
0.853097690072866
0.831338231798715
0.81517257180995
0.850820795836293
0.806377085067836
0.808884980793156
0.826937294683758
0.813121740589947
0.794625855383531
0.810214253092004
0.804883205804315
0.831874356895225
0.806006387236761
0.79709304181754
0.811476589584444
0.831154875285471
0.785349135559435
0.779742399090299
0.774419019524479
0.772287243260788
0.746431758859925
0.778674355266721
0.77186329732924
0.759256173021511
0.728859467926084
0.761238018045758
0.743531922411531
0.751271594174114
0.73698029338254
0.739044983916918
0.718282849116953
0.729704680292496
0.725828756039999
0.719895713439519
0.709998095319338
0.732526624467327
0.703507073405019
0.710115834740383
0.70641664130389
0.717037494629036
0.679657920516749
0.68544452856018
0.696978152123758
0.691726860314417
0.661467640731312
0.686613045837464
0.64787162833145
0.657552985121584
0.658476947418361
0.664792752854366
0.666047955923742
0.678961883716391
0.64183685368771
0.655101795140252
0.644375173277675
0.652376890206305
0.639154987236225
0.649978196007765
0.637747391821836
0.647497096021119
0.627062278948709
0.630949999692993
0.599786080135986
0.620029112489361
0.62548368883661
0.614297909248764
0.599521524465477
0.611748883834464
0.609662518289526
0.606216753660252
0.568631024826665
0.590164215899791
0.582125199993761
0.591836675407622
0.591113354649146
0.585884839255137
0.582592854098711
0.585581912380164
0.562225172759542
0.57809896763963
0.565759922217081
0.573909903823734
0.553946402309076
0.565503842560189
0.556171581454454
0.57530206872029
0.559628535733689
0.545426544596507
0.534681595600089
0.5530686107647
0.541842968262654
0.54719062589172
0.534593386062618
0.539596803003167
0.524333599615237
0.536435898220169
0.517570866916175
0.533052421136845
0.508613662466732
0.527076856477299
0.513251956896052
0.514948628785572
0.494125948532891
0.505493529995645
0.513046891508115
0.507727048468303
0.490629690705332
0.514698578381474
0.503471344355729
0.508553390873421
0.488244529500308
0.485084964888455
0.484380217491546
0.496818291755941
0.47971016525676
0.492050012262667
0.470943999805186
0.47236075138751
0.477564957027517
0.480638717287899
0.460811675675513
0.467403087890289
0.452407592655894
0.467470865779894
0.453179177845009
0.474247195935152
0.455241561289455
0.463670568858117
0.439986275835283
0.453390132480038
0.448824819738604
0.443082246014444
0.436091258903355
0.436267067584153
0.438928516517424
0.445691569143883
0.430053186511627
0.428686786749767
0.415769254939864
0.421057520985576
0.421487024095743
0.430193940416503
0.410731644844173
0.424837383797264
0.424462039914628
0.42207799549594
0.403434040687589
0.418790903491571
0.40205953951988
0.422011137572018
0.404950185480685
0.409800692649361
0.403038154380148
0.413634351379951
0.398798381160211
0.407075008750579
0.394242219843297
0.405857597566748
0.386339097451296
0.393613845894565
0.382623852347314
0.400527710625454
0.385560763911182
0.389836384930293
0.38293438465342
0.387209354191706
0.371728415339747
0.39107220547935
0.373376760392407
0.383297227133275
0.368972351355744
0.381474909515782
0.366407856138963
0.379794729865149
0.374080622977635
0.38492408489632
0.367640482283326
0.375241077610771
0.365930415488617
0.379094882761431
0.373118622656168
0.385704323858663
0.374476289506238
0.380067528410698
0.369348016213666
0.388698334462417
0.361344792775271
0.376215824667245
0.369151682073682
0.379722497915037
0.37020519533522
0.37505346416343
0.375660903493727
0.383695746193135
0.377180804993907
0.385003045758478
0.372205557413546
0.39699465889287
0.38931367943275
0.38833735569462
0.372563720348104
0.403030029726134
0.390975456567462
0.393794326922517
0.389512943717882
0.404390043400261
0.397334048337072
0.403586391131941
0.391366268515525
0.420523825430818
0.407224091891059
0.414253817045843
0.398234492210356
0.421544718402952
0.4072545797712
0.42407855831437
0.410385686035996
0.420763896813121
0.40952703141423
0.433764809747159
0.418147477917571
0.435495737947791
0.427804095200661
0.439735397958665
0.42698588939112
0.443614493641867
0.429985812155851
0.446512608083038
0.443354617479739
0.469489412217859
0.454786822018192
0.46257308938138
0.454290049781324
0.477512030958472
0.456929134534852
0.481477528144621
0.485865623649882
0.486464847862758
0.469762126391215
0.490489486578131
0.48752042701832
0.50265139581372
0.484800470207354
0.512308480855712
0.483954512150953
0.507549670141204
0.495690285735475
0.515063251072033
0.506801695268532
0.503097507979462
0.505819791442018
0.531461648275252
0.506927809893904
0.518924682063581
0.500671369962415
0.541735520594105
0.512445457642293
0.530250174632231
0.512093269384745
0.531698179234326
0.510696370922206
0.521846252090394
0.50783479212928
0.519353568600999
0.510563133739869
0.508618132793052
0.503786249328442
0.523581680414936
0.515076582812805
0.518932947159985
0.498531098501715
0.513018542765784
0.509071648007271
0.523593491084231
0.4988905766802
0.51917237365454
0.508230411628382
0.520087701161629
0.508793168169105
0.52080438428879
0.508253897297525
0.51733109513882
0.496314473129899
0.519776884410345
0.506147261228751
0.512394252461309
0.509828574760915
0.509294906955761
0.512751159875365
0.528925786806632
0.513031846151074
0.526498043379032
0.509593453258865
0.535042120112687
0.517026070519013
0.522149861029313
0.491535254728488
0.527628772236909
0.51358521073068
0.524113722019329
0.514176660796671
0.513279232989795
0.513087417668991
0.506371622690316
0.498197469441212
0.520045700284306
0.504178136328515
0.514061184961465
0.490014236348161
0.514547833459994
0.487601992033103
0.512592676429141
0.490236635895703
0.49852681641275
0.485719824757406
0.498700638728423
0.47343148077243
0.494449610626158
0.481780374002944
0.484394385127976
0.474273445519288
0.482463793885511
0.456989125478783
0.473758917308338
0.444082292955039
0.459294221636882
0.45332181613731
0.464060684477287
0.439295754005944
0.459303527260982
0.435793689657948
0.453256417908792
0.432618580381425
0.44028845058231
0.426578718184495
0.428783293875277
0.413232202488172
0.424998873429503
0.407444174649418
0.425899906696019
0.404292452200436
0.410342900352962
0.395594492597862
0.415452625358406
0.399065035390893
0.404645214601981
0.388809407346919
0.397239930408731
0.375218192518153
0.394088905584152
0.382704328693626
0.39726038452915
0.366097813987384
0.381058333261678
0.365337347234463
0.375804369314916
0.359972012702078
0.382516367342581
0.362943646807095
0.372212167569412
0.347938205447576
0.364348897012315
0.348101131640175
0.368704776366488
0.347768755998203
0.363961544013987
0.345134081008679
0.359540713248937
0.342858006850026
0.353055111363312
0.339704485129977
0.350472674557409
0.337193252825428
0.344975388922573
0.33243369017197
0.354961512649201
0.331448162053761
0.336197671189312
0.327482049602832
0.336465368292913
0.321880096843454
0.333848191701646
0.322193961834588
0.328530654353465
0.322113318960808
0.330856778699133
0.312027467313045
0.326553832531508
0.307370074116766
0.323921546629486
0.310369340185855
0.316652928366512
0.306920822996052
0.316454964042972
0.30894423564901
0.312615451638605
0.305094583671339
0.314455466865741
0.299799972017674
0.302955974299683
0.304801616254658
0.310345363397859
0.297065260101676
0.311946706025069
0.294890387472148
0.300604532249722
0.295263355254541
0.305186781804207
0.290078809755537
0.299371149553076
0.285118598903771
0.297595446206379
0.283812193132764
0.296039220024147
0.28907223393035
0.296669095831326
0.284115411608435
0.292665336750375
0.287482758612618
0.294956807797274
0.279817907736652
0.295845885469723
0.278834950447162
0.278318125130041
0.274298885555274
0.28530862637181
0.272077794641714
0.275932259872024
0.278558571657375
0.283654487352493
0.269026414220447
0.275085252697854
0.272951372083092
0.280591966024251
0.276451684767222
0.275175824236707
0.266389084623832
0.275900419096291
0.268420442604223
0.271608754175426
0.265674379285112
0.275157646375319
0.262249377258345
0.272588124259674
0.263607138022194
0.267906850459932
0.25656542259205
0.271377907685242
0.26550240125652
0.268185854997704
0.25328298557078
0.270957126939719
0.255675434928155
0.264427132640001
0.264794948327112
0.268003696812591
0.261257711525329
0.272297395889523
0.258907664301216
0.26864038239126
0.252701393110443
0.26064234124232
0.260090400582975
0.260022819952704
0.248714620796746
0.26444019819963
0.256647326725478
0.259935504086787
0.249603105109912
0.265562659299481
0.255971490242909
0.258621287859668
0.247469531070858
0.258511228109953
0.249251655024138
0.259014739727808
0.24843888187494
0.256783754728449
0.244607831500697
0.265293539992175
0.248928866785504
0.25707411207008
0.247149765357436
0.261697223052127
0.247115779393288
0.254779648754814
0.240793138195702
0.255472224202178
0.242200158911677
0.251450796530512
0.236002096724987
0.252761597830164
0.238893032804596
0.253796346848759
0.242146262417308
0.247463834420797
0.235397175544302
0.247779790904407
0.239954765619274
0.240858328618666
0.230041669570312
0.241411030925129
0.237409162598721
0.243114342479186
0.239532556717769
0.238891392248314
0.227157448585953
0.235280406713891
0.228851898200374
0.239337190276446
0.22647188192131
0.237212938595161
0.230245443420308
0.239865563583582
0.226851024507624
0.231988916748242
0.228806864973221
0.231309736922189
0.225178824420742
0.241359447422964
0.212426585462012
0.229897479952895
0.220265564203339
0.227510427946797
0.214654751472254
0.230290434543223
0.214961417958561
0.226463062866297
0.222082361726082
0.226545895256085
0.21971667079059
0.222231619996396
0.211578995767001
0.216743747739197
0.215353052285724
0.220057698266165
0.214216699681275
0.221765829501841
0.209144646564811
0.218853361357579
0.210417792921758
0.209495197505258
0.209612515513782
0.211310453988209
0.203940744541865
0.207387834036826
0.20455316114063
0.209103459137471
0.204230759461511
0.205466210837007
0.199561145230174
0.2081578711693
0.203347455940225
0.203520376029239
0.198631147320474
0.202794652528539
0.194037966692627
0.200231925135495
0.187167553377042
0.193717396228602
0.190080120194314
0.197279197801451
0.186074862999318
0.198940065479577
0.186784699167518
0.192667061004735
0.181331103818563
0.189604322877581
0.18214219141785
0.196547743058308
0.18394641972675
0.189429052406294
0.180886674421148
0.186581929318104
0.176190832368632
0.186042700014414
0.17654118243988
0.188705868663096
0.179401914182706
0.184730416506016
0.180265252828783
0.175673165493985
0.173745758714684
0.180449573441868
0.170703287578599
0.17625174564015
0.173244695231241
0.175733114619688
0.172844225465641
0.176253640687372
0.169398371302885
0.17300299111699
0.167136077338497
0.17074671525735
0.16675090161637
0.173874730154237
0.165491024607309
0.17173217817267
0.165319749381035
0.166906297835279
0.159380366613616
0.166987165393713
0.15752298856131
0.168372959252903
0.162222187651543
0.162945414493419
0.15873047330041
0.164381909110231
0.162470641716985
0.16598199685892
0.152784379189743
0.165554139322366
0.155544682780584
0.160171725542789
0.158543572540627
0.161508535888958
0.152750021172276
0.158390286950321
0.149703664059817
0.159087493381402
0.152729439879034
0.153275881132977
0.149816289698466
0.15523562974764
0.147423066561021
0.159860925007811
0.150437968062637
0.148809231011272
0.151162120744354
0.149977607814011
0.14675550138552
0.153545298870076
0.148363787499636
0.150262890131653
0.146425973225224
0.150626504163211
0.143132526303606
0.147727590707607
0.143195742840774
0.142889917135515
0.139352105403348
0.151142121569213
0.144574047701267
0.145188943400736
0.140995966706493
0.1450796780608
0.14121847307749
0.148209207623903
0.140788264190302
0.14204368345154
0.141991125392281
0.141377170285495
0.141079389643874
0.147722023470444
0.139103458992756
0.141018351091584
0.13667790092197
0.139164285609715
0.139415231372177
0.141590929079462
0.135792442308506
0.138020608998274
0.133623057368155
0.141137135079982
0.135971178599895
0.138667149821815
0.132924662701604
0.139577992141404
0.134707128719089
0.13576920865767
0.133018918577825
0.137622398443427
0.135392660893932
0.137567532033236
0.130956107675974
0.135883000323703
0.127597468584085
0.13791519626113
0.130169527272718
0.132386558668697
0.135702971901325
0.134725123000113
0.124228193072767
0.134328020192877
0.131261059062816
0.130345474559962
0.126607039805601
0.131370747595229
0.12829935670477
0.129779535111076
0.123604987123111
0.128853792681794
0.127879511501359
0.126687766979554
0.125044865994266
0.126114958347892
0.118351828208385
0.12479253994827
0.123153962894664
0.126506846593185
0.124976756232405
0.124415179379001
0.122562102968206
0.124694430706288
0.12195444976807
0.131081204427703
0.124336866849556
0.13059983226403
0.122728831165769
0.124347484455767
0.120600412579399
0.124850310030621
0.117549975423466
0.122605882002647
0.118853292034739
0.122370142088648
0.116372701922382
0.123544675885794
0.119594991962456
0.122633028388746
0.12003430523015
0.122053565433592
0.116207997249103
0.11637215274588
0.118849560307759
0.118602628139294
0.115903724186588
0.115075490183801
0.109484614753345
0.114769995913041
0.11172410253468
0.115104585237176
0.114250350308394
0.117359922221644
0.113519806230985
0.114569831100197
0.109625276840807
0.113777454361249
0.109419346218711
0.112605423131525
0.108996362918789
0.116324600533233
0.109680378771287
0.110411544649197
0.107391851247704
0.107463778601709
0.104687412683469
0.106108634694761
0.105269600534619
0.108300776419609
0.104721238115425
0.104774543521305
0.106295578466321
0.107352724552391
0.100743735542664
0.105801593477478
0.0989080267258465
0.105202515220188
0.103661481951046
0.103160813841871
0.0981386545604946
0.0998354083831423
0.099889127712325
0.10144118799062
0.09603074364001
0.103230851292916
0.097448411157572
0.0968769068508794
0.0936308918988403
0.0964537513782049
0.097601433000447
0.099092150268965
0.0960164045974354
0.0944840279975391
0.0925042084651798
0.0922835735776342
0.0962603934551456
0.0962403381284048
0.093671915426673
0.0953244878629479
0.0944326025478675
0.094999264080427
0.088221049338902
0.0902305569674568
0.0889062869957926
0.0932085390749991
0.0885653164908101
0.0922337914032704
0.0902624469240935
0.0921102495034202
0.0860406130416719
0.088740201302916
0.0863166957858738
0.0912326102005415
0.0865873435552229
0.0878209098161181
0.0897877793536731
0.0873727058834119
0.0830541400574543
0.086198618578723
0.0833660981365465
0.0848209968358038
0.0836509229551316
0.0829705587250556
0.0824297101443199
0.0847469698545946
0.0810443876494109
0.0813560311642044
0.0824059717759259
0.0833931553143792
0.0838769876408671
0.0831284924060944
0.0798551929200702
0.0813071627663715
0.0808942742538829
0.0814909596213907
0.0816147892034067
0.0796480909180796
0.0776037949594961
0.0792065616216836
0.078576526168217
0.079322077250209
0.0766239408612361
0.0782698321166226
0.0785292120619139
0.0808271835545547
0.0742618524642226
0.0753904796701933
0.0771395186088023
0.0766432631622285
0.0771583812172026
0.0782868707504173
0.0782978820882533
0.0761669495854973
0.0776798369128269
0.0813395816794579
0.0759819344198066
0.0762372735976171
0.0732763419112646
0.0726540858333894
0.0788571470580458
0.076814325024462
0.0758337922248273
0.0747058606876953
0.0750557273651825
0.0766342448219974
0.0675367762626012
0.0718150518317544
0.0698441503551521
0.0696753462806355
0.0714058551124123
0.0757494801673405
0.0765338530513295
0.0763804183744053
0.0790874319235317
0.0645989417675794
0.0706129092599285
0.0795788087998221
0.0715039514282921
0.0702405207445952
0.0752941035528606
0.0778946077825761
0.0789378113987928
0.075767103723054
0.073191803747348
0.0813614227105213
0.0779912684246958
0.0710317924238395
0.0743206853163925
0.0656606396130616
0.0801849999710399
0.0754116577599033
0.0777836429354234
0.0753912668012842
0.0713410486881429
0.0601031477510233
0.0749290565661565
0.0655170339283425
0.0701388127123936
0.0689888983395361
0.0774956385908441
0.061800221615785
0.0826553313577984
0.0684937067819707
0.0862143995896502
0.0575980449147967
0.0817664723591179
0.0623180908647768
0.0873953611646608
0.0651887144834159
0.0913889584715594
0.0566537567919681
0.0879458858516606
0.0491913706056123
0.0881405403643988
0.0524033028033674
0.0970810729883062
0.0517185911848827
0.0883920216321297
0.0389124038527569
0.0968479144774758
0.0581999086754021
0.0875669747240517
0.0387521263506243
0.0909341390541767
0.0573262252814517
0.0729955331348048
0.0622949749038627
0.0726696672568877
0.0702615026419337
0.0580233850474849
0.0808104928109961
0.0537072868174895
0.0818199587844099
0.0535788237949359
0.0802608485785245
0.0537601893786342
0.0774273537226795
0.0580809099369604
0.0731457589763134
0.0634871464061438
0.0669802180130239
0.0649256920967663
0.0642395699336837
0.0603879597524505
0.0615536102030298
0.061291947207121
0.0655366448714682
0.0609492463509567
0.0674429607619618
0.0592458035104605
0.0669306183923646
0.0591274983800333
0.0660389039122258
0.0614002208295223
0.0645478993215537
0.0625783520644599
0.0669014723073919
0.0640182865485061
0.0628267413612785
0.0623940497607936
0.0685737431271763
0.061861502155346
0.0635084828467217
0.0588434255359614
0.0657159437344855
0.0615668124954666
0.0674175937457176
0.0607494779592951
0.0635692297833505
0.0603539556690064
0.0625538546706168
0.0615088069444733
0.0654919322869457
0.0586090543043695
0.0619932926158559
0.0650291017491958
0.066193043364833
0.0599246453539406
0.0647811576149817
0.0621588866310387
0.0651526180853461
0.0578252544510324
0.0631999209018754
0.0600573093178822
0.0639311725292447
0.0597191920669683
0.0634103142627776
0.0615816346949103
0.0643235977081786
0.0641496030444136
0.0624463099440751
0.0585937858804301
0.0628895457564137
0.0621478991424858
0.0643001574010566
0.060770844331541
0.0625620052958759
0.0597280035563914
0.062375151708263
0.0610447390533833
0.0635177394265417
0.0620131931614731
0.061942009124258
0.0571406291710113
0.0619925688056974
0.0610339780214054
0.064170021883037
0.06221052201007
0.0641842566375686
0.0609530366443713
0.0611930224473061
0.0585242595846848
0.0644000261306718
0.0604781117661441
0.0619786567542238
0.0584534873179478
0.0599779495915951
0.0570969706864254
0.0669206649420165
0.0620310439286521
0.0637894195626158
0.0624644563584006
0.0641943048875517
0.0582236536034831
0.0609152451947231
0.0595200684367408
0.061890277155367
0.0608008364228647
0.0643242812004957
0.061545131925516
0.0641035749183782
0.0620936789388461
0.0614783246770174
0.0620996556190831
0.0659382833478346
0.0638696196069397
0.0641367946880357
0.0594730421984773
0.06392243489386
0.0629374002022516
0.0626077580479299
0.0635175189343304
0.0645555185091406
0.0609887316144324
0.0655082986409515
0.065366186903328
0.0650648560156017
0.0615711713271647
0.0625912024558095
0.0605359870478202
0.0649555831971713
0.0653236298232882
0.0651372582256325
0.0637950829161079
0.0635810871008131
0.0619526662007586
0.0655345629885034
0.0628292503857911
0.0639118481697034
0.0650419691897909
0.0652662223186324
0.0635841075780594
0.0647337689614368
0.0631685059505234
0.0653888862804975
0.0623780192058152
0.0628160359144805
0.063089162174321
0.064592750201016
0.0641474699506939
0.0647662015338302
0.0581139002420705
0.0658623069377671
0.0659115253655831
0.0655677828558838
0.0645673885600019
0.0679918505688265
0.0673210421668624
0.0660008525293739
0.0665184792702276
0.065091857250774
0.0647887930902614
0.0679057342665411
0.064571112166066
0.064914159302021
0.0667897327787814
0.0683097711612168
0.0657426095271984
0.0661675741039123
0.065532937023123
0.0661164345739668
0.0685120360371945
0.0686887212193493
0.0677958319769705
0.0691642392519731
0.0680320506289575
0.0692588300966036
0.0704739359812034
0.067377113849416
0.0661087611655651
0.0691776034242284
0.06729842241109
0.0666308785499248
0.0679527702964747
0.0668607309539809
0.0670007722758814
0.0680418610528483
0.0679479865942948
0.0680230116390879
0.0672512631466653
0.0698365371861752
0.0648234384986153
0.0665060322392692
0.0638423209254223
0.0641255838767378
0.0642809926395918
0.0647724262613816
0.0651005558881933
0.0664750170551989
0.0668273084164265
0.0695637988931677
0.0671368098919599
0.066619863723916
0.0670184883737615
0.06426883117931
0.0657030662469536
0.0642650315493301
0.0665292741395081
0.0659300813001328
0.0636737085113748
0.062893738723563
0.067033941705226
0.0645421580299676
0.0630625101257966
0.063721462157453
0.0643155512917599
0.0628544986393909
0.0635630631456451
0.0656679506619851
0.0639373456927784
0.0622029970527579
0.0640346143262682
0.0651747798358227
0.063909882689372
0.0634148133115651
0.0628914306247445
0.0663688242465637
0.0661467849989913
0.0602272793210612
0.0606879871302633
0.0623048906985398
0.0619418990035867
0.0636841316960787
0.0634284235882496
0.0628425249626898
0.0619446701395839
0.0627359442354929
0.0624300095039123
0.0608153836285353
0.0628138028744692
0.0637784000998457
0.0626819364057718
0.0622768176678557
0.0661384241463663
0.0641151390832043
0.0637900816363295
0.0634928518243146
0.060773701342005
0.0622255183723617
0.0624553683115595
0.0617060375679463
0.0609565735337609
0.0629847764996649
0.0605584793943612
0.0637494114921159
0.0647733503647416
0.063895981281947
0.0608367232708813
0.0605086911813349
0.0616004837222675
0.0638621395209969
0.0614888879149192
0.0637125006305458
0.0614467859119836
0.0633633790932066
0.0634727798041285
0.0613801120170435
0.0646003794862461
0.0629384057674422
0.0630734453681789
0.0598936702636033
0.0628969849732056
0.0610668075137339
0.0603666913286229
0.0604195595298575
0.0613520224120646
0.0607936974995862
0.0669359896155822
0.0639094742256724
0.0625921866341391
0.0624938870783354
0.0616943038874994
0.0593325884407505
0.0585710517253771
0.0617723966809175
0.059713313619364
0.0605115768212122
0.0615540434023497
0.060153142735463
0.0620344449618326
0.0634623305917246
0.0620972112211858
0.0638698424485504
0.0632523804097984
0.0617865404870937
0.0592578964083729
0.0572936765500859
0.0599083568502886
0.0617573583215387
0.0604942446281238
0.0592679125035134
0.0583298633418578
0.0626564152570627
0.0616725823038534
0.0605541715139991
0.0613545449256622
0.0604700703891136
0.0591312742965544
0.056006514938003
0.0578127029470688
0.0578270597468641
0.0605595835849489
0.0594179296777091
0.0546064903421664
0.0583052900432782
0.0574619988412898
0.0559952020887579
0.0584503003964627
0.0571992017875246
0.0581852205260149
0.0564197453253738
0.0566475027382116
0.057487997227598
0.0567792532282596
0.0573669518710158
0.0537832600128703
0.0565044631099765
0.0581919202288106
0.0548548481276249
0.0616661424855643
0.0561404299593371
0.0582835138570246
0.0529875462558301
0.05655628600712
0.0530892870111565
0.0529636813953548
0.0533368928087027
0.0538258629865646
0.0514504387034983
0.0574833810591443
0.0525243888714146
0.0541489707592369
0.0539094988356287
0.053945916082593
0.0541549615422064
0.0548499848689973
0.0509464929878817
0.0525515294394603
0.0527229333885881
0.0530068558873332
0.0501825060497761
0.0552895006453758
0.049518955775077
0.0532088620064209
0.0509418097627941
0.0550988350470984
0.0484992875377223
0.0534428992025834
0.0499238482806294
0.0527959768514693
0.0538701748519552
0.0518538115597255
0.0491667803965188
0.051023327157555
0.0507749551353497
0.0515985019903628
0.0492724680670497
0.0507802487574355
0.0501452579782978
0.0507065022326402
0.0502012892937069
0.0505173413322689
0.0493094463158192
0.0497895060287888
0.0484189641815301
0.0504599673646088
0.0505665748326895
0.0513495518429289
0.0480057128796661
0.0510875450230499
0.0468739377809684
0.0480760299890304
0.050587210583555
0.0525343108507355
0.0495859880336653
0.0493705711528034
0.0513598109744228
0.0474212635724569
0.0486277063677416
0.0505660280407098
0.0499823121275841
0.0473573662246328
0.0491406292372406
0.0491564365040906
0.045802810086328
0.0478303988124291
0.048783957246329
0.050131957120241
0.046952000566408
0.0465272603435468
0.04702471017578
0.0441539799050232
0.0500078030530551
0.0465100656832296
0.0485079821948934
0.0412724924010233
0.0529219278692397
0.0444659863986458
0.0459727780597531
0.060144466544738
0.0490999726538878
0.0512398579015271
0.0439525695201924
0.0490512262322412
0.0411425526335077
0.0496142762764972
0.0458852421702072
0.0494098769041036
0.0474242023265279
0.0471201049871366
0.0415543267453745
0.0478063508839997
0.0454954642866952
0.0481344970719118
0.045486461131624
0.0478624296081167
0.0440298186213516
0.0479802390762298
0.0416440633806658
0.0499969821473394
0.0534646169812449
0.0468688615328471
0.0472897102612428
0.0492764319865712
0.0332322580840478
0.0638392205970145
0.0460906723098052
0.0551205838663875
0.0400214696414668
0.0517456539785373
0.039105367878516
0.0495702258998598
0.039628296818752
0.0502623551888934
0.0482338151010786
0.0453084668445162
0.0482895128812502
0.0440818245931821
0.0418761250184323
0.0455430825468653
0.0435488790331266
0.0451793452226804
0.046499545970696
0.0450724171770179
0.0459728655442043
0.0468130607925025
0.0420669877796327
0.0486580589079923
0.0398325642036072
0.0472856852539136
0.0473178970245302
0.0496846751881773
0.0423581680952672
0.0512849672246362
0.0373618223684221
0.0499165689424695
0.059777958915358
0.0451382054460054
0.0526239824348035
0.0419711242701154
0.048382396746816
0.0460005613594897
0.0462340853579623
0.043962409969513
0.0482789989503579
0.0430360585148944
0.0463687059733894
0.0441168424882185
0.0460190751432358
0.0439782849942533
0.0453373300090213
0.0474981266942747
0.0447942443939338
0.0468871369018883
0.0440137159584017
0.0504127820399793
0.0381826189971746
0.0487774065164752
0.0534631958901575
0.0544043192038469
0.0510368934362356
0.0474068510424023
0.0469511385480734
0.0482202105547275
0.0460475469530275
0.0421124038672568
0.0477119586633225
0.0454842532354226
0.0501248192895815
0.0466148134296146
0.0482687392929642
0.0446553675648569
0.0483999306917686
0.0422557293647059
0.0477009583221951
0.0417047303523946
0.0480693094746714
0.0395887311817003
0.0516970792388885
0.0352615325250393
0.0563649051978235
0.0437567734353225
0.0579011441836113
0.0180569422909486
0.0736695696393297
0.0565620523613309
0.0476467515033562
0.0550667779596182
0.0434910627153729
0.0524479337083199
0.0439171797346828
0.0483056187494144
0.0509288343467798
0.0496402186626672
0.0455960702264476
0.0480227462041604
0.0492605215607928
0.0536258060899327
0.0390835821463368
0.0399115479950652
0.0691585167626704
0.0481599841921781
0.0572028985204733
0.0449202717799842
0.0395538676395277
0.0713049986178311
0.0458154809602896
0.0583919522723026
0.0461667836899977
0.0505675619313845
0.0485041206580276
0.0544292363347014
0.0421294257681869
0.0542443519743306
0.0506946639721926
0.0470794273762708
0.0478407360432435
0.0441541759773706
0.0539446583994971
0.0439145360098318
0.0543363180830203
0.063019022798884
0.0474058793715194
0.0565233928318831
0.0527034996216281
0.0543265365726771
0.051566369875788
0.0568413974283304
0.0454945916027725
0.0541534627538985
0.0622481658644983
0.0466997469243436
0.0583449506923741
0.0623020292209868
0.0496269400074084
0.0575177417274896
0.048912111680461
0.0682805855678187
0.0394725832287255
0.0496623789014477
0.0735454648417514
0.0469250240212447
0.0794889796348469
0.0437926545484598
0.066404041015059
0.0437385118731975
0.0681689977219365
0.0345409313193936
0.0775974692539733
0.0464907752290551
0.0704656471369092
0.0433545030504976
0.0628519614704087
0.0587663797069705
0.0606531685972057
0.0600307544345546
0.0596417435650653
0.0462994469211023
0.0663671894899484
0.0651429101889839
0.0350505466253548
0.082597191318364
0.0651017157886861
0.0792588575992322
0.0663374067531359
0.0377698835523584
0.0979642242324267
0.055668966768406
0.0726106863791756
0.0578289969816826
0.0688052917131055
0.0588736381315714
0.0447314660978699
0.0800635737381772
0.0641287266657198
0.0603279034437132
0.0767606977031874
0.0436416423465468
0.0827205094410655
0.070675283431228
0.0741555184076031
0.0615244163475986
0.0800853827911775
0.0360057596550695
0.098844718303541
0.0746619872144773
0.0664126436707749
0.0926524587133617
0.0699892178158992
0.084790295012329
0.0731992221027595
0.0803132391695376
0.0679367469232102
0.0888729207685412
0.0767265347720941
0.0715778342524235
0.0720256489892168
0.109657825935585
0.0662856693116601
0.096968445159639
0.0727056833794246
0.0663856532288585
0.0671037240028683
0.128713128399604
0.104982487273624
0.0993474733510154
0.0695905596907619
0.113362628005885
0.0848842630352234
0.0980740456600238
0.091238372181304
0.0935812188722655
0.0932165439703791
0.091609546932922
0.10498157827984
0.0960621537331946
0.0969304176394925
0.103038279855525
0.0850248201683141
0.0997590343394826
0.110222783866292
0.148581718416817
0.0875303682424458
0.143551983409473
0.114449833150954
0.118932305199001
0.111589836037583
0.108148787203243
0.119107231209697
0.113450220599439
0.118820324671062
0.104774827975725
0.131292869433438
0.126835947364742
0.104336279054547
0.159434404865209
0.112077285013101
0.14517143656852
0.0273059106785038
0.314594424159734
0.137671193092368
0.160856088903964
0.140721064414462
0.111230647483973
0.207272845451162
0.165252824878805
0.160693521256217
0.17464379368739
0.168789962908361
0.175233286649755
0.184985852235856
0.184196292418925
0.198430948605323
0.203833092653199
0.185187492387646
0.184929602022987
0.22754787454338
0.245918903034033
0.243922767360064
0.221947329911604
0.24272964334062
0.257996682495539
0.240797986145228
0.260741385335463
0.259360802663989
0.215589385144378
0.343262112687103
0.26576809540093
0.298654032799138
0.267620909691499
0.329818974362051
0.268625937148331
0.344493057553706
0.343447276881289
0.327270642083469
0.337868315286305
0.326991947068262
0.357223826836832
0.3210733494426
0.379771409746618
0.367349135337794
0.373061415701848
0.372485253436597
0.375805514209674
0.379359962187881
0.381578484946909
0.391350497370109
0.368864298095272
0.402948607498817
0.341591936986016
0.504355204231972
0.441578715915822
0.380710289367938
0.414641771456301
0.364497598030169
0.449210391286276
0.3828180174975
0.426411083424982
0.442718209198803
0.398304013325702
0.41888260145401
0.406702262276199
0.416153457123182
0.407087654681616
0.420974949188177
0.391191509635715
0.424515520299512
0.404011906147367
0.355643490765645
0.506337490193465
0.406292023332201
0.427341580082381
0.404009782966518
0.412234412280487
0.400250645422174
0.411034814112912
0.370106414055457
0.450173973731389
0.395425366012169
0.413222168864243
0.383961667635172
0.417092230569428
0.434209595589875
0.399638128625451
0.40312857759348
0.392206566368987
0.38327299331007
0.382092592766032
0.34176020446545
0.464100377979684
0.367189485065353
0.394782324738163
0.382117868763763
0.386974063286141
0.373902345263367
0.382324311518487
0.368965549716896
0.394638588206919
0.360811695496775
0.38823144211224
0.368472581248207
0.375515135603496
0.360268445538023
0.378851265118684
0.371508775019752
0.365473073609212
0.370624945128153
0.366521086726485
0.370325726403955
0.363602917196154
0.364850878942157
0.370968081766552
0.366918807473266
0.382738885564846
0.363279938646692
0.366536282935243
0.368873329988913
0.364892060533389
0.363256034677379
0.364278554227407
0.363273102244761
0.36703833822237
0.36368991705142
0.362250216591211
0.360516339558073
0.363013047646351
0.36047132728838
0.357823343878385
0.356058097183903
0.343910589688679
0.359128217736076
0.32112962404129
0.367310829223387
0.392936189216307
0.327471718771861
0.355367941631061
0.324636051594989
0.35519632181788
0.307860404336169
0.351620932623983
0.357806010421059
0.324333997189676
0.326726039721998
0.323292028666574
0.314600227911363
0.344214559708107
0.29827595444611
0.319179373207395
0.295046568640106
0.306135660657095
0.352389584068399
0.246527353625859
0.406142995164444
0.308542490479199
0.300529627486192
0.259136523471977
0.343601798155308
0.286836143189057
0.301114214806792
0.286686168979459
0.295123567490817
0.312135851804638
0.274169951676539
0.296426431450196
0.273747544951617
0.275965820821551
0.310414924205881
0.282030343604226
0.258130272898149
0.312970797131141
0.26322804098485
0.274089685020077
0.312534368987318
0.296354814314934
0.26290704548619
0.264039271891534
0.266979431314269
0.231020133318514
0.287836161409243
0.268144426046024
0.255587079254197
0.261942579462693
0.236567172840112
0.26019281738305
0.238706216275526
0.268740404028055
0.201833636799747
0.284626273896112
0.23492208630378
0.231855035644234
0.25573831832231
0.23137299519103
0.279701029603687
0.242556718603
0.227587964758839
0.20893634266856
0.272354192321342
0.228015943155137
0.244411087993377
0.229714418116515
0.206902002498174
0.253131517769103
0.222732654161285
0.210639488817819
0.234197228650954
0.203258130560306
0.238625263533228
0.232448838572856
0.250817863022341
0.229033597519923
0.207470880270934
0.220845906894279
0.218036177240979
0.220605150724218
0.204848561519237
0.191613060505265
0.250391687730754
0.175847427394639
0.2521813117338
0.229443946264606
0.220596009808475
0.224581023329772
0.225300549129758
0.220866193166691
0.241299059665169
0.245125797320389
0.256737483027839
0.212283840576116
0.267047849431565
0.239550969406548
0.255183619770513
0.243577112937745
0.258188334287318
0.244717526773171
0.266508384997042
0.268368346295254
0.273707561660383
0.274606737698273
0.289040611201597
0.256462559125311
0.338980236129938
0.282833222173658
0.307994855412758
0.333003223588515
0.320478988362742
0.359741210822139
0.326173019228271
0.341162505413615
0.339488211085741
0.347983572098556
0.352710039882818
0.329992837622861
0.393129035546473
0.36288618869184
0.369483929855152
0.377158158186586
0.377459422090598
0.381198202749214
0.389195690418242
0.408450234869999
0.356571388588964
0.464648711950055
0.387919343141564
0.417813053715962
0.403269099858154
0.408864890641255
0.41462771490153
0.406403641423804
0.418548662382544
0.402804618146702
0.435724005708973
0.430419673275189
0.415141929799724
0.437579117895876
0.424100597381303
0.429722887857867
0.42975286489796
0.436174177933717
0.44465623820922
0.437343929855432
0.45050636370944
0.417266666767914
0.495576183168532
0.494269220548849
0.445941782721573
0.476023200601558
0.451312057786407
0.481029545763629
0.456421892839465
0.477333981627063
0.498198430254187
0.485691424974913
0.49571434667359
0.491672795302015
0.49393709916486
0.497155797602917
0.520844124616814
0.517667752463131
0.501772496911885
0.515538583118661
0.442974097963168
0.576490147361556
0.505352738765984
0.538768398499832
0.527219644769618
0.538385516948843
0.522527940312987
0.529400050316437
0.529391890989172
0.541057506897975
0.5356053497599
0.534368386035119
0.541348228712781
0.533256933697421
0.540511438082273
0.536575628878738
0.543605630828849
0.549748884188551
0.532041471502668
0.539107494966092
0.530055833242141
0.527338388699675
0.521131808369701
0.549737252444852
0.524809967325212
0.536977049017639
0.514001572899984
0.554157715904857
0.548686676424173
0.529851283738604
0.534095875147462
0.548326574536521
0.521541367952061
0.545749153948069
0.519242819692467
0.566578927208231
0.544878659114347
0.549270820064301
0.546739015643537
0.552087449341207
0.545841807797922
0.555917989256885
0.559665416384323
0.556211556383779
0.562020842841167
0.560703476719149
0.558852755757059
0.563481055935846
0.562386539329031
0.561986083136995
0.578250332604
0.570636772938634
0.557098122286544
0.561992892933736
0.545420453225637
0.565415661533868
0.550092986887793
0.54687677244346
0.532787973997516
0.536811632665208
0.52324383353863
0.540226907084885
0.541311420692679
0.512241282236529
0.53078711481711
0.505116172286896
0.512987650378217
0.501237032783795
0.505871410386586
0.504222760671952
0.501512507709261
0.493518362488196
0.496255827043209
0.489259744265937
0.482559343680141
0.49362343876773
0.494565852547265
0.488175475493936
0.48254946224308
0.47652487956106
0.475445154372028
0.486110548257795
0.479646943336209
0.473711483069608
0.478270085942284
0.475685054895004
0.48894169103926
0.475964055911348
0.489231848714069
0.475010962577981
0.485801227455898
0.476568789089026
0.478326569159043
0.475565120247125
0.474342490342078
0.472256218448153
0.472157279319802
0.475568210240743
0.471321599937101
0.474354078629016
0.474683354524033
0.47747943798519
0.473506304097797
0.476181000826528
0.474231192453456
0.468268533663082
0.466668497533481
0.477535584003483
0.472019367918083
0.478957434319837
0.468262940597669
0.472282367333045
0.470620055355809
0.471443079714683
0.474365671674756
0.466227269202008
0.470894032051271
0.473259178991361
0.468870192571138
0.469126812887582
0.468842337183084
0.475598706635799
0.469083787397193
0.46761918229902
0.46553187910846
0.4650153772378
0.461013416380947
0.460311794884123
0.454106415551167
0.453725324467328
0.442038081582775
0.446178745434372
0.440563494512466
0.441658570130283
0.435057719454792
0.426283077630166
0.426900194604974
0.428635513516576
0.422804137055808
0.419209699428706
0.41979993528506
0.412047138852421
0.414967738332756
0.409669721054703
0.41060170466092
0.408311905195674
0.408783258429734
0.413049603967615
0.406315181248678
0.403364271953471
0.401989338180679
0.404781440061427
0.403886157686718
0.406566702906557
0.401880788950478
0.407355696897226
0.407240573282832
0.411074327949823
0.40967418424873
0.412872915892884
0.414879957418021
0.413866771961832
0.415409081933777
0.417555747482047
0.421252813850319
0.425159070275676
0.42693852845312
0.429096265024083
0.427247499936225
0.430269344910901
0.430477485862032
0.429124064378997
0.434329882014246
0.435254385044547
0.432706502558872
0.433560142566833
0.43235251750707
0.433160559114969
0.435419206375909
0.433927416398342
0.427472451413325
0.429601850401114
0.428834325848742
0.428506286367812
0.427908836752745
0.426302820863967
0.424198857593469
0.42352477623361
0.420701146987853
0.417939614034323
0.419238557823223
0.414854532626695
0.415551481381368
0.412578445112508
0.412011369234933
0.413000782610434
0.411741542082857
0.409859050336227
0.412181622966172
0.410232070111571
0.405139480766924
0.403816900029804
0.402817724562766
0.400757840843683
0.399586338253768
0.40063792704955
0.397305867677938
0.396394791174456
0.398113286834851
0.397677100142471
0.396330786330998
0.396891151461346
0.391874019106892
0.387063412720877
0.391480441084931
0.390281126520914
0.386338568327769
0.383614123235279
0.380243024638728
0.379030049709829
0.377390063800337
0.369921983242342
0.369392763611838
0.366298980098274
0.363679195016271
0.355976920102838
0.358575390725221
0.356496801707009
0.353447453142554
0.35300832743083
0.35290673216248
0.349723627698203
0.351761735309848
0.351375760054457
0.349259549760507
0.348304776583842
0.346216822991322
0.348532441144279
0.343163870772778
0.341059033309541
0.339202588432576
0.337581852877558
0.33448347317802
0.332274687406637
0.3248568142961
0.323950660447109
0.318345012092584
0.316159986027747
0.309928771434271
0.311954075994777
0.306941938074941
0.307282878967096
0.308568201239799
0.308619583850206
0.31256552600948
0.3198582154937
0.322657328470861
0.332244695649951
0.341979835358644
0.351675438094856
0.364419468410843
0.37440294802249
0.391432066019963
0.401315488578777
0.418624840743967
0.434404689949163
0.450355734794205
0.467796938700688
0.482660969772943
0.49536346887768
0.510814922774618
0.52215634188192
0.535990251731165
0.553576009009966
0.568634039961436
0.577739654480131
0.589788171814768
0.60501070983075
0.618228659083142
0.627578464113973
0.636475389619485
0.648209372172852
0.652969434637848
0.659919083166851
0.670973567064921
0.676033844745599
0.677416413692657
0.691348123371502
0.694824084013019
0.696244719057015
0.699085926312855
0.703259295214469
0.701549702664275
0.707157456193461
0.714940258063726
0.709007469612681
0.706568678566217
0.707315666062027
0.716737743677658
0.709597927507094
0.712490546406567
0.718883929511162
0.723300860120267
0.721005842939471
0.730344745334565
0.736967993495959
0.736719081813188
0.742495487517837
0.752382095201101
0.757511392518847
0.77132365789098
0.776198932079462
0.774776982094849
0.785756833783733
0.794902596941507
0.799280986054057
0.80787269853602
0.814355580001294
0.836814172526293
0.843439249787259
0.850060295338462
0.865744425450005
0.883515581160855
0.892909079222661
0.903706775007135
0.895700119602361
0.905113589317698
0.916872601799543
0.918150480697773
0.911081628295157
0.895833286312556
0.912801056890041
0.901671698709167
0.896053620206961
0.897971012435922
0.890532794255007
0.900905615010141
0.902014512584125
0.897733054932374
0.907918147850657
0.916734494392387
0.92441623234423
0.936153742636461
0.944966943718358
0.967325298326928
0.98362841222429
0.981754728626111
1.0052894390189
1.02345656581605
1.0406864779313
1.05123975925624
1.07051356516367
1.08377717231703
1.11835376862746
1.10141136633943
1.14460254917266
1.16530246744053
1.14944078590946
1.16596471493923
1.19930445479931
1.21334669730803
1.21267223388053
1.24966642191929
1.28234760753167
1.28952478901939
1.30828298139536
1.32101931118508
1.37620341458988
1.37677676211435
1.3789200254705
1.39390991235932
1.43724665354571
1.4054342996673
1.45760498575718
1.44414955440443
1.47195450125927
1.46506649163848
1.51731261594446
1.57043470040033
1.5625156710428
1.47191575296462
1.51493443348839
1.4836580799377
1.53762765570474
1.51315027389505
1.51534789658995
1.52179751538401
1.58051116958476
1.49676554635484
1.55135755651106
1.48137564386318
1.51368452265592
1.48205935792236
1.53577553940376
1.49659658409331
1.59035667673707
1.57968946470602
1.63570109308859
1.57817350280975
1.66692696877845
1.59021461485855
1.62845208315441
1.62444631384549
1.73182728370748
1.61686382738736
1.76027440580195
1.73826531345186
1.70660256467743
1.63198655512959
1.65990823185939
1.75239776640402
1.77677238857635
1.80093627275374
1.85403050272585
1.66812094992701
1.96267692129968
1.68687087119421
1.8176553406157
1.75731753162631
1.77729863266792
1.84515555091285
1.90117098969901
1.70090715857582
1.73409215188561
1.82358728176672
1.76851957756992
1.78908244165413
1.9518823117151
1.7722508857865
1.9760130001484
1.80683911702203
1.80335013128185
1.86688745795208
1.81863761624029
1.62682578834874
1.78339872082801
1.65509644097795
1.75956061746986
1.60671432724104
1.63754129101667
1.52730684251781
1.506389704057
1.48487827556008
1.40058461997526
1.3646043613194
1.33451944459628
1.23835313456975
1.25813619040497
1.21053964726613
1.17131571507062
1.16518873176067
1.16560027781253
1.15584390922597
1.14055706966011
1.12882511901043
1.13536432091123
1.11020448037825
1.11187919021312
1.09318543036176
1.08700502929659
1.05487749964716
1.06150016342833
1.0370484329904
1.02315897268819
0.991956781822715
0.996826006242075
0.964485699910791
0.91489184074262
0.916459467123203
0.89940654120097
0.870192446154228
0.831682541754842
0.815038186414416
0.783252591742268
0.749534480246582
0.715936393848146
0.692921455072192
0.662685618027101
0.619318405229037
0.603512837526226
0.579251694583109
0.543425310601142
0.515854470289285
0.499337413543848
0.473796894123813
0.465144385771044
0.441119396904976
0.431147620447767
0.412199427929926
0.395323027346268
0.388175566891032
0.379204518406155
0.377895362977472
0.371701195407535
0.362731918256121
0.358309369435423
0.351464078711012
0.356729871004811
0.352488646844535
0.349955417992984
0.352475018216867
0.353870632991548
0.351585167064258
0.348379298703616
0.350404067380844
0.35525406519939
0.356020285358961
0.359203225564151
0.360813573437377
0.358163767153401
0.356256298173054
0.354006378302291
0.352010264412913
0.351728563117637
0.343488163223844
0.343348404375581
0.342385243360862
0.336006829827265
0.334238229167481
0.331401716332036
0.326667907000145
0.328787395666725
0.326883037770911
0.323051309948403
0.328443463439753
0.327348494354726
0.326060604045042
0.33470316990031
0.336557120351785
0.331646444076096
0.337742065914303
0.34797700910899
0.345593960156384
0.350524014801485
0.353698128642314
0.351189132627277
0.361690461267461
0.359560546465751
0.356819021630431
0.367001641194178
0.353902230670469
0.37140394984904
0.372209442208861
0.379811969068243
0.370191379455177
0.370871980961772
0.368002615488584
0.383963199904703
0.368660148070505
0.377214662573347
0.384557506816569
0.390731373385994
0.385892424123837
0.400457035639492
0.40639415227529
0.411748954959088
0.411588396429039
0.428181421364
0.437839900946604
0.454472082980686
0.478788691594809
0.479256746186864
0.487977721038753
0.500830530031538
0.506172383699311
0.506066882855776
0.50336881630259
0.518691961593643
0.50032369407371
0.497140713821144
0.498255928433653
0.484576614147138
0.470219150153076
0.474884206019695
0.449526589643534
0.457067132592026
0.447308836319685
0.440026130320739
0.442873510102645
0.450897464743194
0.434966827288037
0.44616911650449
0.451288102400308
0.443756802382383
0.43873524702091
0.446281656272083
0.439931234508804
0.444356063566548
0.428933974835119
0.433679600216459
0.430946666058671
0.416890884516232
0.4201304778538
0.410508888847027
0.408416245759767
0.409711983215035
0.397442444220418
0.387560650568485
0.380090255197893
0.399437523859126
0.386035732491565
0.383917825257183
0.373454264633066
0.377223206291597
0.369929152173752
0.373227367711165
0.372048229650983
0.36762189809915
0.361152683864162
0.361690168557629
0.357870997808426
0.353195231989063
0.3480242640513
0.348618532028528
0.347610940822205
0.349820650168984
0.351434927172269
0.342581219368223
0.340852057946824
0.34014600501264
0.33593031841518
0.330505708377854
0.34292498059157
0.33665347410874
0.325966578105753
0.339568360087442
0.324732742630962
0.330297575030702
0.31983024256387
0.3289585583746
0.308951673888315
0.315089229109285
0.320192967725834
0.331275223303751
0.312368282363479
0.315214092567019
0.323621693673305
0.315478806943961
0.318861473533004
0.329763386208924
0.3324449167245
0.323684998593891
0.324637695540666
0.313444734775561
0.30584093090327
0.329366250299748
0.313026029413726
0.320471423804912
0.327357883573457
0.345936516834412
0.328276586419222
0.350618607968353
0.334219059081703
0.334579147680142
0.34340506651002
0.344587533715386
0.329256390309089
0.357496572099899
0.350024863857956
0.367915078382996
0.372715950890166
0.377280600482354
0.373246704623392
0.388723767994787
0.3921320659744
0.398943004943904
0.397175086949266
0.422072242495867
0.430281191870564
0.449076946254747
0.464949222236409
0.470824281716119
0.472734681997177
0.500948463684478
0.521029066266774
0.527983154417728
0.519125472436816
0.550945325151302
0.564614881581855
0.572904528101237
0.577198107404082
0.627041057060536
0.59510287733195
0.614027875542962
0.558868220540816
0.598672808080489
0.609812960458462
0.595491314525781
0.579285096746429
0.586503878152128
0.562586373379792
0.605934093064882
0.555974255818302
0.614148216817124
0.561463795075167
0.595121307564481
0.53969729665816
0.601488407374345
0.581335788118742
0.541567273941054
0.568008446663772
0.564221754318932
0.534566344720302
0.524829056073868
0.516951951893132
0.537084312674376
0.528958811999318
0.532758781240116
0.511786153032516
0.516263376717066
0.511844622960934
0.49049506165307
0.472077450190613
0.519680480386221
0.476210250079598
0.505220994003759
0.497155781628355
0.507711682019746
0.489154378535832
0.508024284491617
0.504160933449873
0.520565118865419
0.482007227765413
0.522810876196489
0.465761728764168
0.502189456742033
0.478422892270865
0.489011928381629
0.506618147714302
0.546472485824233
0.484517349419188
0.476589631977555
0.451173830890196
0.553960731102209
0.515660271398828
0.504439636130064
0.52828170452087
0.527992155256085
0.462676352119293
0.551229862764469
0.545220687284562
0.557282590675783
0.486327479711855
0.56224935508063
0.52626248669501
0.521727709243625
0.529577331415723
0.570144870459148
0.590428909628643
0.59404824649592
0.543544605510504
0.54916652941269
0.554680999681352
0.585749473895198
0.575032677164391
0.526649004157673
0.573188437654169
0.628036715618483
0.620466670889867
0.654861081808451
0.666577611406579
0.682835004241982
0.632809571739138
0.756490145341218
0.638031247930321
0.674774855821141
0.845458398549092
0.79235442083487
0.721374985180143
0.712851723302714
0.701265958130373
0.741229773546851
0.718807824631762
0.862804766765427
0.687620222901152
0.755951935755306
0.690136748743876
0.637830418470687
0.651658243932523
0.747226219092788
0.616270929781869
0.740834619713941
0.822380563081158
0.669077350498351
0.644056087003256
0.675115949057958
0.565769230647166
0.681428766872743
0.589031216562956
0.609985889228126
0.657317741335306
0.690165401893967
0.599460498130108
0.611697208962202
0.704263835577061
0.823947058041953
0.57739111476584
0.771277651605348
0.690500646326693
0.634850813777269
0.529041855917332
0.58985070317813
0.661025493540987
1.10445804893167
0.568624242423289
0.998945263338261
0.823137474143486
1.13038501474108
0.550605457717153
0.751175535130701
0.802118593670007
1.0210923694219
0.522324643200286
0.747960752509589
0.658806999467239
0.742730454074303
1.32154873049732
0.951911674774698
0.370294710284828
0.663120524419672
1.22183855540104
1.93594556803458
0.631742596013225
5
0.637835194351117
1.61582115732936
0.64219295618463
