3596
4000.36533379555
650.420452594757
1
2
2
0.0623943939396961
0.0603949937266385
0.0730804621910422
0.0423594780949835
0.066618200275076
0.0595508135699825
0.0798584901968426
0.054913339481586
0.0600391246184472
0.0502857999005442
0.0683120857934255
0.0572735447708325
0.0785103569544137
0.0472388076262418
0.0690089113152627
0.0513439628205598
0.0640805366795174
0.0496681136426815
0.0772747098292728
0.0558368421864257
0.0743423361542241
0.0601827154720685
0.0703977107331815
0.0453584634924019
0.0690348980901964
0.0697444675763331
0.0656559972741316
0.0496960923252907
0.0785947122178703
0.0515562015441018
0.0744932667605004
0.0640365796045912
0.0849578576416253
0.0604661407979699
0.0772937531560474
0.0590541239329147
0.0842409557863108
0.0513430369346871
0.0700352749433952
0.0533361140346436
0.0850210363392496
0.0538660953919739
0.07057012316117
0.0647892233957426
0.0714428905629541
0.0562197322428407
0.0688899256085515
0.0569873155276254
0.066262150233839
0.0589112017948613
0.07948132324011
0.0523296474008541
0.0879241644922215
0.0561744632304234
0.0730672701521618
0.0635613429891851
0.0753836794471761
0.0568918816910515
0.0660532444307256
0.0392411305508757
0.0747866974953692
0.0638764421032343
0.0642214644119371
0.0491780443405623
0.0715708184984483
0.0554125254572971
0.0614796319035947
0.0488536530455248
0.0593827229592754
0.0446787905800575
0.0518611836102907
0.0652388912617233
0.086568571860441
0.0583032344575422
0.0624403106759892
0.0542695404467644
0.0730759413762279
0.0514563504769447
0.0571235253694974
0.0611027698022159
0.0819389731161402
0.0587860849555396
0.0641351689622355
0.0396280515026904
0.066770530757404
0.0697843030447279
0.0561560128419784
0.026337537724955
0.0979426543735124
0.0676444787098361
0.0655249084249007
0.0497354880425801
0.0616190085018807
0.0479749571947148
0.0644617616699387
0.0559233749799157
0.0602418263244022
0.050902791209175
0.0622676861544621
0.0484592765278714
0.0595715245606934
0.0422395545005793
0.0984680754619201
0.0294496629033412
0.114834808189637
0.0681549377684386
0.0363948655266764
0.0712232238321673
0.0860943439782683
0.0605522466823383
0.0569222723320097
0.047534221789841
0.062475803390812
0.048871432462467
0.0434177987986733
0.04289673347914
0.103549651946355
0.0639448186458706
0.0609738745012408
0.0444306603625555
0.0246993044125391
0.0410061248952998
0.0978635243097342
0.0468366782704698
0.0731056611957637
0.0397372976548858
0.0399427470732346
0.0601584309677456
0.101859308963072
0.0564411390668767
0.063370135649482
0.0480703041061504
0.0535424577381347
0.0157958614893332
0.0888752156862943
0.0561737535284069
0.0587844088895517
0.0142273069744722
0.0728578730296972
0.0859910918803988
0.0845412844634689
0.0486545367658641
0.0342032918577959
0.0204103538457709
0.118854582371262
0.0599702751135443
0.0460174869681074
0.0578759112353585
0.0870605689928925
0.0475787737749733
0.0549790048276726
0.0218965401475455
0.0815833232418165
0.046607262465469
-0.00121698577888737
0.0684409239357005
0.124210126296557
0.0446499335610108
0.116880945356904
0.0451552859195616
0.073634349004198
0.0423423023243258
0.0670873762225768
0.0359094626075774
0.0536040084045552
0.0318073800797733
0.060039885202201
0.0701351625962319
0.0473770770264684
0.0311731107159771
0.08720820424947
0.0455647467804785
0.0402047536215679
0.113165175962681
0.0729672680808413
0.0132748038026094
0.0838323911536856
0.0537336140379778
0.0456893305329092
0.0362975632618349
0.0897022115856108
0.050476668214419
0.0559396217822906
0.0276166221160823
0.0556135404378232
0.0510418495753231
0.0666797464490393
0.0546808796520167
0.0617109780393255
0.00822944477480162
0.0417258628893363
0.0864129098159253
0.0931395749011965
0.0516267249014669
0.0626026930140244
-0.015201262832296
0.080948461633244
0.0690385925670984
0.0601672977829573
0.0418015986407998
0.0576342068807687
0.035842155637872
0.044738697677711
0.0466172929628944
0.0499920610313206
0.00241610982765572
0.0946813568870536
0.0746988729970407
0.0600170563059369
0.0365751035312517
0.0386429433006358
0.000207438737692619
0.122272395087115
0.0859502531793337
0.0567681669554599
0.045790153046866
0.0365084052369691
0.0460476826742591
0.0872853487900802
0.0431283230438157
0.063640703241968
0.0460008309103431
0.0629326990553777
0.0371620862879026
0.0660042896142306
0.0411915832648317
0.0593994405776373
0.0348946687443309
0.0572480881102523
0.0476177249432802
0.0730915051180633
0.0447457844254788
0.0628249257257142
0.0386738857067583
0.0453174721904087
0.0358436434470625
0.0845285589353487
0.048608293836591
0.0687292838841488
0.0418885369470999
0.0537211520062099
0.0382972779023116
0.0516603196623122
0.0478611704305683
0.0488546017043562
0.0190983979255424
0.103108826014907
0.0489921012742809
0.0691589129716957
0.0168538025650125
0.0854347234608237
0.0629222332040426
0.0671715645855234
0.0429519679699102
0.0699735991041549
0.0236340407076036
0.0452768792365948
0.0654292196680542
0.0618531912524019
0.0273419906624426
0.0774005246883421
0.0539677265132973
0.071620023254025
0.0275565129908002
0.0207291504425837
0.104833626074265
0.0670359625950715
0.0091542264086252
0.134068394468758
0.0640154879830233
0.0862645084187125
0.0286097297530514
-0.0111469121076656
0.121794724482185
0.143237992955376
0.0466353533478659
0.0638953381302457
0.0666119630471656
0.0586501156955954
0.0494857436890579
0.0533538563726666
0.0460724336941667
0.0730750141965582
0.0801623084383787
0.136750600552688
0.0161726578061369
0.0998108347583871
0.0758159537494191
0.0689702594031861
0.0526844581726433
0.0701732664337497
0.0398580115879685
0.0786505223862124
0.065642389600072
0.0866403830355138
0.0485674684767045
0.075639138514944
0.0850107361320046
0.0809167271228202
0.044779772825052
0.0721175000252246
0.062486156964561
0.0692544192257695
0.0612517169933737
0.0590515786294681
0.0657686480917062
0.0537566731967116
0.0251139669285453
0.137628159017551
0.0631520356981416
0.0655321349262035
0.0873141158189081
0.081467915459449
0.0619822975011829
0.0728497168189537
0.0608724728063793
0.0813649233226478
0.042709472370109
0.0586189475781959
0.0934172971682499
0.0909217270583592
0.0672751199880167
0.0816168274518781
0.058691035985234
0.0806160578419059
0.0682502831512064
0.0716723633297293
0.0619308153966526
0.0760435043107086
0.0446600195232734
0.0988177120500068
0.0877212223666645
0.0571169187240801
0.0739487305029913
0.11807834361613
0.0774424866620911
0.0895274294863929
0.0778188084408243
0.100379791665552
0.0723355004439196
0.100025326248627
0.065301098395713
0.0875486723830582
0.104215709755211
0.106710212066078
0.0561171539522861
0.0721956619910365
0.119577023412795
0.17524520321014
0.105911822985678
0.108781879359134
0.0473678868034256
0.133180037654513
0.10287283786022
0.129095475564748
0.11036811134408
0.114402674523339
0.103358848127575
0.118327722967269
0.0978146531250822
0.113499686880537
0.106552159390838
0.109377116518031
0.103593066701306
0.111088384312287
0.116285099069413
0.110908067582628
0.103137173540119
0.170234063770542
0.126866020978709
0.136979196544761
0.116645787272271
0.110897082436756
0.128726756753242
0.147972277688579
0.152903539093469
0.143055690696955
0.123612995533322
0.183126129797261
0.13504567168275
0.154107198444087
0.132491073244237
0.151662909809696
0.145299635030755
0.163072265001475
0.150926251860579
0.161648724169508
0.153705771292127
0.178300718612711
0.153099700267515
0.165641072994213
0.147286173024301
0.197933294535439
0.172736543138279
0.188085292257907
0.15276101790731
0.165352756155432
0.201114115131303
0.259135199950534
0.187548317223475
0.208447012961705
0.188356895523634
0.198212030940261
0.189576638425566
0.2050556847119
0.192173394054759
0.205806365462282
0.218934212399618
0.238227400831978
0.215365252246431
0.257116685302472
0.193985638945369
0.257701339125891
0.217606282681379
0.231742102730859
0.245811856216135
0.259153889298784
0.200247617631025
0.279179228710789
0.261211479141768
0.242345585901351
0.273200929113987
0.277780266719097
0.247052189709947
0.27745376064977
0.252842679585672
0.278192720167624
0.27918739630333
0.295004626579397
0.26934054307312
0.290742957676475
0.271975053096403
0.291801158176849
0.286642217031752
0.313882054100096
0.292916750005963
0.3197504727582
0.289888807737986
0.334947365063246
0.287309154155275
0.349140382156961
0.32019607666806
0.33733771094758
0.339033531938436
0.354779816586188
0.326193228532022
0.347010545725641
0.34089726544334
0.363916787380323
0.33383736904106
0.376993019734088
0.349858510567954
0.367715256177377
0.368295451351394
0.383305522439583
0.361805964239192
0.399601819620633
0.370236987769703
0.412018682224767
0.369041276589813
0.389187922399937
0.377481351347463
0.453939479190636
0.415386994507185
0.440104457180968
0.427191558480594
0.432246457355767
0.404896838609571
0.446876545598544
0.444913195670147
0.460817231381705
0.459799794151588
0.47116292757544
0.43723362923433
0.498213655637914
0.460570692282881
0.464819190176842
0.44690901710674
0.493506035979677
0.455758180785551
0.504058217121063
0.474081936629468
0.520796039335272
0.461774398752321
0.519636597913363
0.507628501637491
0.542488168430083
0.500001363629199
0.542139572338359
0.52106094608344
0.54281724535077
0.502509550924612
0.556407988184755
0.546807793498211
0.577945542687733
0.508851852530754
0.579642877996935
0.540228017124863
0.594415855760688
0.580936959659197
0.639273599375206
0.543007044523547
0.622077391137677
0.544390578492222
0.622137559103269
0.602400540007889
0.630423916336232
0.575394831181742
0.602598033726963
0.586638757498774
0.651508508392943
0.613042712476884
0.649470620408078
0.60549174639624
0.640935378813292
0.624858371077772
0.686946719087209
0.649971564851704
0.740848820763439
0.638388266842368
0.696644322485739
0.663636115274852
0.71773213687345
0.658749736470234
0.739262005983487
0.680113384385611
0.756049717865608
0.681949427281804
0.744860191684761
0.665048896785764
0.725781737781334
0.71603707718304
0.731565181956408
0.689857110075347
0.827051595048377
0.70230363537863
0.790876078626641
0.740434685208345
0.77575056928029
0.786752113911901
0.800688799009698
0.716324027093605
0.775713658944635
0.775468050884515
0.832592248289438
0.779590594942174
0.83130197501382
0.780637408528807
0.878226054443229
0.765501951483034
0.883022002196568
0.821457459603188
0.864998295674502
0.807566236716833
0.818812201670352
0.775863595411391
0.901007184060555
0.839078932040386
0.854881595064168
0.842399873485463
0.889083332662825
0.830395080564945
0.958850765618788
0.845811442394076
0.941316481518258
0.909978541132148
0.970832714713174
0.876569359196846
0.904329027904818
0.830055533375255
0.916734830425793
0.862743303737042
0.98240682034898
0.926451521603357
0.947253484280903
0.944420246399194
1.06509331627225
0.938259665152882
1.0238786605671
0.954792845172895
1.08388737271151
0.930203169524482
1.02048179771637
0.990361676436241
1.02460121691137
1.01157754982849
1.01575356830836
1.03395903983772
1.05129706631838
0.973366209220361
1.06019778704456
0.916088210944151
1.15248655651296
0.995496812277409
1.01440905302711
1.0074224395952
1.17158791607694
1.06898385705272
1.1073449492877
1.03638402141582
1.1208381221955
0.982248384702378
1.06520134197939
1.16535987835132
1.18715526146991
1.01910743326467
1.09145656463036
1.05931331865794
1.0560409156305
1.11571090138379
1.2580060114409
1.09931403972302
1.15888727030939
1.10945408871132
1.16229039052224
1.13801323431984
1.26218716192835
1.14842245947152
1.25464574202057
1.16650589890065
1.15511154349754
1.16053857186668
1.3366769386147
1.13738347555686
1.27405774498817
1.18974408316503
1.19406170542161
1.09723164422829
1.11676716605141
1.12354700468574
1.31610535977477
1.18808746378016
1.19744939964036
1.10886191956581
1.19032156309738
1.13232763929512
1.14206825053657
1.20757484092871
1.26480717658092
1.07260729067048
1.21326639427696
1.20582077882029
1.24280801707514
1.24726911900045
1.46339673399663
1.29324018441643
1.30198254738953
1.1924789874892
1.31731496627833
1.32736640549711
1.37609264742569
1.18899956025503
1.36409117920872
1.24274602382672
1.51996921579323
1.35245864612613
1.26420177070163
1.33237491852273
1.32127684972508
1.31190002343809
1.44612895873516
1.32627174491159
1.43065148473053
1.29004756158255
1.27854457037192
1.22963716157738
1.35766397945005
1.25973513368324
1.35478219372982
1.27675758819275
1.3697609574972
1.30695180124972
1.51005035437829
1.33825152290913
1.32652755960438
1.22420198856514
1.2788179370702
1.26052110034532
1.31650504554204
1.2887781164725
1.37200768747649
1.35594077794369
1.30574387807191
1.25125230815435
1.42509698995574
1.41419065176788
1.53695348640972
1.36449039019734
1.40889537411463
1.4319642572014
1.4949649399902
1.50970896588548
1.5070375777545
1.46257094416873
1.51540294545763
1.26887312235587
1.31579128605905
1.38441470949637
1.44671786374203
1.31639449166187
1.49469134242086
1.37888582101004
1.3531660610082
1.51834570314094
1.60028556066828
1.27387296140948
1.28295296764599
1.29384882085422
1.33242998794336
1.33917675843602
1.34047732839416
1.39885985265532
1.5552134089677
1.31796089131191
1.43052335577799
1.45486354439428
1.38665269942551
1.35354816829854
1.55430284443425
1.3820772156012
1.60398084725464
1.40495882353516
1.50580410005674
1.71001906928989
1.42637696018253
1.3416975459454
1.46702937791036
1.41972715626684
1.34439725882151
1.4225661272099
1.60677703906764
1.39515576272121
1.3567972611539
1.31836801024505
1.49359046790128
1.52832414019977
1.44521715763747
1.37899235161787
1.44858365294646
1.37431841573261
1.51510401934381
1.45870616526677
1.36867490505701
1.42376908713276
1.48458899613515
1.47059168237409
1.54746409158113
1.41675235184046
1.50908017118964
1.49924131747353
1.51105513822518
1.53662187563218
1.50455646557531
1.42399433265629
1.3857303280966
1.45028594524277
1.41998719674305
1.32994611926314
1.50617144608776
1.45501868389863
1.45910232275887
1.49016396706052
1.51176323423728
1.41660004652395
1.42491864187784
1.53162329724242
1.30757405964603
1.26851351141696
1.49807323893165
1.50760169554564
1.51307645580778
1.42981238069403
1.43815772186984
1.41477075471261
1.47018480177617
1.44581762537309
1.45099295342056
1.40145654342962
1.46591889047325
1.42756010717244
1.34616832150977
1.38796117595087
1.4840367574162
1.46386064149551
1.414656866964
1.38882917647221
1.41911643182569
1.34804137646631
1.35151092231765
1.37197032154546
1.42596802748299
1.43589252225562
1.34644255057728
1.35758725415774
1.47631432426485
1.48361459179231
1.4603977630242
1.38998831673564
1.29417170440245
1.34491144860189
1.39828663845354
1.49093180429825
1.40457813801911
1.35142430657248
1.40114155484262
1.43570253739664
1.44069661542788
1.30869954465612
1.35700970681457
1.34261775906588
1.35827892268483
1.441861029167
1.49980075759439
1.40320673095419
1.29549292450343
1.3689528475092
1.37234187147626
1.32576799682277
1.35386693898423
1.36638988696861
1.31697373738561
1.31584933216737
1.26980186823182
1.35952522905866
1.33619522449149
1.27731416793441
1.32897739014935
1.37508453229181
1.43406190546679
1.31949089570538
1.28381604276447
1.34045202271994
1.2807792872173
1.25627079907293
1.24463052550556
1.2577420574209
1.29594253294782
1.3303126951222
1.27824308090304
1.24111463667749
1.31427557772165
1.35386754860281
1.25031044478323
1.29376233585318
1.29398815661358
1.28302831966879
1.30981393373684
1.33082896508757
1.25623002684329
1.18369225860631
1.2264704717992
1.27946026793735
1.21954169717722
1.24618885377942
1.22686889062427
1.26272268823249
1.21655595556538
1.27008442212246
1.31592420355931
1.27164641701188
1.20615928264213
1.17376016544143
1.23396940408847
1.21836665136804
1.17186969071083
1.21577797949483
1.16750158538588
1.14765970218492
1.15541080311533
1.18991268919309
1.16142093782868
1.1557468005798
1.16514654684752
1.18247987881296
1.18847679754464
1.18108956283469
1.11212704483572
1.15392082227953
1.13385450670263
1.13838429508843
1.09486424466026
1.16121812042993
1.13976030694782
1.12082412444588
1.07068632216802
1.09766247237551
1.09134586735171
1.10510253002518
1.14319901119516
1.08771332580005
1.06298335438667
1.11233361599906
1.05362537570805
1.04825955363891
1.06832618759718
1.10089563643899
1.05143493686777
1.05259814738791
1.05547130013589
1.02942570805674
1.00847877326608
1.03501852852141
1.03261421267639
1.04288702306929
1.00585574187868
1.01710604641828
1.00644497551375
1.04385431325009
1.00841944738216
1.0075807475149
0.982535847566598
0.999196738447754
1.01184689923657
0.990430508295752
0.945347061131214
0.973679623659789
0.999119490235728
0.977930974965417
0.956589139040649
0.973169405884839
0.938689840066701
0.964701453313263
0.935446421460627
0.955114033123387
0.964327802273846
0.938840238259516
0.910978441474545
0.923567198809827
0.905910546341191
0.914389319509659
0.89412124285939
0.900255540987222
0.885803120066413
0.895834815393153
0.856345500058936
0.891331096829425
0.878160827181006
0.883654268384335
0.850816395843881
0.842400228026025
0.841313054802231
0.845459822894718
0.839445244147523
0.84437322439199
0.817045950118576
0.851468080818394
0.80770025813648
0.836747977389112
0.854631969977218
0.829886992046752
0.805898755910815
0.832712109658352
0.803842165051178
0.81644622949693
0.803756523234603
0.814377033649444
0.766163723901787
0.798073896002657
0.806459616462326
0.806180284345306
0.789709051338417
0.782553316260446
0.780593230977732
0.786353629119306
0.753410774681301
0.757081003673459
0.747237543615413
0.760709088563925
0.749609472232361
0.760320224028264
0.76049949599759
0.740298721281177
0.71123199705061
0.724507836566399
0.738151594995606
0.730218594286984
0.700631962559119
0.717073987769137
0.714655662188529
0.710861895825624
0.692361315820474
0.727466182796508
0.691470256121007
0.700698534465592
0.705479417997752
0.710528513575912
0.673582078115132
0.693171252418527
0.657796630413266
0.688296137859667
0.693712624020593
0.674277791291917
0.643387843472911
0.674758648972373
0.660379496839632
0.677163584300256
0.674852867772826
0.659333093661951
0.631139691546517
0.645707268304202
0.638167733315425
0.643556589807956
0.624950130896986
0.633587815154029
0.618235599488545
0.637021759283781
0.629006706498316
0.624078976940759
0.610433432323951
0.622586819105949
0.607098633757757
0.614446241488952
0.602543434097602
0.615632294969747
0.588276340506178
0.612074122357319
0.587848808936448
0.586826132708516
0.577731770242154
0.591226879912954
0.577174848224119
0.58212591393696
0.576434301326327
0.565202362860497
0.56519532672259
0.574836634844201
0.557956598010545
0.576930555614773
0.561072046865753
0.562596006652425
0.538181785284871
0.54607243838274
0.543441546563812
0.550463357882482
0.531888817378178
0.550579220068454
0.523151792847603
0.539578950677255
0.525578783887539
0.537867527723784
0.517247362121297
0.541378500630929
0.529768495515499
0.532052586661394
0.506238550429031
0.527608304383463
0.50864317672133
0.51892944274501
0.507550856591499
0.514115857540623
0.506030442564118
0.50952705989482
0.495467402146504
0.499423311554869
0.492287947203179
0.497861960328191
0.48471823978146
0.50326593059812
0.486582662526909
0.500238857162353
0.485992608741569
0.496260226524792
0.471654217195627
0.489725016057187
0.467137412683688
0.487134514215291
0.471452461104253
0.491732864111702
0.476141348163767
0.478518514926258
0.463133411122801
0.476290351875468
0.452667633908759
0.476528308724962
0.460615434619662
0.480404887906271
0.463031596905473
0.467955554382012
0.463906157590092
0.467078846842226
0.461606520935229
0.471633290028542
0.466261223962455
0.471203161773907
0.459670681983279
0.478689828639574
0.453895988756341
0.484825970116387
0.477591057492278
0.478077976011733
0.458179517967782
0.473747525417188
0.465727278640143
0.470529258957897
0.467279633461085
0.48377090233445
0.473670583539347
0.481577589869946
0.474071480156793
0.486295961412762
0.487007018386282
0.496042308922045
0.486887294653465
0.497724428227331
0.496376079725412
0.501977415427517
0.500534330234866
0.507823556906056
0.485885039395011
0.507871602710617
0.500749377178419
0.514566633863534
0.499270028702667
0.521595874798456
0.506011342906255
0.525522311259562
0.506890158600536
0.545672113560747
0.51181260400515
0.52540598222689
0.511502444549818
0.534449981298892
0.517792635601607
0.541396484183375
0.523053223727413
0.542094591003056
0.531879349046218
0.55337989110888
0.544405123820515
0.561621559477016
0.542263234482615
0.564514869108722
0.561127186576638
0.583871231228205
0.565756482146468
0.579489848170529
0.576228085618985
0.594438676847775
0.572279224370754
0.591271841580351
0.588640394444091
0.605915124608554
0.593483340843417
0.597987036852337
0.576618970371624
0.602293688049121
0.607418624258541
0.614423483856281
0.589559666985479
0.6269110224802
0.612113794949609
0.612138309936933
0.609606511683423
0.632862475762381
0.604422948184632
0.628649553741665
0.590761443808815
0.632278404589706
0.598235337939506
0.603935949316331
0.601808803326011
0.624534762027524
0.595600781701018
0.612818502403954
0.581249245802687
0.624384377788662
0.610773960164175
0.619934554481807
0.591576152749152
0.611340542747016
0.592264010674361
0.623447205542655
0.599553802472559
0.618053009504284
0.591859991036862
0.615227490284806
0.596105015249867
0.59740901125055
0.588260817696125
0.616975786174153
0.58697436450304
0.606828296814991
0.603469305312579
0.601363938850476
0.582675796986771
0.603033152659588
0.593779619063263
0.607485696207771
0.595234594694685
0.631260894948826
0.597828470418334
0.609677108134166
0.591394728510851
0.605598980892179
0.592314743864046
0.613068699813761
0.602531561666388
0.595028350881812
0.592567311901673
0.603978910583891
0.596834636730477
0.601504501201968
0.579009206254387
0.594599784773123
0.578764826664269
0.595188485621312
0.588998075465286
0.600746204653157
0.575276036001777
0.583196974859271
0.575627521203877
0.588120967525928
0.568695359235193
0.589767685824593
0.557772431942619
0.57598999840676
0.551860065374499
0.570065612586888
0.567077967659778
0.569609050283689
0.537915887567858
0.551632847315157
0.536945309564146
0.552642142466608
0.52385410941178
0.539626300008463
0.534429795306049
0.548490691466443
0.515832372064304
0.523748927010059
0.495093908239067
0.514988551185028
0.498552812027345
0.513146273383132
0.491438510797759
0.487950991949489
0.485964707321559
0.495662251214635
0.480945965296396
0.485736881518943
0.469086622518237
0.486699237010972
0.466677364042941
0.479567499100543
0.464823271816563
0.471149058337271
0.451665750776763
0.462256223349323
0.450307358547181
0.456636521388324
0.439502542803572
0.455179628997651
0.436246693608175
0.446795280467382
0.435439479416804
0.453643114655453
0.43494968605669
0.434236881444109
0.423042407884865
0.440036038130647
0.426692517197152
0.430399219631901
0.406380314915599
0.429623837662884
0.404340188073363
0.424579305715258
0.416025635757334
0.422324056025537
0.417784213101934
0.417606079622996
0.407197023071364
0.411959591597112
0.394154263939067
0.414975178547835
0.399143334536982
0.415116704050156
0.392048230196659
0.403790019865803
0.390351550934255
0.400027920350517
0.38693043023486
0.3944057870234
0.385664409052979
0.395742178348739
0.388632522317963
0.39131441770938
0.377489454518194
0.395612067060012
0.376430777393046
0.391253150247306
0.373177096417685
0.384375229896818
0.377527370702674
0.385760388127314
0.367810837554061
0.393494115165289
0.365034674950066
0.37804681535064
0.37079889150812
0.379312420092883
0.363446056684356
0.380898008491624
0.355039860037434
0.376146629022804
0.359965202027235
0.374499620231452
0.349060670901379
0.370957293085547
0.356767410339796
0.370351391449044
0.349011783473886
0.363732951620805
0.346717611212098
0.366962585559663
0.352838653101735
0.360110952713255
0.346165035699952
0.356121863799471
0.35234548506373
0.351883546635569
0.350219159713266
0.348923225053784
0.338869083779755
0.352959876801963
0.335084393313617
0.347885517750397
0.337049793542013
0.353340445240044
0.340156064110834
0.346481793905503
0.334933364808683
0.350152841475762
0.343041428704438
0.345080248915329
0.333669317974389
0.346103731497082
0.330409238435127
0.343632264887641
0.328995964627441
0.340098968413601
0.33654592514359
0.344872745333524
0.323963294637321
0.340286288351116
0.335212929861118
0.335729628404404
0.325590817184304
0.337026080716207
0.323014154163367
0.34512136878421
0.322333388716776
0.328028435043546
0.329317852228057
0.336191751614433
0.327609070610897
0.332647529808518
0.327331832951999
0.330904213884832
0.322702944868203
0.33440045844243
0.319859071199275
0.327152224943002
0.321317183801711
0.330382594909336
0.320852444636588
0.329114897825711
0.319486026082571
0.319739490703799
0.314968626538558
0.332646953741278
0.318477853319698
0.32357678330676
0.311261431168248
0.330913054803942
0.31497550201672
0.324552076743296
0.315375422683605
0.327230582686596
0.315723375643875
0.323978377891417
0.311801711958398
0.320063161195085
0.311190561962741
0.320711019629612
0.31229511795582
0.31558314991227
0.308505404119291
0.318999503782973
0.308479015966803
0.316792162175153
0.309813071618938
0.310956616224272
0.311627296987835
0.316807384790075
0.300123849316162
0.309989831749337
0.301365002979084
0.311179536098055
0.29754578628934
0.306105060512106
0.299455580080302
0.306196424602393
0.302635082511707
0.305049684570555
0.300184655645683
0.30414346083986
0.295608807628386
0.309958265276491
0.291751180090431
0.295236618746128
0.292572247479561
0.308909868784825
0.292629687928741
0.298578845232598
0.291066883880568
0.295835888973339
0.289558859179684
0.297543102312724
0.283801392769242
0.293566977637085
0.28882095910827
0.291741954016588
0.282523451372769
0.296200772182188
0.281313120331606
0.289630061107941
0.287037914607815
0.293355157116917
0.281607267416049
0.291061926318494
0.283897771821719
0.28853585283739
0.277648033310179
0.281938082146196
0.278122312909546
0.288345742471125
0.276282437582679
0.284052948035808
0.274003810279348
0.28147690028394
0.275959641578059
0.278626761870351
0.274618540865271
0.271473126765299
0.270641671222743
0.277766675817861
0.272830449080911
0.270721385693632
0.265345167399249
0.271506616990565
0.268700828355586
0.263792452636766
0.26247302888786
0.273450307207346
0.261082590315495
0.26573305287605
0.258397315537362
0.267873676804137
0.260138636429817
0.259969181997233
0.255757950569115
0.263354351615872
0.250353895093689
0.261072087331014
0.251045838811751
0.261468496954367
0.246136529617967
0.263708417717892
0.252525113780496
0.254431074496916
0.247253155783151
0.254068722068445
0.238973761414261
0.251869496892282
0.247742635574835
0.253697897304379
0.245855714314778
0.259285973840475
0.237797365529579
0.246716504672399
0.241048813964212
0.2417978197927
0.244152508713677
0.24176161771011
0.241214419120337
0.243459573548237
0.241988329255708
0.242891681620614
0.239607142134815
0.242084516556299
0.228342167706932
0.243610589984638
0.237150653538557
0.237611214886077
0.233628984431747
0.24169709171893
0.231357209267023
0.239289417344264
0.225961555466039
0.235721535587438
0.228385241468162
0.235761206869959
0.233008888492941
0.231373308000238
0.227878658064694
0.227135033007536
0.225363200265232
0.232325869318061
0.22388223345167
0.231637549346249
0.219976378995196
0.23058085277006
0.227020988345773
0.227140264577362
0.214619406907087
0.221149868608323
0.222053948891742
0.228650822700898
0.221793828256456
0.225176002884447
0.219358630945087
0.226349466036761
0.212958858700792
0.226680020362844
0.217647248439233
0.224913766872274
0.218801643230099
0.220324094536611
0.21948895550266
0.222855938591356
0.211873125668077
0.217780085673969
0.215026182329581
0.219427432863192
0.217079922975558
0.219742977021177
0.213037556572665
0.214002330400777
0.210276261101936
0.218825432844624
0.214414806094991
0.219071157180867
0.209746761520959
0.218271609892983
0.213794249163722
0.218399849376361
0.207499455057938
0.213790309571701
0.208609598858522
0.209551720315578
0.207433960554607
0.214454242231584
0.202982979234641
0.213806245103767
0.211535414618519
0.208678312012051
0.204696070793492
0.213028227804047
0.208837773422807
0.208703032368571
0.205195569747112
0.211075664889203
0.205098696122776
0.210978122031892
0.206421912152443
0.20709290107721
0.197837767505423
0.209781172020588
0.201452870740885
0.205449460196889
0.201499882732216
0.20619970433799
0.19463967936056
0.2086224607898
0.200677207225932
0.205163281481716
0.198132691801314
0.202149942788049
0.202485628428963
0.2034144696394
0.19873718972782
0.200728537641774
0.196745140764379
0.201134444454287
0.195613899734843
0.201553762830286
0.197091953674893
0.195092604366103
0.196204954912402
0.202115612859652
0.195488086782109
0.195284303347488
0.189013447531166
0.195828675060332
0.198214383069024
0.195211760095152
0.194051790925801
0.196763856192394
0.193175888292069
0.19390640619716
0.188298724968576
0.193683351498658
0.189287008296627
0.196078959677677
0.183756445971353
0.197383817133341
0.191809024139166
0.19081548936015
0.187754938489416
0.195347309608181
0.187778921321422
0.191767621309949
0.186382431317218
0.190452414273199
0.184762441040033
0.189847240969793
0.186818594939977
0.193514307812698
0.189032834373157
0.188705886864748
0.180592340989527
0.184304094888842
0.186962747243005
0.18711016106966
0.183418049653439
0.187544594665785
0.179419101346166
0.188834533953778
0.18192187851587
0.180775246751721
0.175216864242391
0.185408984899846
0.179625440195061
0.179953730853037
0.177791772151859
0.180294921409381
0.177827822161351
0.179959516322795
0.171982338595444
0.180240211213633
0.173033203472425
0.178376695116099
0.175783707586309
0.179038356565567
0.172669317148424
0.176426088630288
0.173344289435334
0.17357486078122
0.171630680402958
0.174769194223912
0.174036726237073
0.171091804082412
0.169131780407731
0.170750805820999
0.163358159215102
0.175306709802477
0.169586426818687
0.168865607522635
0.164348520231447
0.167720694183617
0.167332627185842
0.168552652925846
0.164264818775608
0.172106493016969
0.163958670037517
0.161313615833247
0.161081435619084
0.161898986394317
0.160956995088656
0.16575886066407
0.160191114755178
0.162068045997905
0.16085882011189
0.159987396704551
0.15862104563679
0.159669416768339
0.156037366473969
0.160069387104137
0.155797525863902
0.15833736806024
0.155111450078779
0.157580228200612
0.153877023092385
0.156849958250736
0.153647051058885
0.15755376239268
0.153790080224474
0.155792976176405
0.15191815586272
0.157623332476181
0.153015377023096
0.153918868771908
0.1507273586408
0.153253532129118
0.152730771249578
0.15139612866651
0.14584551690885
0.15133894036828
0.146018494274721
0.146997503985583
0.147683792772392
0.148207606318108
0.150133813231647
0.149036994776875
0.143089045504758
0.142875559667539
0.142581130493442
0.144513331292396
0.143401449244744
0.142329540205493
0.140581460656308
0.145565624338501
0.14273874415763
0.140958741095931
0.141076022499741
0.140896638042829
0.143165095261262
0.145026040179613
0.139668153574982
0.142230258608548
0.137569371698679
0.140114250082015
0.141605479422101
0.142500789593252
0.137281655762387
0.135691039423894
0.139221825557039
0.137882240388621
0.137153816178813
0.141170677968346
0.138152562193407
0.13494044317557
0.134945258573401
0.136470023282279
0.139311045148763
0.137951575034045
0.134640224624906
0.136746044386962
0.141645703822519
0.139792310706922
0.134110902163146
0.132222938376161
0.137078973556589
0.138843728966696
0.130977420460756
0.136116876317126
0.133996808513784
0.129819609116752
0.136954950615879
0.144752312336544
0.140695935855603
0.135683668561997
0.13419163407206
0.12897190244634
0.137649344628936
0.140970409083262
0.13922112744059
0.135358163892759
0.132996480373143
0.136277310203032
0.13459134530415
0.13538092851633
0.132240202553247
0.137813004937805
0.134776765888675
0.136056259182844
0.135691864850239
0.128211818666606
0.140430347204463
0.134429298872319
0.134294321923878
0.135333562596619
0.132908275361867
0.122494546697675
0.133069385988341
0.127663681799899
0.131731940846528
0.129015544136499
0.132496490004776
0.121771110296064
0.140682366519267
0.122731075204711
0.140170642645141
0.117256201106015
0.138901128133078
0.110244855473842
0.142059415719182
0.120370314626485
0.148485940541174
0.119843107265851
0.148341525007573
0.111040773510947
0.143320345083003
0.111549613406103
0.157126307926225
0.110983212396336
0.14367875739668
0.0979860564058303
0.160019666516254
0.115623478905968
0.147917220562259
0.100464806043865
0.148701607166792
0.112224942694634
0.133532557711213
0.115897926854673
0.132077693164429
0.125277238058525
0.118257033865251
0.139004823196544
0.114902984702317
0.138505489931403
0.112499334695772
0.140177337487518
0.110225663853669
0.132625659568084
0.113398940803672
0.132477144262248
0.121109535575444
0.123910422099319
0.122219594869524
0.120433387855956
0.118611449411207
0.119465001741376
0.12062586338636
0.12456325194312
0.117081406827848
0.122816506322947
0.11464561859019
0.121481491104417
0.117127222045016
0.123785961582208
0.11483339342716
0.120395040247923
0.11999208197992
0.120542642517538
0.114929198001822
0.118768580459845
0.11865855857197
0.121396215693029
0.118615348908146
0.120469659117519
0.113626991747903
0.12009381474853
0.115923166009568
0.121678641318613
0.11707867576909
0.12068177018244
0.117098951886825
0.119647367783033
0.118867747999801
0.121257978769917
0.117187261973261
0.12130373057763
0.117123380339301
0.119401030725909
0.11861193143305
0.120716690699183
0.116183327866503
0.122682737408121
0.117156220858477
0.117252176856697
0.116286588360021
0.121426445256932
0.115019746457551
0.117557179191355
0.116422022301074
0.11880250748715
0.11933677074492
0.119247503997703
0.115656625371528
0.118946655107585
0.118644959975133
0.119108148985015
0.11535939784825
0.118328958743057
0.114965077634083
0.119646906330759
0.117735220146259
0.119917999782205
0.116162577282188
0.117899205012813
0.116023921503862
0.118272052791731
0.116059075179621
0.118181334166016
0.116048853004722
0.118933864986865
0.118363318253232
0.120109626647669
0.114060199839475
0.119209396896697
0.116780010354758
0.117439205994365
0.113308728217583
0.117785036066776
0.117706163935353
0.122007961121584
0.117617448137895
0.119068177318297
0.118080676200792
0.121653686020801
0.116974499109318
0.121193942704912
0.119803014720907
0.11736571799884
0.119580325680482
0.121033833588731
0.115696914714956
0.12058244967014
0.119288225761784
0.121698699301867
0.121709522216986
0.121439916887404
0.117769169329601
0.118825763762064
0.117638711342759
0.118838444535007
0.12109199500913
0.119858985512866
0.117900450526151
0.122973609570464
0.116759943392638
0.12322557958402
0.123251147945885
0.121230242460864
0.119148762345699
0.120839410782293
0.120752588829898
0.120430815501552
0.120501806527204
0.122702304693431
0.12306014041598
0.121949437844784
0.118883001434458
0.124788517463434
0.121056632614382
0.119948267532175
0.123229711787278
0.124696038962276
0.12025061003102
0.118254307008646
0.119894770485651
0.125581147565585
0.120995624428942
0.118818670022408
0.121389109207016
0.12548615809899
0.123347241366854
0.123687164011507
0.118787998852242
0.122542872074243
0.120987409982122
0.123025272086979
0.12388345912883
0.126070099360609
0.12354054347234
0.124187535475439
0.123769771140356
0.121910089702863
0.122855206488238
0.123316151064571
0.122931654437419
0.124538413549656
0.124727082612903
0.126217823831014
0.125268191783482
0.122626476750114
0.121909547476306
0.125360604103481
0.12402264143661
0.124264266213743
0.122289475674378
0.124438408855447
0.124210812606427
0.127028504933638
0.127167004374988
0.125065400631644
0.12549551055404
0.128038404198897
0.125635199078591
0.130338372554317
0.126015891863245
0.124047962503653
0.126617480319292
0.123783277613317
0.125235248056987
0.127643742134479
0.125857485396568
0.127445348895965
0.125593548556242
0.12608466512998
0.123914691536142
0.122572242860379
0.120399653221663
0.123314958794914
0.12454191374356
0.124748623953867
0.125639219111208
0.123063818548678
0.123359396932589
0.121570746099798
0.124207750354964
0.124549170708867
0.121911748543745
0.122897594771077
0.122925536407345
0.123293654017855
0.119435681652074
0.122107036150479
0.1222021718757
0.122092968411245
0.122756530214357
0.120210853558978
0.117261433997406
0.118531002296772
0.120094273909256
0.12116973651294
0.119791298333088
0.116377193831735
0.118447604966179
0.116968071786667
0.120897669378492
0.121397216239371
0.119313433645756
0.121989714559479
0.122588598420919
0.118543088434244
0.116217779516055
0.117171688426736
0.118417001396984
0.117335861228892
0.120596808794007
0.119790008279294
0.115362009461505
0.115550282625049
0.115479076576921
0.118250392443599
0.11893725115237
0.119323701252567
0.118993975897294
0.116032311632242
0.120221477461747
0.119637338877867
0.115975004117077
0.116225481693288
0.11322317189972
0.114583495917114
0.116882631946051
0.115580823338214
0.113732063200236
0.116749434114546
0.114411981769981
0.115508786895986
0.118305310171783
0.115164099102834
0.114662003268523
0.113934505911191
0.113810529389796
0.116589809700622
0.115620340907542
0.115750157759115
0.112101940024267
0.114925873019003
0.113688642916757
0.111639381963001
0.114891769008712
0.115942946286583
0.113916578853566
0.111109848418432
0.112489332354696
0.113131078503599
0.114204009734957
0.113343782686929
0.112014087881331
0.110587901531649
0.114317834127305
0.112421140193593
0.11747855957884
0.113327267292388
0.112566279757887
0.11095283735806
0.109573476822119
0.110998020673755
0.11018456688143
0.106683590788869
0.111223270414383
0.111292752682386
0.114489961833665
0.110366354844159
0.11061872799897
0.111565432850819
0.110706467089982
0.110201340334576
0.110259958419435
0.107547446316971
0.109949105285622
0.108997169164586
0.110437881294667
0.106289844054949
0.105895988204175
0.106235612775887
0.109146755022071
0.108319942934551
0.10981666797209
0.108544053302545
0.109092319681851
0.103771326414668
0.102480820953175
0.106795074984396
0.105630887207554
0.105717864338629
0.10101188567134
0.103341031105018
0.103890667491998
0.102823397383126
0.103325601652646
0.103990925714635
0.103088183230923
0.101416820049766
0.0972077220762498
0.102813655033158
0.0995898632964162
0.100463180694405
0.0988219766031215
0.0988607998820354
0.100284243111868
0.0964634736202036
0.105511990763813
0.101921356267853
0.101035573904455
0.0969078025350176
0.0997136444717847
0.0945152507666145
0.0976260890201096
0.0954032981708298
0.0954058292605383
0.0934472058461444
0.0949158762725279
0.0969339561223757
0.097500097819873
0.0924672809760066
0.0952661924500942
0.091684451648372
0.0949003971323035
0.0905804116305183
0.0939323782170532
0.0928839268203997
0.0937621735368615
0.0894120408774372
0.0940724551697976
0.0872385642214779
0.0913737543912946
0.0860338895083241
0.0913257734440275
0.0884047197243358
0.0928766854530287
0.0882135404011584
0.0915509471456125
0.0929001133925418
0.0899640017117814
0.0889005968827708
0.0885063389909747
0.0899480739456387
0.088416112858252
0.0862236225588114
0.0871123255001869
0.0879890559027692
0.0869187707176266
0.0876108607241365
0.0866335402495566
0.0877451021491507
0.0875883994216811
0.0861422113386216
0.0901778530096906
0.0868256928326824
0.0877763692377126
0.0844667026263108
0.0864967473914428
0.0816467912763384
0.0816726714428298
0.0890238591426665
0.0848609801093933
0.0849990086597762
0.0822194305128017
0.0872456070195134
0.0845259022337965
0.0828024676775512
0.084953564682747
0.0836714920815103
0.0830620376943702
0.0832475350142661
0.0826695520939045
0.0794251904588505
0.0827966654205224
0.0814155464009899
0.0817547845320818
0.0834423179464879
0.0820248504506022
0.0812462333385567
0.0777398228597189
0.0798146081931986
0.0788108764681187
0.0802595351000062
0.0752031967872227
0.0853105898986061
0.0736544249945724
0.0792257373339734
0.0910024297131475
0.0812641809937091
0.0801906321336719
0.0799638633077551
0.0813022940922949
0.0732782840595743
0.0777722993700403
0.0771727148941068
0.0784331175539334
0.077957009376028
0.0795395570610434
0.0740835166262444
0.0783099565729684
0.0734449332938214
0.0781511982628375
0.0753217172046041
0.0794308230873956
0.0744323919204575
0.0781560731306411
0.0711418567112617
0.078472971918841
0.0833574513634336
0.0793998796449971
0.0774633360989313
0.0789763644570139
0.0634393115634457
0.0955863424029497
0.0770497755321352
0.0822747309442581
0.0709490853003669
0.0802039470097959
0.0713990634420376
0.0827307243653498
0.0712159804402739
0.0784669277297977
0.0796334367892247
0.0762962280166277
0.0785117797304714
0.075066138154071
0.0737166413318037
0.0705210615483808
0.0739750976541749
0.0720219417109925
0.0728711440417573
0.0756004256436657
0.0735370977204991
0.0777007301288469
0.0703912243322631
0.0796942349512329
0.0668834124951816
0.0759074116420479
0.075451907571534
0.0774980245952114
0.0728802902684054
0.0800479521028463
0.0680806686811651
0.0763572014002576
0.0898998410471204
0.0743805625524908
0.0779769144614177
0.0688082806566857
0.0752841447203548
0.074037297047345
0.0752440097678735
0.0699837150263972
0.0754047112740129
0.0735261673689825
0.0741350145007253
0.072100239616817
0.0744559744991652
0.0730044347198157
0.0725227301468974
0.0745973799319378
0.0709270003882208
0.0757101454498771
0.0698460965937265
0.0795848968051859
0.0627944513066936
0.0771363020780539
0.0830747423105338
0.0824771412287248
0.0766768756774869
0.0785622770029234
0.0738160010586101
0.0771976263807793
0.0728029667459211
0.0732989576756595
0.0740964921128047
0.0731489210336694
0.0762766428360403
0.0721897936150266
0.0771997641657951
0.0702115324670364
0.074935884555524
0.0689970067455839
0.0723489370221233
0.0692253997037243
0.0779870025931445
0.0685269698783289
0.0809718182662996
0.0626872138521289
0.0867348460501735
0.0715755956989344
0.085114614583962
0.0434240801399507
0.0990309178803644
0.0904472363469784
0.0790950862113264
0.0828642354153181
0.0716889646046344
0.0821071775397978
0.0693892787778671
0.0759650589258385
0.0798776324574846
0.0771035814339081
0.0751642200326645
0.0739553867813231
0.077635304255309
0.0819534451059451
0.0670069668095474
0.0649014690275967
0.0967417224942883
0.0771747729015965
0.0861258557323903
0.0728185881851457
0.0653938049970841
0.0990521356216739
0.0708112954766641
0.0837636299252235
0.0745484872199751
0.0804188973774207
0.0783480480907713
0.0826688379949286
0.0717352302329002
0.0838163487739071
0.0791024943744607
0.073639316936585
0.0790880619611179
0.074682204973636
0.0842863693741131
0.0754620763335434
0.0828288278212295
0.0907859828752686
0.0761514203558437
0.0841413872603127
0.0823369253588765
0.0810765372165563
0.0818651438448158
0.085974213626021
0.0742849429157969
0.0805872141518318
0.0924882606242205
0.0740907506699022
0.0886493235055226
0.095206221094727
0.0771412418454424
0.08937538755359
0.0782023491766076
0.0979927970793647
0.070692322190717
0.0783825432420826
0.104439126383483
0.0800065335769923
0.109575808478053
0.0762848856844563
0.094844422941257
0.0768598218267387
0.100529450353371
0.064696642786932
0.109188817875635
0.0763722082751165
0.100613821611934
0.0757924970727758
0.0972971853471303
0.0926072046491012
0.0958113229990693
0.095298746166312
0.0895482149886903
0.0807643032072638
0.100044271445788
0.0946690991632503
0.0640157330019385
0.116368619432502
0.099082589662592
0.111912598749126
0.102538764959342
0.0692720086737453
0.131490330716946
0.0919662341245052
0.10663436664557
0.0879253318975645
0.100536975728414
0.0928265744756851
0.0803971343384201
0.121771816635329
0.102711913340164
0.0963001924610057
0.11270889987456
0.0793099440831384
0.119695368741043
0.109830671969115
0.110947603070075
0.0965285181678903
0.121010758362793
0.0735847090921846
0.138149086522464
0.11673989928394
0.104068300452271
0.13540351400563
0.113355820922331
0.12803336893707
0.114233327592473
0.120335116356779
0.10607115672861
0.138696132902953
0.120657351619183
0.109480265170027
0.116339437926607
0.154915390146223
0.109080110422245
0.144819166561146
0.117844029685474
0.111989922406734
0.118452698972167
0.173938026812386
0.152634279591606
0.147970016377128
0.121202308774162
0.159003495485542
0.132394758820142
0.146171130734844
0.139676018154756
0.140112169037458
0.143284348885775
0.143113204467474
0.161070242479132
0.147751624962429
0.151744783787014
0.160182789822168
0.137740698005437
0.15732174025024
0.160722834473728
0.204526022879524
0.147400060765009
0.202209808007778
0.170441363687274
0.176278088301068
0.17147363818692
0.169708721969071
0.181176778651928
0.178901138587304
0.179368740348449
0.164470619831313
0.197326621663739
0.195176131045426
0.176390503761536
0.227397446795604
0.17806340774351
0.211821948257917
0.0882888447252196
0.409778505945201
0.209612545327002
0.235104215813627
0.215727141969632
0.187563564330396
0.299996171494579
0.253924846486384
0.247732823887341
0.258082166628863
0.251982774739984
0.263590757074847
0.279559835881393
0.275592221777499
0.288437775026775
0.30511481826764
0.278356104902733
0.28338156049953
0.343465552636445
0.373593062991486
0.355942813155859
0.329348112576728
0.356385701667508
0.377516007327213
0.354319830033499
0.376539218027377
0.378553924944584
0.336400418569417
0.466987870410328
0.393695791177556
0.432339756425076
0.395263611888194
0.475847406861956
0.400632324285774
0.494715186333404
0.497568089916957
0.466286082440169
0.494442123944651
0.4762248110918
0.507039026805726
0.46789634500329
0.560077659145343
0.532514159450567
0.526073281805976
0.536486506415834
0.546405323062324
0.550443138361155
0.555927164568738
0.57230072440446
0.538452818958206
0.583873660163181
0.513548321575171
0.711851213283086
0.654079516382587
0.569624715352483
0.612984052832672
0.548165179892574
0.628007443860642
0.589589352559596
0.608116908307676
0.633384304875904
0.598547669681978
0.599312169003677
0.596487157783553
0.629231231315708
0.605506893192125
0.623842244272594
0.588661372447392
0.630450060755036
0.612114890531089
0.570469320679362
0.765121547829752
0.609147551252251
0.619284407215163
0.601151367265864
0.611811469186486
0.599616321619579
0.613440771479369
0.575270776613174
0.642415786123662
0.593959982502412
0.610759870717253
0.563079412198863
0.593867780653686
0.611030459397099
0.569093521046037
0.571230399488063
0.557294923937264
0.563423533073429
0.550491951165323
0.491994850081676
0.662309047628189
0.533510178156412
0.543424325187575
0.536146011525579
0.539857367412293
0.516760541064499
0.535192935170074
0.532251115041173
0.548063770897242
0.506604947074136
0.527990032588346
0.510780089762463
0.520660025024712
0.510488256946898
0.522870405889337
0.509822697281732
0.497975352382163
0.49874439331869
0.5077204641471
0.508297835793906
0.500257662251038
0.501336091955095
0.507929276648869
0.493729654945012
0.510251381098246
0.498586015648915
0.50240237312649
0.505019220798275
0.50288051764072
0.498205577601851
0.493861981732505
0.495126691671587
0.495641486087247
0.494163139540477
0.488101356499833
0.493832668823732
0.490454283858306
0.485224172131619
0.493728120778869
0.494801054700331
0.476295814408348
0.491791014824603
0.444883862671732
0.506731384883701
0.522033582104484
0.465409879219363
0.492331420956426
0.456160278151509
0.493231612711705
0.435009077020695
0.49156044224963
0.495499623418355
0.463277204211923
0.462384041865519
0.446097461732628
0.44434412171178
0.480377933557694
0.43231670621633
0.459162381681524
0.41505686407332
0.429018786182634
0.508580757008052
0.396887236314357
0.535039341364992
0.446318139757656
0.438355564241887
0.387461648280276
0.483869783122869
0.416260430745951
0.434831351430679
0.415045832396808
0.421216020453067
0.446460998071945
0.400799245354236
0.427495747091487
0.402994582061715
0.405218039058955
0.439570435992567
0.402066865973398
0.373220421588875
0.451615500168584
0.394765837649869
0.414568202564945
0.43392480962069
0.43264408358741
0.387031408072894
0.387747775535704
0.385488292460653
0.350921511454132
0.428184514162761
0.393071141866929
0.368221571632875
0.382937611599597
0.348159019376157
0.373113999824928
0.358260041464996
0.380824471923027
0.311512665514396
0.398188157710644
0.34732743237986
0.34347892591065
0.365567746134002
0.340930225748045
0.399298409598418
0.351838771241143
0.336664270188426
0.325190129427173
0.38722815914862
0.334329096266068
0.348112124064352
0.334011237668394
0.303371422733426
0.355684369174095
0.319890905548324
0.311712479943232
0.334797487255092
0.295899829900443
0.347123022770089
0.33601268995939
0.341391664615067
0.329877812223166
0.30281817010213
0.313741236131344
0.310264325269671
0.313723668630282
0.299385322510826
0.285120296810266
0.342434746063848
0.268551221416462
0.352213356072484
0.326462848658421
0.310357925421202
0.315897154595458
0.315895797073848
0.310692660723171
0.333817906493855
0.34017379653386
0.35034419755936
0.303208580593163
0.355402450731076
0.330127145638464
0.343115546448967
0.333338603095023
0.351847406987603
0.337678299626418
0.36236672646769
0.360869670684781
0.366127927493138
0.370062204783881
0.384312401407174
0.350689627656655
0.434705847336236
0.374843158516663
0.404537820335327
0.439660149580018
0.433050783662042
0.458648462848058
0.423418143543225
0.443911261890062
0.439455417664835
0.455703049886737
0.463471246193615
0.438844466718551
0.505921253881544
0.478361796311717
0.482718499424534
0.486247065436483
0.495275261885716
0.495114122687729
0.499203786627869
0.517776488896853
0.462383868836706
0.581595093856327
0.506670419657495
0.54128271935747
0.519204116605349
0.521822797824771
0.533550587025648
0.527590296365164
0.53868381720932
0.511380454350852
0.549801989176792
0.553427479371457
0.540485252698617
0.558027666644192
0.542709478652331
0.543295487431414
0.548277245864789
0.560350023921642
0.559904625697454
0.561036804121087
0.574087905029065
0.537992064266606
0.614085432000143
0.610494190306332
0.568260810363857
0.603713152248172
0.581238687264842
0.608269355726331
0.584838945025034
0.60794398648482
0.627113541575615
0.611804563128041
0.615503476570151
0.61828242608646
0.621169638333818
0.626481633887479
0.658457169673152
0.643105134110079
0.635036811510632
0.652398245885411
0.581576531159236
0.731802441429115
0.636058225879297
0.678379708228405
0.66092826606353
0.665084522516225
0.662457104739678
0.670135345461037
0.669474401942705
0.681055635079067
0.669997665250969
0.672815212563064
0.674362368524217
0.666585144079076
0.670937024265951
0.668592463624743
0.685619578821478
0.676285151505013
0.672098391826234
0.687369228260224
0.667126622441127
0.664336591265865
0.663791876618423
0.701941872564554
0.665041472796814
0.679170326442162
0.66012290751184
0.685081026548581
0.687807511149408
0.67483081526026
0.672119153419555
0.682941195067485
0.663980492140286
0.680628990815998
0.654699403464901
0.710461307393829
0.689719290278904
0.698270925171338
0.684551964799414
0.694551453184076
0.701989851835859
0.703028100433535
0.696993098018267
0.70142805716202
0.701060994000261
0.71284783506374
0.708417624247979
0.7052054617907
0.715575734820531
0.703481793589412
0.719367464121768
0.726224825299562
0.706112606779841
0.705408974507542
0.701782874488069
0.717689955928509
0.694585603241862
0.695541729678626
0.691555591994443
0.683853614047498
0.674502773709654
0.702771718060749
0.683953285408979
0.662542979003173
0.683083184953333
0.653616255750767
0.65850996484637
0.646406382844011
0.655419644495521
0.650791433075043
0.645641603917106
0.642682910213617
0.634495221583332
0.630981459059873
0.631790799888656
0.632160170977652
0.631392369115671
0.62568280504089
0.624471648500569
0.629781715715989
0.619658773590039
0.625811419192745
0.619821897290953
0.615694261716065
0.626017277657896
0.621685863122715
0.629552143503568
0.623106347005117
0.639652235324342
0.618763417357638
0.633095933309557
0.616118979516857
0.613286344121615
0.624425198628666
0.622304522299155
0.612441253908245
0.612971440399074
0.617449184771715
0.614976980582049
0.624747844348761
0.614805325265005
0.606609945013845
0.613096036438585
0.612207438976667
0.613608753368115
0.613348807362384
0.608305949771481
0.622930237372484
0.610764662035167
0.622736666313502
0.61126030864662
0.619573933047752
0.615492554290332
0.613586332770165
0.618389995383518
0.610219471549672
0.613925221336303
0.615295055223812
0.613941317907367
0.611051669648381
0.610822161777292
0.609080780645347
0.610955754259703
0.616347854840751
0.608809016761847
0.602963913286626
0.60208187800341
0.602966598966693
0.594797115083188
0.593407220426816
0.585107219343835
0.583391945318589
0.577480296948578
0.573981283011141
0.568794189924835
0.564452588549637
0.557573236682392
0.560148450666373
0.551888913736876
0.550894805185085
0.549341467642083
0.546034385902885
0.548526439289623
0.552075787811578
0.542844881884834
0.538750779760828
0.538613468772728
0.536115859904253
0.535715870779857
0.539230579530098
0.539135943653893
0.53833382627991
0.537819712471967
0.540714884501475
0.540631768419256
0.542555811788221
0.54204592804217
0.545764034142335
0.541909327586419
0.544114583322074
0.548991703403459
0.547683125990866
0.555775309290116
0.555626870650033
0.556207281434548
0.561487858943426
0.561466741122868
0.564301019276181
0.565852097228441
0.568111438883432
0.564505046018149
0.568298471966295
0.570641989477597
0.570553659228868
0.568338259103661
0.570279419196382
0.566300205803063
0.568183870899622
0.570088917559341
0.571033741152032
0.567177020000767
0.567996900235825
0.563729913773182
0.562576811423555
0.564160273646007
0.557963845466488
0.558688908811108
0.561675343852706
0.556374371354354
0.553798806387801
0.551962459141139
0.553836219377578
0.549169803573932
0.543877335493051
0.54225709829553
0.536824111149521
0.540403914549717
0.538339585516315
0.535792204945246
0.538536357631024
0.5309370731669
0.531225458629926
0.531794218329393
0.530368481317873
0.530969684655918
0.527292916306215
0.526979023066004
0.524072318414889
0.523305857384222
0.52448200445592
0.522238127563442
0.518469128763155
0.515217603416379
0.514031240132965
0.512875477010678
0.514281335115518
0.507449099789196
0.50533243824831
0.500699965146652
0.499618860932394
0.494478581174577
0.489500240914462
0.491905180781388
0.485413472461533
0.478862281379147
0.478773431341439
0.473704400297388
0.466705959558174
0.467667420685499
0.466271560698773
0.461368048735434
0.461842972390552
0.45991317071909
0.461360321446688
0.458918439805798
0.456526030282466
0.456067168881994
0.458504244769224
0.450934331123181
0.451443827640464
0.445962637687691
0.443159632029226
0.440306119088571
0.436922128789327
0.428479762498889
0.424501025660772
0.415987827156531
0.412985966663173
0.404759407365653
0.402168706148577
0.404099306431528
0.401118678435018
0.399204501970453
0.402169475359246
0.406521304188527
0.412214740334819
0.418154058380712
0.426260731578895
0.437407613986305
0.449074371303455
0.458735935172682
0.476143736531327
0.490279836980726
0.508693638542758
0.523677678317072
0.541819248270186
0.557801070795067
0.578619259327432
0.596966052245722
0.609573115908847
0.628088823601172
0.646265650812217
0.665562510837695
0.684371245029071
0.694038390377945
0.716522858195212
0.727720564733936
0.744352284383095
0.75924445070722
0.767721187290772
0.787127880433826
0.796561074944163
0.808205854368301
0.811927340123445
0.816030094993617
0.835626501612172
0.84480135040554
0.852302342482889
0.846091852945784
0.851054247695578
0.85235471626523
0.860744702389341
0.857207452105698
0.862909257993004
0.854400429077762
0.86436417060828
0.874487291310987
0.866463375303699
0.86674193398701
0.865125682071414
0.87404863011211
0.883460588708245
0.876694192977376
0.878289746531598
0.883523887576339
0.89724545078356
0.901420872614283
0.905002493880597
0.91782091451282
0.919744143881421
0.918477108960114
0.937434972453132
0.951482595337273
0.957987589191681
0.957701542503399
0.963963362320565
0.985527200702555
0.995958179833521
1.01629267893764
1.02774602175448
1.04139604246321
1.05173454376858
1.05107632779108
1.08621796456432
1.076056005046
1.09008136437687
1.08622549578542
1.09620446367521
1.10760748147553
1.11195496425298
1.10000445195738
1.09712386729617
1.09013485120563
1.09784271723397
1.068165348659
1.08237857891676
1.08051737150362
1.09295954368785
1.07512125794417
1.08712642451861
1.10018052437736
1.11989518713184
1.12990310408737
1.14289089557348
1.14868255684904
1.15366391252398
1.14675234553281
1.18761392453909
1.20968941213528
1.22636891641676
1.24749510001414
1.26110340947027
1.28108279288524
1.30031469423853
1.32875892393913
1.31900405690419
1.35866527038925
1.36688882579089
1.40708667497984
1.43732826572436
1.43106924744206
1.48253321007537
1.48085031383848
1.444935821914
1.47740339573473
1.60927564240457
1.54718542624766
1.56524784320403
1.58918766347896
1.69886814829052
1.63279937799105
1.72259852524468
1.71574908455611
1.75728130239961
1.70908964188914
1.77469240915085
1.75293902359214
1.84500678387996
1.87614724912213
1.96969660094325
1.71633642232486
1.7825617027491
1.77432703320724
1.76850627550782
1.81881152091396
1.83258001480328
1.8387597720324
1.8078789329729
1.80538630295052
1.8042096521496
1.73058834607481
1.76163088224885
1.76798383420388
1.82961143960705
1.79180759091904
1.93202455828157
1.87588825959319
1.9080766892924
1.8418617616671
2.0032555676187
1.82699225688837
1.82611740121041
1.81854818781123
2.18243054226425
1.88490281195994
1.89260142375873
1.98364911535479
2.19918308010454
2.1259743832066
2.06559837107863
1.89650259962611
2.65550990485448
1.87542232158963
1.98642784972642
2.16430269393061
2.16183303031309
1.88629704254888
2.09992683770537
2.2940172415131
2.09838334143766
2.199613171438
2.09061838731563
2.08500975252283
2.49972632674275
2.17654121917479
2.39376212893889
2.07416333306521
2.25973964602507
2.05517257064361
2.23828312751478
1.9973956791729
2.07719304210068
2.02521613105407
2.33122715723087
2.00965122752395
2.06637801787996
1.92050952532816
2.21269882342822
1.88993985748569
2.14265231060084
1.92665490103777
1.95077168687074
1.91414599957068
2.2453874467879
1.81062954321632
1.87890554796287
1.67584002165447
1.80700156402369
1.6466336922222
1.66663690562072
1.5463405980433
1.6880496841998
1.62142897005488
1.65117935874558
1.55299733446286
1.66544208241603
1.50402012699596
1.53869901806348
1.50764461201287
1.61292813727184
1.49169603688864
1.58201506561334
1.51688159563019
1.54810372316101
1.45672045863019
1.52112135485145
1.43991792342462
1.51539602661249
1.36045386817732
1.40978223125137
1.41203989305285
1.35782365477764
1.28211033791983
1.33258307340892
1.21038458891987
1.24639145864268
1.15844202956539
1.14677663236509
1.10358115257372
1.04409124639016
0.99649949800771
0.976474813149348
0.913833568509725
0.90886977648475
0.846186540598352
0.828895671870108
0.792356650616316
0.788907316363051
0.763889837354185
0.729658312704463
0.707228374784942
0.696966575416501
0.680573040243684
0.665508587194521
0.655937198439895
0.64888145515472
0.630739491192229
0.655794074417752
0.63284600139621
0.636040637071324
0.622625895531461
0.627719781404274
0.616327153297493
0.634748346741403
0.613516912043173
0.622202227004267
0.631605423703522
0.631312637092791
0.625514502332015
0.637796565170196
0.627370526245046
0.623041499429639
0.612684316019756
0.607300306799844
0.617728914990215
0.60134651441382
0.595416027361162
0.596683369799208
0.590052372051852
0.594808977811807
0.580911986995298
0.579677156789983
0.561283101551496
0.572047064958876
0.568217972358213
0.580853213893301
0.569369140071779
0.587622528842807
0.574383384631244
0.58390631854755
0.582956723718211
0.591827528542468
0.585327196787153
0.603927048110077
0.589211379013391
0.593592947523099
0.597008775839104
0.622199748143908
0.600883717870669
0.612078387487045
0.614452411715509
0.614285265478324
0.613521612649104
0.62842839587649
0.607069249104517
0.619490498262907
0.614532609007453
0.625923526732064
0.623006110414796
0.626111489397306
0.626836481522493
0.634160438385407
0.628200873944241
0.643163873874187
0.644904828730961
0.676785608624158
0.675449844028517
0.689687146761374
0.698214492095257
0.7242045560297
0.731452922392362
0.766676399713156
0.753206787659058
0.78338431821174
0.788043998500803
0.816402330212587
0.78664300511958
0.807378415081025
0.778424611748194
0.797163785335151
0.788097935610447
0.782606303680495
0.759805762700492
0.762513459782188
0.732595583931368
0.755336677368991
0.737225904950881
0.732151791768436
0.726728240508756
0.721281027908049
0.723692309433926
0.735573617995483
0.729308949528039
0.745109184062381
0.733528262578204
0.749522591027973
0.732814778625492
0.723629900143923
0.711128671113172
0.735627479688784
0.707899606607482
0.708649908681694
0.703205355198467
0.682489395829358
0.68859728756493
0.705230267533658
0.667927287014978
0.686138810415866
0.666932896771518
0.691935542020891
0.657970999830986
0.662328639597116
0.65149138476517
0.679732622204479
0.648856049829
0.658727229610236
0.648542374174795
0.665020531636152
0.619132827046881
0.640309733686038
0.628899967337349
0.653377185232628
0.640420476606385
0.636781719389006
0.631393734489889
0.632738499230329
0.618678101318996
0.633806116913809
0.62736078590253
0.625390868659468
0.603326400179276
0.63361788056163
0.633741429973255
0.607175570494012
0.603396510905137
0.617023595929439
0.601192192691646
0.59912878512548
0.609694051190739
0.609871447875706
0.615184952585443
0.595650480912082
0.586714097092936
0.60237329345111
0.581622294505817
0.613284086618248
0.580535264889957
0.58813565661849
0.607400937101446
0.594580277035659
0.603623067440343
0.59500278083582
0.583412239491662
0.59753687957172
0.600698679698244
0.630361018116048
0.631438384184551
0.622874206971963
0.624585701734923
0.644541999194231
0.618022916408671
0.61380488727927
0.589841171668381
0.629786784677978
0.621136485402795
0.614531295780261
0.62475466950773
0.639359927494096
0.63819331909958
0.674475629869713
0.642210550447415
0.685758577026904
0.664497846179775
0.729888042835178
0.689520909325431
0.711955358173654
0.697023492182413
0.751079156547012
0.710090163872162
0.786430606336627
0.691560376787642
0.788722199102324
0.739372777028351
0.811947911612246
0.81220500650148
0.832054425904329
0.855245186675003
0.977093382928664
0.91778590803216
0.948082497119503
0.967281067431407
0.940563095299615
0.899265253674888
1.02477574237742
0.886603065859069
0.993728731067538
0.925253700501693
0.979332920633775
0.907452786261094
1.00651674862703
0.945142539129796
0.939258601431506
0.958813623574595
1.09456397781997
0.950904874225788
1.01292695452006
0.878470776156751
0.970385108968872
0.874652407532463
0.950493558552623
0.939243556166452
0.981130296149426
0.877840849720395
0.915572454222098
0.945854278933062
0.941401561457262
0.909710838253372
0.927219063380023
0.846799242898924
0.920314834280839
0.878325544619755
0.903007736877188
0.859827830990798
0.907061985571325
0.795265610232034
1.02067381873511
0.822499789431602
0.887101078116014
0.948162882653522
0.917977262549106
0.824863094494383
0.843262555617327
0.800696819761989
1.03964322645747
0.846835551946378
0.919065331429902
0.898665767482403
0.884790149784961
0.84215854968302
0.932854471482578
0.886846578162715
0.939830794447009
0.826054738064246
1.00934442356976
0.821389083404984
1.00797275280217
0.85556995962144
1.04449113113651
0.876511583965911
1.05648084692005
0.920996580318816
0.985399610933371
0.840748079901363
0.936264155865833
1.01024141986662
0.958536412971676
0.845507274960548
1.06239205292614
0.869854372237785
1.10822951983284
0.931509463359679
1.06248596003379
0.92977157391244
1.03527048390904
1.07023147303154
1.11814768077033
0.938468638668109
1.11840854389985
1.04100637920501
1.05578364775583
1.0948141234848
1.19311070876791
0.98876241512094
1.13163268158634
1.06699600074719
1.21328404098319
1.14139727594867
1.24305727419276
0.919825467497202
1.33014111998331
1.06487901863897
1.26203345366691
0.935530323515445
1.19342012199142
0.998558858065719
1.46545744863859
0.945947632960034
1.15730314064692
1.47747867477697
1.39837158757403
0.947106305083198
1.01698409885325
1.2342648536215
1.18773290588054
0.881572854728375
1.29609727000333
0.976560243840297
1.75642462816817
1.33845130032914
5
1.26022328188593
1.4758833258818
1.07570057361891
1.1828449718937
1.80510625942418
5
0.912552094916754
0.890102919623156
1.52079650758773
5
0.9463443478369
1.06243070616656
1.27301858379182
5
0.861513911400211
1.18378543684537
0.615761299074709
5
1.05856529392264
1.09498995409763
1.0763891369368
5
0.896275000021012
1.67154320624408
0.80539911925988
5
0.776288902096477
5
0.803218341723492
5
5
5
1.02648370781871
5
0.937439385404144
5
1.08934411723772
