3596
4000.36533379555
650.420452594757
1
2
2
0.0604053181154097
0.0465726619205769
0.05861695685297
0.0391912638857798
0.0642468779776352
0.0511846768365084
0.0661895711974398
0.0533190015524504
0.059538850472061
0.0523527974792814
0.0669462119335555
0.0495436695252798
0.0680820635732092
0.0402048907066981
0.062669247726917
0.0471135069021423
0.0608912652554988
0.0383369569485472
0.0701693156395044
0.0441209460707812
0.0588244210407776
0.0516703051841791
0.0732266632321426
0.0364528329259846
0.0545754659860154
0.0599993719686525
0.0565637198409622
0.0369244239986647
0.0727180713178161
0.0467816045824429
0.0675581285463765
0.0482998463082168
0.0678974517413501
0.0446405115583502
0.063158490878667
0.0497877054518541
0.0656272386520949
0.0441684201581139
0.0647468277144413
0.0446471364228578
0.065241148759157
0.0405674825385928
0.0601232474072064
0.0488257232022918
0.0606811144767358
0.0499022776703334
0.0520786462599578
0.0509588028742895
0.0625904798263734
0.048885809333937
0.0648706853680363
0.039578744276707
0.0700487352879757
0.0440181947652106
0.0643720860373681
0.053099260530715
0.0643293998666063
0.0524860767299596
0.0559691891675343
0.0253018478991749
0.0735265765306287
0.0562908167122747
0.054284908211126
0.042691740308568
0.0690209973923712
0.0513959473582826
0.0560796147717935
0.0366705258483361
0.0551838623695513
0.0355416167889457
0.0434686000167393
0.0640689724060018
0.0785583804909268
0.050909442088085
0.0554954085329333
0.0443057280670982
0.0665708171354358
0.041740531097418
0.0462311066220543
0.0524526102913376
0.0600071840837058
0.0489253418833464
0.0530497118622282
0.0451686102849006
0.0549429841633987
0.0525157692678437
0.0515866616541329
0.0268830776895874
0.0788628419434734
0.0565006168278448
0.0572385935790835
0.0436080874405766
0.0584510571257282
0.0431217423292682
0.0535501391227675
0.0450049647871013
0.0614639982261511
0.0367802762136493
0.0443163201145394
0.043750568973313
0.0555486294644084
0.0252529905663749
0.092944575562086
0.0233196669153734
0.117330613884219
0.0526254164802203
0.0375461952663323
0.0659471911242613
0.0795203333115193
0.0426381187835975
0.0526967615459974
0.0415066218858253
0.0558665919945565
0.042145792525103
0.038247783013462
0.0386713384086449
0.0854393304013999
0.052826704076329
0.0521214676425542
0.035887483653844
0.00674473240418193
0.0431891124230987
0.101916769436703
0.0371472471693754
0.065175303353679
0.0395310250451367
0.0279909661875774
0.0582726331820687
0.0907524840965306
0.0501303648432168
0.0558314240275177
0.0336465174002062
0.0510878719062714
0.0093758560693539
0.0854477422320585
0.0470089891806674
0.0462075284912088
0.0119624800883701
0.06940280773024
0.0866566597162549
0.071594557516073
0.0350748137535994
0.0315009242997423
0.010930369811456
0.1107096392306
0.0501475855828378
0.0352621883949693
0.0434920446500723
0.0735456124949244
0.0327270913285798
0.0440609708865491
0.0249263320654835
0.0735577753118799
0.0409271659498784
-0.00885891473441161
0.0456703866298638
0.119253968947614
0.0474822241810596
0.115146795079605
0.0436870784763601
0.0679606792443716
0.0366916700681786
0.0494912369367166
0.0352286876884912
0.0534902945666677
0.0236054034158086
0.0467901157083974
0.0659476862220809
0.0450391137716819
0.0197570885038124
0.0829768490271007
0.0379378845465706
0.0318412625166606
0.0997753465073397
0.0660463348882065
0.0134112799206421
0.072743296871533
0.0617016906629917
0.0388136235632008
0.0260721945147371
0.0943196483958925
0.0474520807133165
0.052922509041635
0.0247847163371516
0.0424532446679614
0.0501738275203237
0.0542268169856874
0.0387180846101199
0.0498902934366509
0.00175163114945842
0.0427266793821476
0.0840023639717341
0.0856146785836938
0.0445952432597072
0.0483849565902412
-0.0231264830360873
0.0857960407863748
0.0727838447180006
0.0669895488023722
0.0390268995954444
0.0451032904829246
0.0309091689614945
0.043821183990259
0.0462926297665306
0.0406226460519337
-0.0106141645826961
0.0926848093820919
0.0650017737600723
0.0547713105995226
0.0206561715693171
0.0413109875535052
-0.00393912783759798
0.112070652010905
0.078196931417743
0.0541069409843609
0.0422389979560272
0.0258856293372092
0.0263545216676672
0.0759239283063874
0.0474102214145558
0.0585683452632359
0.0294978229926479
0.057830943032048
0.0350620453470964
0.0567644993565541
0.0412771012073183
0.0542104138343995
0.0302392926545122
0.0428784546132659
0.0383409638995549
0.0688873250856541
0.03971258178027
0.0594479358989367
0.0368300794057479
0.0288941612670737
0.0332691180575325
0.0777239857092772
0.0452267251889454
0.0552538346628933
0.0321859146589567
0.0513308375597958
0.0343951434442167
0.0493266064528631
0.0384658638435333
0.0417976747122277
0.0145825327421231
0.0833553908028088
0.0488234577742116
0.0593738816741288
0.017903345622909
0.0668717153077038
0.0550213493107453
0.0676108932112958
0.0364304976635394
0.0683592278835357
0.0239642453412364
0.0449956481112937
0.0670308709167498
0.0576419326087806
0.0205873239339041
0.0676045762389366
0.0487908387587466
0.0480177425844748
0.0147997655028429
0.0143903345164835
0.105427474059258
0.0668399493305199
-0.00154186735736285
0.133277869212794
0.0663204755235611
0.075061556459495
0.0232980437950174
-0.0189375794414636
0.107866821293952
0.116494040334939
0.0396786551088729
0.0522482708891259
0.0623442791882024
0.0503679317658659
0.0397777315184251
0.048840610029017
0.039116986742345
0.058494071657683
0.076185632493723
0.126428952247975
0.00774842306358567
0.0794250698940677
0.0583531563388787
0.0641018726614763
0.0396688246307758
0.0552622287378693
0.0286528766451908
0.0660195183747038
0.0521843078339186
0.0691442526569408
0.0424519286660117
0.0662695340102418
0.0751629958375798
0.067381291172949
0.0443246406241004
0.0630267062370527
0.053081654236588
0.058353270265708
0.0502089147611335
0.053471833436872
0.0556374523811581
0.0470168228019305
0.0116396001012488
0.125876823964588
0.0565173942600632
0.0489433653903724
0.0724764816535581
0.0727268342725738
0.0439895264644818
0.0615119394589883
0.0547225677463677
0.0604104806536529
0.028963603896549
0.0439786425031755
0.0821884135544192
0.0781984974121771
0.05697911513415
0.0642892933980251
0.0475905787690896
0.0629523312592033
0.0532717991409189
0.0655833539437933
0.0505674406375659
0.0673384683354243
0.024309491544219
0.091789899889963
0.0713225566621002
0.0399307449952302
0.0856725174870599
0.107401858966303
0.0615596178991623
0.0752424106052462
0.0553398335616597
0.0724411248179323
0.0628223984173243
0.070505159432335
0.0506597590143017
0.0736913924142738
0.07680527600634
0.0889543513966099
0.0408631642715587
0.0525760506729525
0.0953938818084948
0.145823367094644
0.087096080073874
0.0809599848426586
0.0287882581522618
0.107872423092529
0.0796934333525022
0.111544837854553
0.100535507881883
0.0932190288366065
0.076765423271244
0.0909327754601645
0.0687796352576913
0.0941655882712144
0.0831256682403521
0.0814828738973465
0.079386296021408
0.0920586220982483
0.0890051259881419
0.0876645938151181
0.0719736745460412
0.14311696904121
0.10139492618771
0.105817706924931
0.086669114712989
0.0861511340437767
0.084564576662449
0.117430714013095
0.127835210213438
0.132933757688182
0.104189501099872
0.1520452763613
0.106960545156682
0.124896397043733
0.108884887883218
0.125671096413186
0.110584646536357
0.127207408988064
0.114547196915608
0.127224043696925
0.106374153599544
0.135698705684187
0.121391947399189
0.13562934836974
0.122944457216725
0.161847158491616
0.132346874602473
0.142044435135019
0.108118382024369
0.14167746342339
0.169428307088196
0.225923249077372
0.142077923694619
0.165759255500301
0.151293793477145
0.15935036018256
0.14363115730203
0.163061079204975
0.149427741455259
0.146430924578866
0.176711821915706
0.186487468891959
0.182946717820491
0.202095334018267
0.159328741995904
0.196838873718438
0.173531147097545
0.196603610752015
0.188016775561074
0.210710501267475
0.15953090597032
0.212927121472739
0.194299485525808
0.205397364906701
0.207085318361917
0.213599820600995
0.207588835531836
0.223282636700152
0.205124234782452
0.22379132930376
0.2049400027726
0.236011802650206
0.213431091962663
0.23102479601485
0.215724131810424
0.235663775353824
0.223563691740496
0.248030518966779
0.226117301216343
0.2593166009345
0.231093097168099
0.262118391730099
0.222319674613582
0.280455273236505
0.260232485506881
0.269408135714877
0.268880907422979
0.274473629602554
0.259351220898166
0.280177823010419
0.273772251397259
0.289362436309057
0.278148957478933
0.301746346380007
0.275701760855308
0.310032495342773
0.285916139919362
0.319950280298312
0.292662318820544
0.309166998991057
0.309985814105947
0.322379156577089
0.303351500770013
0.32904701968379
0.314103878353168
0.362154495199426
0.336900028105679
0.373883993543293
0.368723151056703
0.36741795449309
0.338611197768925
0.365566890931827
0.337953735906583
0.367830856605853
0.348118372008664
0.394738847304783
0.349021749301692
0.40422801979848
0.389281772461912
0.375264630457545
0.399306824811558
0.412320241341077
0.401990396589951
0.457115900778234
0.408925095625975
0.422350012375904
0.390268258998589
0.437260718235755
0.422125531832601
0.439640728634832
0.398775833798033
0.465279695452488
0.428184846561072
0.477682398586443
0.438871443168017
0.492089379425493
0.453541351738644
0.484926683273396
0.435554805196631
0.502480713255471
0.490205338978024
0.514893777574931
0.488569634042394
0.509202339549257
0.470254066629283
0.521082639903087
0.513717689833146
0.541627363438766
0.49548575744196
0.550322083135659
0.521856034453293
0.530122126229274
0.484711906580325
0.570422336945052
0.515335896033055
0.560352865795988
0.555183367184241
0.546125653049359
0.540101219531908
0.585134364877957
0.553120739720959
0.626925563326943
0.572585295864179
0.605319284878208
0.593468725289224
0.614406540286154
0.580087191864973
0.606998283849976
0.581943532315445
0.667621639984538
0.594431276039404
0.67489015230116
0.606673620609487
0.66164345546753
0.654143109476817
0.669950014358127
0.66556825819126
0.700484411022336
0.696705666814815
0.676535353104746
0.625426851754201
0.717336398147553
0.65776489027191
0.729603950472056
0.66397597115178
0.742559595176502
0.738856626497732
0.745522385736723
0.714045046266238
0.767059719440338
0.695638303169099
0.727008565485152
0.709332404978226
0.770056835610003
0.735677914498043
0.797492552978817
0.716524104429727
0.76684851093229
0.759911961603231
0.743767661208837
0.763192286116444
0.783619255222381
0.760355941136138
0.850211583337725
0.760914612384733
0.811389165067319
0.804111083116485
0.827351074674751
0.818442393560557
0.826135183736573
0.762793334616523
0.87399803364227
0.824172130263366
0.911170205319658
0.864994088484698
0.921992283836815
0.838633467518738
0.966618645740998
0.843661674981536
0.935939675548132
0.862531049185714
0.939577685171076
0.859607411561887
0.912628412707664
0.786055582826851
0.967974877842617
0.921692421268238
0.96455213149383
0.85117867033087
0.951067144373269
0.917159129685409
1.01329564446148
0.929757991449103
0.967290679525747
0.897435513443397
0.994210661892903
0.907754133017135
0.933608246445645
0.973490059273543
0.996143985240702
0.923760685425101
1.03387514329754
1.01535861777833
1.02027068365446
0.953826369776878
0.966668302865002
0.943642635087819
1.06466942161058
0.946968206225332
1.10434156212032
1.05206694765234
1.08594478958847
1.00056661728086
1.07201385290106
1.13920652545566
1.13339476526508
1.06802248907585
1.17609003186375
1.03942588017709
1.02995239313687
1.01872710517156
1.13171893818941
1.02417747923928
1.06886113087952
1.03823760438079
1.1320925621227
1.08314602501407
1.26122457465434
1.07577781251396
1.11251101690146
1.05253743417212
1.14593396393623
1.0320521197855
1.11703507126283
1.11548532445007
1.11325464780688
1.11397412058748
1.27403611727823
1.16926063831939
1.13541782362611
1.07887366488031
1.13142329487055
1.08264575111437
1.29798377132016
1.09827870509014
1.19542113819323
1.09279095524456
1.22712615240408
1.17223936998688
1.18795458303334
1.14082764105336
1.21867256455816
1.11429557477916
1.10953845768506
1.18141961055046
1.24718123566795
1.11915048005946
1.26681590182808
1.19053005405289
1.32545231035662
1.17488411048068
1.37965882400983
1.19483171517445
1.22629252222893
1.14574900671571
1.23770806965374
1.25214918421321
1.32727120246604
1.22542729539931
1.39724656921194
1.1833920249735
1.14785156694499
1.23663986498875
1.38966075448793
1.21110046852071
1.21481905613319
1.17000616224825
1.29055995066189
1.1621030530526
1.33321720276875
1.30847883884551
1.32483366534792
1.2780334364662
1.38328551900748
1.30754081669455
1.27877800237992
1.24668292378462
1.35209505672189
1.27290916586157
1.25047707293318
1.33082722175431
1.34614839794995
1.25079397121427
1.27812394898079
1.39141751763324
1.4355618615176
1.21834351863066
1.32119263534116
1.28011982610493
1.39025074321244
1.3527207905721
1.30141588633843
1.39476709061157
1.41043400836333
1.21167535876545
1.34415868801993
1.2374769779996
1.27978477602939
1.36483846217815
1.39586572920015
1.33601160648924
1.412041030632
1.35168725979361
1.291360505071
1.28659458393714
1.24812583210659
1.3182295327406
1.5099013677933
1.3041293384222
1.24939527414096
1.2741474440752
1.51198339973748
1.41179253434256
1.4477077903605
1.26325271715047
1.3153105589666
1.35639824210759
1.33005161289605
1.38403906295187
1.54198709536975
1.39867772554532
1.35317292760621
1.28329209833328
1.35415697179228
1.31532298280904
1.31070821551133
1.27172813279615
1.28698201806376
1.22427540357906
1.36084233285822
1.36679883264071
1.45739124911111
1.33631972802839
1.29732480334762
1.27182510781431
1.41398158234707
1.32534309578829
1.44060818323295
1.28086420457029
1.30765140940565
1.45283982908326
1.41087473530138
1.35036085563404
1.42016101865545
1.29027839675395
1.25286998997224
1.27942777331686
1.3213328733598
1.31854169435038
1.41444530816302
1.36489411193581
1.32895593579531
1.30123735393436
1.33537803231464
1.43759991317779
1.39839289080733
1.33363036724432
1.31909804123242
1.30793998071949
1.32975314754883
1.29698855210685
1.33746475755304
1.37561408643454
1.38035680844886
1.32928968111482
1.43595508627668
1.33782002194628
1.36274710990082
1.38583357236917
1.42379071617102
1.31928126876165
1.30368798751329
1.24317823277271
1.31561979709405
1.29040023858415
1.24914155176019
1.35138413914949
1.34245730083317
1.33968613740612
1.38716714523538
1.44336572312226
1.3010023908924
1.2762990002143
1.33328830851886
1.22801702761069
1.21865422900962
1.29657245734261
1.34351209655762
1.30184654830307
1.27147414878259
1.31085154615912
1.30250147084686
1.29953259653355
1.27087528112016
1.33140653910384
1.29074493077636
1.28807214345821
1.32388889131248
1.21815329264204
1.30801645488767
1.27417027149949
1.25733206680317
1.26980218220847
1.22565774546505
1.22958653688645
1.30014505586304
1.31428873754078
1.3074570200829
1.23213203336598
1.21084902905963
1.27805878940866
1.30934973698833
1.27728716954965
1.19994009402303
1.20464196334742
1.21097554624837
1.25737434930204
1.30438626511411
1.22989089356678
1.16811231877376
1.22558240693186
1.29591740109567
1.26366552087892
1.16682854745593
1.18575981979454
1.19978807975749
1.23382809286409
1.18705752030884
1.23732138858989
1.13520668066129
1.0934557568147
1.1633807026541
1.16954919979611
1.18825397935682
1.14879239333356
1.18670259541539
1.15250030783391
1.0820706471442
1.13787673977637
1.14127625408095
1.13985979479231
1.14198527161276
1.10258590159462
1.15144270045402
1.16804194363526
1.0945425509702
1.10489777422901
1.13603435463147
1.13622756989099
1.08920036175605
1.11049665219927
1.10846595114415
1.14200679143266
1.07722492952027
1.09561849908733
1.10895414188749
1.11744918970951
1.05947145431818
1.04960688944463
1.07039083030495
1.08505698900389
1.03408790863027
1.0520538621905
1.11487709398236
1.07022572930378
1.03281331559094
1.04464712540611
1.02188505249491
1.08077866252681
1.07926169972607
1.0287417391491
1.01625229350939
1.02167965283571
0.989993979796931
1.01114872309231
1.00369997227438
1.01430148387235
0.987106469580517
1.01202807659889
0.983413084378443
0.984481726620854
0.988479555773599
0.966035519550967
0.966866802757593
0.964779339497189
0.929827174770929
0.982028573560347
0.967216491922979
0.988408315172429
0.952127674784935
0.983144650709446
0.959792299906559
0.951335267572584
0.895053582880788
0.958986829993267
0.958762223059237
0.918309546617996
0.931099481208553
0.927141154038851
0.861920205366926
0.886524761686739
0.919537132433337
0.917452692570511
0.882441959985867
0.864255718835328
0.86724330883777
0.880423117659965
0.838059594851834
0.86047552680749
0.833388883973377
0.850083754426874
0.862993018421754
0.860753846187747
0.818705942076517
0.849543619529779
0.843005219715764
0.854661038691323
0.821743949859478
0.854165054315051
0.832926198195462
0.83596208974069
0.801519445830055
0.836539209647384
0.796378827889386
0.796868670712826
0.796807818027235
0.797744103309426
0.812259395544633
0.794580281227047
0.767076943571933
0.782670464314464
0.776094299746097
0.767289146366908
0.77079178626116
0.744653757755295
0.743755087470588
0.772210618583089
0.73259570942838
0.743266053197265
0.739380451385239
0.718823205762646
0.714011199468734
0.726175906516108
0.71750652748213
0.755055512134222
0.734828767382796
0.731422851541734
0.718374268612971
0.721270040038003
0.707650546248143
0.703310208501076
0.697736005565646
0.691834701225296
0.677932152227281
0.720907354785185
0.685310240476519
0.713258349999691
0.684864053260852
0.675378920096082
0.671785423589366
0.687910221855376
0.667251000760999
0.656268614995811
0.643101238779812
0.675158425564915
0.650864347285153
0.648394049544095
0.650509465023245
0.657073848282509
0.636761366022925
0.638982812122527
0.629109556406204
0.648864484145774
0.638886181488646
0.639625579339073
0.624514215332992
0.629462803887766
0.62961315842037
0.637943623487406
0.610452165393222
0.626494539724464
0.609288380611247
0.616748790882361
0.606246575162857
0.593573618420941
0.589259615501548
0.605981479354411
0.58968476484405
0.597362237280293
0.586730916340883
0.594736843745793
0.583663832550415
0.584076623477817
0.562567511230481
0.588498078919395
0.568392649240936
0.575337818438795
0.558635029090645
0.579617584406805
0.56358203115853
0.565898418200277
0.549479470202311
0.557350487552638
0.537116558858167
0.560300306500639
0.550194887521686
0.550404463210739
0.527563946277786
0.559807175821348
0.537682056230951
0.541560503541897
0.520299851000196
0.529109300384431
0.525758593075327
0.530594497884928
0.511217853559998
0.537759067296385
0.517159025192539
0.508077979597536
0.491597315366577
0.521928130476086
0.513686041431412
0.518537744662978
0.501871338026119
0.508278458721981
0.49602866231027
0.494886904962662
0.487201888770927
0.488293909846603
0.480727927128387
0.480987888303019
0.479789646944728
0.494643749592055
0.469336223780389
0.478909355146216
0.466314781512452
0.482849140494518
0.463211050684409
0.471497122025652
0.461976296910991
0.460994311154953
0.464580540710752
0.46816602065026
0.445615748570045
0.467897026569676
0.461576864130822
0.462536437875369
0.447291581748772
0.455286298966622
0.442262051010925
0.444133727374085
0.443947560540877
0.456820975373523
0.432708351514933
0.444769658704231
0.424920703735868
0.435108502978307
0.43203889219905
0.435605777433816
0.440357326239146
0.436916094146288
0.424354144759614
0.436688691291711
0.415483608075156
0.433385075746924
0.417557085569261
0.434762228628032
0.423576219582064
0.428888726796744
0.415112271759808
0.437010607042366
0.416138944165133
0.431479403516779
0.426791720262911
0.428208810317169
0.426810136781221
0.440145929533806
0.423537233995231
0.445887167126435
0.418131510270122
0.439372561412789
0.440858290440107
0.437119903309095
0.420312342764788
0.443927443140595
0.430033901292335
0.446632052192406
0.424208355862317
0.44818449845758
0.444444673419685
0.44262958933872
0.445631577567644
0.461822373178887
0.457795615621128
0.467146582086802
0.447510278073505
0.466826791910035
0.443464715194512
0.465335279263263
0.456844201321856
0.464388031873552
0.464754169719761
0.476086955888377
0.451766708845703
0.479126728199235
0.47691292534486
0.486396180054735
0.474417816240922
0.49787917274068
0.47623683643291
0.498011337359221
0.474096255223041
0.495760532411054
0.485252111647109
0.495232523179298
0.488234033720389
0.509897002127436
0.487123055468954
0.503449125355131
0.499336439880354
0.513071818569329
0.511521390609543
0.5240187067884
0.512960446574593
0.546566665243629
0.519655088600156
0.543677324983193
0.528424986699631
0.56626832186505
0.542625863135687
0.541609712657816
0.546330545930636
0.554006916138419
0.554108620150661
0.566122500958234
0.549906182352618
0.582042459125001
0.559902057711732
0.585699211693027
0.564301835132442
0.582546932041629
0.56067136729223
0.592063041740681
0.5831795192858
0.570109325929628
0.558450916679512
0.599441395306446
0.566773421643561
0.594812142092078
0.58049296719579
0.600317679790242
0.577844398574145
0.595704504341796
0.571729354928055
0.575917887870222
0.569315905765387
0.585644412897529
0.562764886872909
0.584162502428889
0.576868248656731
0.582651926825363
0.557068099345052
0.589584730295378
0.551208486837381
0.574093911950339
0.567075223853069
0.576435295385195
0.569472802717728
0.579177849616053
0.5614810205812
0.592761863584344
0.568468739708804
0.589663670742518
0.566374354818436
0.578585100172241
0.558214214681844
0.578091000260649
0.563968308344158
0.583908258207845
0.56680417524222
0.587384094000677
0.567360760423646
0.592422046917354
0.551758134209669
0.593378514626335
0.570017549377967
0.588387842691233
0.570809335991468
0.5888736275794
0.559361123362539
0.581915496217169
0.568885553783408
0.591879532946623
0.564480786623258
0.567159846693791
0.556363631067573
0.571867604048886
0.559313773992809
0.576225387568391
0.560321321582135
0.574009351394526
0.55241486596427
0.558442068201426
0.55390167766255
0.554837177430743
0.538394212327361
0.550890309311813
0.548354290335899
0.552577637256795
0.522447517126183
0.545741808353622
0.522973471119323
0.533614325408522
0.519818412782901
0.533351918730172
0.508688906417648
0.516363178449622
0.506915319304666
0.507467539274219
0.502441488496668
0.512924670808501
0.499711657501412
0.494401481668913
0.480025200846682
0.483450650318894
0.479992363181891
0.482059899977355
0.466472654260094
0.480381898996695
0.462074481123187
0.469648928645284
0.463503372018214
0.469823887737376
0.446992042892232
0.457464569095116
0.437340135502172
0.446068713766421
0.43140963234366
0.447748943048741
0.426503360563374
0.437433866231229
0.427867550411542
0.433073350080597
0.412951110608213
0.43121224312182
0.414685657754354
0.430833149666274
0.405286331435707
0.424309455175159
0.412447917592747
0.415834050970995
0.398795443161037
0.413363806082535
0.388645092159634
0.401845160997293
0.391923054707963
0.414204729486042
0.40044287474386
0.409486606417011
0.385251389597333
0.39330696202146
0.376510620378075
0.389653681343527
0.379221122148588
0.395295686135496
0.374801563976581
0.3949356401465
0.369776451208509
0.38352501146043
0.372905234897023
0.381719310346207
0.366538614031218
0.385236962510189
0.362202971693627
0.378375551787375
0.366642341949976
0.372872967830515
0.357142923918584
0.364779051041073
0.348218151352387
0.362038446821353
0.357764042713182
0.370996865904539
0.35190210507337
0.362527304357893
0.350054797728798
0.360668714060237
0.345961592370369
0.362580619029595
0.341714339812532
0.355046589028229
0.343304849124198
0.350423221272885
0.340254965420169
0.355855215247178
0.345852778847276
0.347450199487806
0.334198179391521
0.346784879251564
0.321439387913879
0.340299753929402
0.329108561617709
0.342792620220932
0.330835224797424
0.34228848152704
0.333281805950209
0.33924402105727
0.32770535382597
0.333890824263622
0.318538548516432
0.333773224682047
0.322367767215571
0.334290340973044
0.32438900484161
0.320727589868087
0.317169061389134
0.326616509841692
0.318733829058486
0.327712547478431
0.314460979847455
0.327181362835291
0.314507696492966
0.319129699304861
0.307925617439665
0.315625515129818
0.3176917055611
0.321669667750884
0.316566249263886
0.326440313681602
0.312882374513792
0.31423664200415
0.308380858100958
0.321133128465771
0.304016968391649
0.315613679706979
0.305790839208457
0.312365324569119
0.31160144468665
0.314153809288447
0.302780828309377
0.308769419446719
0.299814427458352
0.31492823776488
0.290274464458298
0.308419444397016
0.305147040167043
0.317862117894332
0.300571714755256
0.304701741679512
0.295695489901123
0.307302971033458
0.300546749605754
0.305504501899605
0.297604729874916
0.309566816638085
0.296421234148838
0.308540283876916
0.296312959095249
0.301854535652927
0.287655217815208
0.30105794976615
0.290364293372447
0.302069555653117
0.295293643959792
0.299133066946341
0.291089842898975
0.298079493126628
0.289152760080799
0.304296658352712
0.28834291859377
0.300270793369628
0.290422435047082
0.29934047944609
0.285964665533455
0.29772514800152
0.284302578027824
0.295561815554664
0.282458431744218
0.287758747279911
0.285505782296109
0.296734822242217
0.276584512015932
0.288899118202939
0.280864127447215
0.290455662245956
0.288238674261898
0.288207667409338
0.276977612431071
0.285968764253918
0.280512436372995
0.275087110295058
0.272422333942115
0.281565796159323
0.267154805625808
0.281548180350691
0.276545341436327
0.279114686950651
0.268983396199105
0.281122550615325
0.267328372261456
0.282120459583688
0.260858398903747
0.282414473788842
0.265953709479011
0.283140970665236
0.269167910551881
0.272640877537241
0.267858273352598
0.273471386084796
0.267146897039694
0.271246873531833
0.257525422507394
0.270031961199633
0.255460048581292
0.271152043684963
0.259790527603703
0.269377897519431
0.253610330545959
0.264233000831924
0.259945043271818
0.267620542879753
0.248388878430179
0.26207220268724
0.257098627346924
0.261230460223178
0.254695402689681
0.257258332274941
0.252228521983978
0.262077626606316
0.250816204249293
0.249379805436965
0.250641314856721
0.257883149887877
0.246598722577902
0.250159050243443
0.241259128049174
0.250822783946633
0.23996877897275
0.248436731976146
0.243373631881809
0.246643545348726
0.234128653897932
0.243821969829182
0.241721493674005
0.238393277329757
0.231151337934076
0.241016354687699
0.234012070411266
0.240069488933385
0.228613479924285
0.236320625320499
0.230861763461342
0.235354741110831
0.231398311812227
0.230903666654161
0.22114813150315
0.235120345797593
0.226091382965861
0.228201190100985
0.222116938382816
0.232785880869671
0.228262678905863
0.223639280956918
0.218677256451885
0.227152854736225
0.21365593634336
0.21866428314482
0.213044486052633
0.227276138913803
0.216497890812197
0.224287383713728
0.213876297186273
0.216450598314914
0.208874815908952
0.21925384643777
0.21007503180506
0.21495951113964
0.208867825364466
0.216391732627882
0.207146891562509
0.21796046743263
0.207924674734751
0.209385554075868
0.207822462271457
0.210631822220301
0.202334633318362
0.213686128402704
0.204459223218122
0.207065256726302
0.19347328640724
0.202615476063521
0.194496030829151
0.205000576948
0.198099437994075
0.20042991328193
0.195958569108458
0.200293295516544
0.195463821286059
0.199972879129642
0.193698603342887
0.196972069969378
0.190851302806175
0.206503943940485
0.185791609464875
0.195310060698953
0.189511561326416
0.196213383349947
0.190682095842123
0.193926547171403
0.186685372865334
0.192121079036826
0.188058633785895
0.191344540465203
0.18570977515182
0.189748314833064
0.180043869314632
0.190759571974702
0.183174813756423
0.189363742992868
0.183342425559927
0.187619808208708
0.183070295484413
0.188809432180513
0.185052532469626
0.187974037599181
0.184355298013414
0.186572389419779
0.177477210212157
0.185371730012118
0.179567732546391
0.180961908507516
0.17646153820669
0.182083384814329
0.175432428959475
0.183734761910595
0.175885044169209
0.181337179615622
0.174173278986456
0.179047101635208
0.17053357902042
0.178932610984531
0.175301206395198
0.176021847143176
0.174140738880787
0.174091841682048
0.175618200732841
0.178335617459799
0.170168799565918
0.174278270993673
0.17205373259265
0.176067275486778
0.171978674417829
0.177482966445304
0.16921723581696
0.174760983511017
0.168440083268333
0.172495387551967
0.168157309837336
0.171820715431341
0.170408283971484
0.16756500968791
0.163010480673903
0.167337715778004
0.166412461320965
0.170755969747478
0.163278687446177
0.170109750319139
0.16134954921388
0.164908092059394
0.164330854673446
0.166538693375832
0.164909861904107
0.165044859023991
0.157035599054514
0.164997799371878
0.160691837563904
0.163576858908982
0.157720471460502
0.162469778310861
0.157744849200061
0.156940850663802
0.156491183977041
0.160492873717769
0.155928759990378
0.158376806036369
0.151445412553602
0.158479092374686
0.153800054306221
0.157625315760898
0.153454587138384
0.157946648080286
0.157203527004817
0.15864590989096
0.153158401362488
0.154321951244972
0.152216742005426
0.159716925477494
0.150891169793949
0.157577210380577
0.15134020236407
0.153514321741003
0.152974129422241
0.157639037494558
0.149081357701562
0.153904378395744
0.149118169585092
0.155082664153962
0.147308532182723
0.153718915353542
0.154239947412805
0.150486201733885
0.148040598884998
0.150597797262668
0.149459086038934
0.147223263344992
0.145574310660535
0.147034522042147
0.144031078704971
0.150195297975961
0.143666760063546
0.147222880672558
0.139256614469785
0.141715009119188
0.139520052357227
0.144620810631674
0.139593132511484
0.141037742936749
0.138708358643856
0.140399868246862
0.13661555358314
0.142139401450668
0.132291984736813
0.140251537511298
0.136132422731734
0.138869878382093
0.133207589195528
0.137023271438282
0.134256766778206
0.134526898407833
0.136132648552047
0.134838600325941
0.131209257552313
0.130158152880695
0.130416554066769
0.133252203776817
0.128405946064258
0.133604139731994
0.123914204482717
0.128879841961834
0.1290593567781
0.132151844954117
0.126544046317085
0.129649248584886
0.126802851643469
0.127528406967908
0.12297309371557
0.128255101141236
0.124588367122122
0.124819787819263
0.122452495917353
0.119813970056808
0.121607173222243
0.123712371158466
0.119340973034737
0.119561599928523
0.119792686488973
0.119302076976596
0.119057161514586
0.11946115692468
0.117341350300584
0.118616343192889
0.115719303003826
0.119103938730842
0.11184423362494
0.114865750982067
0.114844517310908
0.114950152113509
0.109049499921679
0.117730521869221
0.112736422834093
0.112557028496743
0.108953749806201
0.113003035747071
0.107308961888727
0.114129297841281
0.110070984865041
0.109473122715602
0.11081001215519
0.111648731584273
0.105730516066499
0.108545811494223
0.105564562822205
0.10720761743499
0.107180803142533
0.105769928547917
0.106401338094658
0.105860717164457
0.103490816783673
0.102947001255367
0.102252230478999
0.106148014758689
0.101515716964817
0.104391072842251
0.10462859936219
0.103172106255906
0.102950680616232
0.102947908584865
0.101385678253442
0.099011363097004
0.0988103459757194
0.101527119513163
0.0973088770922473
0.097958780508869
0.097476787627132
0.0985951464802842
0.0957821334502642
0.0999264034441405
0.0956464965319497
0.0975721364971501
0.102539847890929
0.0999874451720288
0.0971048850876075
0.0995925078217069
0.0967410040346029
0.0945065778252058
0.0951821989420371
0.100356826931616
0.0963990712526138
0.0947837773511915
0.0939229047627342
0.0940068936932824
0.0966513818671401
0.0987994778242199
0.0969041681491817
0.0929303375590151
0.0915980927187847
0.0990748423661165
0.0948157874138711
0.0954295012631957
0.0876531115196535
0.0842533763852353
0.0935394142227357
0.0978292298434202
0.0958389163730248
0.0954980421428287
0.0940063934890513
0.0915858142806998
0.097584959440534
0.100276284179246
0.0954430949825598
0.0953237637467458
0.0969047615722592
0.100699416404117
0.0996869710152378
0.097232996680441
0.0866819553536241
0.0974414697553111
0.0996628030208235
0.0961282933908608
0.0926264211889844
0.0868376271751625
0.100555611641584
0.0924492700873019
0.0953454158545356
0.0943567867211382
0.092549511728042
0.0819854575343431
0.0899234846920074
0.0893875846410515
0.0938830158342129
0.085314813488822
0.0957977447491052
0.0862993842635138
0.0990599437124957
0.0812611801920701
0.0997905667996235
0.0736051266156796
0.0938745656704766
0.0716036195992261
0.105078121955818
0.0832308786175631
0.106621475312508
0.0744385279953371
0.101156028928658
0.0671506576439889
0.107117532254427
0.0691193333707553
0.113117804775027
0.0693587330781348
0.101303259648507
0.0566974239104405
0.114580491848728
0.0735132078980425
0.103234688464726
0.0591465704803096
0.112826038033179
0.0733243972121914
0.0941821583811887
0.0775503821373654
0.0942286407466889
0.0882111073683778
0.0782172450402502
0.0970862389783409
0.0730692354023343
0.0979190002288712
0.0733556197224484
0.0984729881375869
0.0707015601955609
0.0941404910319548
0.074370059975972
0.0893557570332522
0.0785427406457522
0.0865445664008251
0.0831956501822828
0.0800077718053367
0.0775320674246031
0.0779263880057014
0.0796906683192788
0.0813393756198482
0.0763617386462341
0.0839273800198133
0.076310716291846
0.0808536844396172
0.0754719036905207
0.0837146928443172
0.0770683183101415
0.0820265545181783
0.079169229098637
0.0825601293396845
0.0762919727340458
0.0754882897759322
0.0768308150329018
0.0815424659820154
0.0778729576950275
0.0802740638855291
0.0742447742859964
0.080325856365888
0.0784630029775426
0.0820829164711664
0.0767193656182418
0.0806500798727301
0.076367631214159
0.0786789266339217
0.0759574384149056
0.0798264226027743
0.074259216752509
0.0800218542610733
0.0788433823334009
0.0784311619831221
0.0750975494721575
0.0779457704907904
0.078142529807583
0.0837015577780731
0.0746331854249718
0.0769887365148172
0.0756727947515705
0.0798196052864058
0.0751301977405674
0.0803383722693816
0.0752788574554518
0.0795651922164652
0.0786219079408523
0.0766002367438481
0.0758368419982352
0.0783771389545132
0.0792296024532354
0.0815432518921744
0.076536446316857
0.077097763889402
0.074928861275104
0.078024776295145
0.0763156884169685
0.0796822496103257
0.0772530045242408
0.0782235625411871
0.0737888871947367
0.077514987349466
0.0783841713262588
0.0771626015473022
0.0723989654026699
0.0776300370037697
0.0763935637179806
0.078074443947076
0.0744299912419224
0.0786198487737669
0.0751555939896877
0.076720794876942
0.0725366486299853
0.0758250870820337
0.0745642661076979
0.0813665791627105
0.0772779133062363
0.0762496541807535
0.0761057728427851
0.0804313763405152
0.0746839526301979
0.0803870254476948
0.0794391997704505
0.0786842769955
0.0779078490209449
0.0788658901291486
0.0755918353568701
0.0808512358016844
0.0771093556333542
0.0777024862709875
0.0781633728798506
0.0809436863546564
0.0805639871726407
0.080727761455787
0.0762751674466761
0.0782098465735191
0.0773063436489122
0.0767272082749752
0.0769880970234208
0.0804131219298488
0.0764940255424092
0.080775893067124
0.0786349656430444
0.0810855098871289
0.0776231630340232
0.0790893045476769
0.0775441204734176
0.0784542828385244
0.0795126019482756
0.0806265170414364
0.0777294963429243
0.078893647639869
0.0759832239775247
0.0837643883286423
0.0806773250725308
0.0779142199894403
0.0796672773808052
0.0799861947015084
0.0800866388278232
0.0808816694560891
0.0782417149972862
0.0809641525058805
0.0795398071727959
0.0778255338086965
0.0769691631110737
0.0826914807110307
0.0799835292388175
0.0794727554027643
0.0768179314316583
0.0829927474276555
0.0799197026139445
0.0823937351885045
0.0793155380972989
0.0798765162553302
0.0814948134810645
0.0798458352389871
0.0800248225980578
0.0824050144454519
0.0822209125504854
0.0824494356007463
0.0800512454491262
0.0802947001062664
0.0786943387667236
0.0840329602915666
0.0847022893516938
0.083428527618026
0.0814370098879173
0.0821331031405217
0.0818204294437949
0.0831015208411775
0.0829814725242385
0.0833329287082305
0.0806392629384727
0.0843866302574594
0.0856186286285999
0.0848522035318241
0.081911151081324
0.0855951044519165
0.0831884185283648
0.0847214241120578
0.085377395207279
0.0822206503617944
0.0815820675106306
0.0838745015613001
0.0818956175636638
0.0825029026198601
0.0820956979181719
0.0855345201295198
0.0834267053012645
0.0834036257770523
0.0814686344872704
0.0782359290329633
0.0820086310592794
0.0812641056377398
0.078900156965052
0.081258947298049
0.0834050038796646
0.0840117602934239
0.0807892723366522
0.0831790563574774
0.0811728659215655
0.0816671738773395
0.0819650237206742
0.080240508114117
0.0821486516950214
0.0823632851999628
0.0800716098113192
0.0790299781482987
0.078970113822891
0.0780960329050815
0.0811328021450242
0.0819171563699925
0.0764939067840095
0.0798934344769008
0.0797710499315984
0.0802388402329056
0.0788128905229434
0.0785370339849458
0.0791714106847505
0.0781523429991532
0.0778333018326045
0.0790454838465651
0.0753791997048914
0.0807467716264123
0.0804896224086813
0.0755268987538017
0.0749466074809558
0.0778936203786196
0.0774689910890616
0.0777959990108594
0.0823583783387398
0.0757314522792975
0.0755640361352153
0.0781457090295145
0.0787637784850941
0.0750073476990666
0.0770096858876975
0.0793005969114539
0.0782196472203317
0.0774112032463106
0.080639999866479
0.0780011254369427
0.0752658032216826
0.0754488460072298
0.0731354772505258
0.0749056960619846
0.0742870222084681
0.0771953406367412
0.0730518012280901
0.0735345045641184
0.0749663382001647
0.0741533799476014
0.0775628608514304
0.0748527452965332
0.0766467199605942
0.0765748798117221
0.0741690402583797
0.0768561517946685
0.0769189427912735
0.0773263947363679
0.0752365376230978
0.0758911035288265
0.0756162414355287
0.0742101603518822
0.0768859750409853
0.076957922898699
0.0750238169767074
0.0760656930367028
0.0744463059942551
0.0746829974648411
0.0747827472508871
0.0742566042338388
0.0742025008625425
0.074478390313052
0.0780151807488955
0.076385371971338
0.0753806139116419
0.0746880696299056
0.0745443226338642
0.0729053385416781
0.073803082275084
0.0736070728894807
0.0717785245505673
0.0723065510349261
0.0744768434182404
0.0715331639934694
0.0747360555780631
0.0758430207648627
0.0750253353755518
0.0753984069860129
0.0753053271177585
0.0729156074453683
0.0714554965099802
0.0712584266927578
0.0737672140675106
0.0736530704624402
0.0705812562098524
0.0729450656954492
0.072288593636949
0.0756844956300922
0.0754523027046071
0.0728854729217659
0.0738922147470319
0.0727613372540058
0.0700585805609147
0.0707253590857152
0.0699964629175755
0.0688491883382201
0.0721282557330557
0.0706076363585885
0.067033869395181
0.0683218999636345
0.0716153409026047
0.0704176349292449
0.0693591351700193
0.0689979359291125
0.0683062757336243
0.0684037440525358
0.0687561326462774
0.0699886249141299
0.0672302592271652
0.0685255334166507
0.0670798508082138
0.0670905766870012
0.0665927015696067
0.0665673925836423
0.0726719417405387
0.0663512934415832
0.0685103182807093
0.0638483766837471
0.0657903264132393
0.0627188711565319
0.0658680442833169
0.0635490920098537
0.0669279602214549
0.0627998265406805
0.0649737384073248
0.0643074240722247
0.0634011320806058
0.0634310012194105
0.0654437339429116
0.0629336662267257
0.0640397393815467
0.0623971993334327
0.0625753922054451
0.0629031491849624
0.0643636925612925
0.0626997674000894
0.0644454808089715
0.0588199808430652
0.0634638177043692
0.0598700127715888
0.064310107486177
0.061347131000595
0.0649391022489188
0.0607814598555549
0.0615904279556911
0.0638774198234854
0.062278426863737
0.0591747003682856
0.0590310407698204
0.0603744513724863
0.0628757172286563
0.0568251368219485
0.0609189917986276
0.0591454865984209
0.0574901302798838
0.0601467050971485
0.0591288782662283
0.0592069238598854
0.057884024774734
0.0573456537029115
0.0616344848639918
0.0565193030794708
0.0609056140969257
0.0578635486743299
0.0598629632680792
0.0573648230016276
0.0550724984844341
0.0634352910560988
0.0620662078703578
0.0609587134354638
0.0590216357599624
0.061458642503656
0.0564171423481308
0.0601105573518378
0.0610301890657946
0.0572801568972252
0.0576631812651164
0.0567845584198065
0.0555565625217906
0.0568095657033455
0.0572017193303143
0.0576986669933927
0.0590694736685655
0.0560716181427526
0.0569666664444339
0.0567469231766459
0.0517921295023418
0.0584191552840023
0.054012964273255
0.0572376185126942
0.0513363029401527
0.06252018520418
0.0501958108916993
0.0543673379476838
0.0653715199577963
0.0564760864221016
0.056323443582031
0.0523487185961885
0.0572580996772092
0.0539772612946244
0.0582091473939966
0.053232948775375
0.0551380678319734
0.0555404408796639
0.056725124812165
0.0529410707460309
0.0540261329124582
0.0519389135188401
0.0578852834899242
0.0524733451289167
0.0567459806003991
0.0521511250940258
0.0559023850583541
0.051071962538146
0.056525368788025
0.0582662538577641
0.0565144861987568
0.0561714967408371
0.0585858805033361
0.0362071373762516
0.0730841879655111
0.0562668018533808
0.0629576071987646
0.047598928398956
0.0579966641730637
0.0508828491004461
0.0590188489954375
0.0492195875161713
0.0594558349889338
0.0557831042726157
0.0527098092289448
0.0579030668560162
0.0512883485612342
0.051740388425637
0.0543987331813291
0.0509411986093144
0.0514050561000285
0.0526267999218504
0.0539286486925521
0.0519264350997118
0.0585441759943782
0.0509969230545088
0.0549513941651981
0.0466301090693632
0.054132310202036
0.0560351553650337
0.0557769953730784
0.0494101090835957
0.0590734129481609
0.0461172017913964
0.0535619859691107
0.0690345536550142
0.0550276427403945
0.0598898068068778
0.0499004950296768
0.0558103324635215
0.0551131851965254
0.0521934903112823
0.0503370050749973
0.0576326737259238
0.051753959605777
0.0537831779895151
0.0524416915889014
0.054641078673251
0.0531615590167988
0.0529514995346158
0.0564668829787297
0.0521179008029172
0.0548720473154242
0.0509112124142744
0.0611414522931034
0.042641571446794
0.0569198210671414
0.0641190756710037
0.0598245290962352
0.0581610193491982
0.0590816194420923
0.0539570980036334
0.0559486729401495
0.0534970719135742
0.0518317830997004
0.0522848166559468
0.0548468424130385
0.0568279810982876
0.0524038740436758
0.0544554143511983
0.0506678598122011
0.0559222889408316
0.0532220058161417
0.054964187343714
0.0508247546331455
0.0555474419944622
0.0500071778614094
0.0596627863849104
0.0431771017762693
0.0649852029375529
0.0509202956817455
0.069301070375901
0.0254127172184969
0.0787812940907073
0.0672502094467304
0.0553438703579416
0.0644799113082221
0.0526334703394729
0.0572966355210073
0.0526766733356169
0.055127294737298
0.0600941772625614
0.0557857467763804
0.0543940004784034
0.0559066977245895
0.057381867883589
0.0601894334462006
0.0456423254458911
0.0457261537304147
0.0769355271506258
0.0562456095164431
0.0654739579064582
0.0516364171885153
0.0468953276964063
0.0792421564487144
0.0522680844826807
0.0675066621706154
0.0553903164835567
0.0597163467079776
0.0571314514587416
0.0633441143552261
0.0505782768736874
0.0623662890964516
0.0604021871784968
0.0538482942434686
0.0564242592590098
0.0543233492147667
0.0604828267358966
0.0578002224698936
0.0612378408954348
0.0742943983694431
0.0560704325422275
0.0651805621898964
0.0620978300191111
0.0618586981986335
0.0590345491256808
0.0629352788455849
0.0544212944119343
0.0611587936616582
0.0717383654691925
0.053645859918857
0.0644405527665239
0.0687840865609466
0.058198139403811
0.0654684939442089
0.0585435705158372
0.0789985505611224
0.0512014938565638
0.055718446609747
0.082426694512095
0.0545030858750367
0.0900915682929687
0.0544937286330981
0.0766854218493683
0.0521747337861837
0.077370315213168
0.0413376348702427
0.0885888119427741
0.0585560466997577
0.0800066545921882
0.0543606168218536
0.0727878084186427
0.066939182841926
0.0721735685713472
0.0708495101441826
0.0697153198809383
0.0591601893018973
0.0762356696912837
0.0745944117150879
0.0396481299996455
0.092611613188665
0.0737872461390998
0.0885827322804451
0.0777704935494118
0.0486511405958198
0.111377482137587
0.0680761606855518
0.0815692335036466
0.0672341507771272
0.0793754974875057
0.0704281566426788
0.0564642067529914
0.0966047237476368
0.0800802694263932
0.0723795592596695
0.0889889762835009
0.0559532573349624
0.09577907871865
0.0826407375476481
0.0875553309553586
0.0739005653797736
0.0941625825104928
0.0485848770551226
0.113028683132241
0.0889593060306251
0.0825988063714848
0.106088915573619
0.0868500173390762
0.101320628422311
0.0885791643979806
0.0939080825648193
0.0845249183433943
0.110482908464994
0.0946258142269195
0.0854798452797469
0.086905465646575
0.128823630323382
0.0834954115611382
0.114834704365917
0.0911077008404671
0.0833120060434764
0.0881013948685969
0.15096065792325
0.1219289661829
0.117572449077081
0.0907892321118934
0.132884776787791
0.108206387133437
0.11816848059051
0.111606395958328
0.11267821351351
0.116238476362233
0.10946310894588
0.130105073828575
0.116506974400267
0.117813274829818
0.123455364741677
0.105274232877251
0.123968253934648
0.127638290136515
0.171967323112079
0.110502822236207
0.169242097175967
0.136810042719034
0.140941918006261
0.134743718935012
0.132322005548095
0.145986441673928
0.142090156454402
0.145977240163366
0.127041506291467
0.161655945113287
0.154069792350633
0.131672356083837
0.189442274448126
0.138789522102657
0.170176529679721
0.0575745411650995
0.366504015014652
0.170209373723911
0.194563372403233
0.171943640452272
0.15189337384786
0.265655245897387
0.208207755643146
0.205427795073325
0.215368498970236
0.211269007770633
0.219151439315783
0.229266062673849
0.236317061295757
0.249115151801367
0.25752265770642
0.236496064639724
0.244628877703683
0.299122402819746
0.312835651398778
0.307623788572565
0.283415610916786
0.307336081638452
0.332208613827038
0.310271297893199
0.331602747718589
0.326061817961315
0.291427095134554
0.419238944485918
0.345487673981053
0.375031549255087
0.340714058084388
0.413347632964721
0.349560219255444
0.427999620072582
0.431684319561759
0.419756668551713
0.425706800276472
0.411460048490132
0.454081667072617
0.416477425098796
0.495472761318798
0.46576069371958
0.472539151106026
0.478113796969381
0.481616969711606
0.484249925055674
0.489903498002597
0.505601304134214
0.472923589296001
0.51968129979793
0.487728531305551
0.622278644180325
0.559755781837142
0.494692737832632
0.539182471007332
0.481732095842596
0.578022560301209
0.504033183305461
0.551105799718708
0.548760770313161
0.521236928898844
0.53478221446792
0.523370931733351
0.54619435325304
0.521938955403479
0.542299318855456
0.51514451989165
0.557850247140742
0.536742344027584
0.469278124054329
0.62765874575051
0.527066917830285
0.545653321964522
0.517904151721275
0.543574833336894
0.512240819499618
0.534768478295731
0.498909702563311
0.562935873296871
0.506288115589763
0.543386990171327
0.487283606723226
0.529943983162189
0.539906190960431
0.491608808183437
0.501518800099428
0.486872043546731
0.490753392781057
0.480880485548543
0.430846810517588
0.554473340770922
0.467751781731662
0.480958897115853
0.470045571206945
0.479623431930118
0.453319406164106
0.468546543066483
0.45829533945189
0.476180259392368
0.446216141982432
0.47777157939825
0.447747981597056
0.456705528219847
0.447089902684558
0.457936674050361
0.457774052614322
0.461626909806966
0.448260102486019
0.449893865069514
0.458942895609754
0.456272186600871
0.445330415718983
0.457113346703066
0.456098891290957
0.461016038249231
0.447569342409794
0.450773965501625
0.443937710589459
0.452026525096357
0.450981343901648
0.451451839905068
0.448542638507028
0.444833744321912
0.450212026813083
0.45538520017841
0.450104665237916
0.447006239949883
0.452068518660072
0.443451637244803
0.448552279589196
0.435104222235472
0.448564021975427
0.412658138602111
0.472458478772445
0.474083860770333
0.415060467891514
0.445372615356965
0.409340082487243
0.447491976267644
0.386655132772461
0.452885416030428
0.447678930065655
0.418003517530196
0.419553233977198
0.409353574799098
0.397849368119556
0.436252731096436
0.387932268639018
0.421430881279411
0.381568933011077
0.394024624440081
0.480153708317386
0.35308103362914
0.483203661054926
0.402598979347005
0.396919679481689
0.353673590313719
0.442941613216928
0.378433790892964
0.396497103660666
0.381708215776826
0.3874128575353
0.404456651706747
0.370230435277369
0.38818768850828
0.36218006728
0.362828774461337
0.404419970321543
0.37778652112194
0.348840648199825
0.411971599293486
0.354634451038221
0.369039957912718
0.413160717354696
0.397116676581835
0.352769193379516
0.347766119496094
0.355785763646136
0.324957696648762
0.386040557504416
0.354358552386895
0.338932322404736
0.346176206237682
0.319379309079308
0.336735880124426
0.316156917625571
0.355634848492333
0.281104546166905
0.363971536488325
0.31047483841842
0.314397601087255
0.335837130632078
0.310599526069786
0.356442697154949
0.318375220640834
0.303019508353632
0.287777700740436
0.34951586764207
0.298619098734699
0.316077591352563
0.301088847320894
0.271826561317134
0.321862994809329
0.289642564333993
0.278921872688597
0.306642105059706
0.265863358491313
0.305980793011782
0.309093775842422
0.313503032647178
0.290608540889034
0.266146754646154
0.276291415623309
0.270354136085437
0.275451179153977
0.26103671639923
0.244290132771287
0.30736495007569
0.234265427039177
0.307891643437411
0.285140514690807
0.273565099339294
0.274506754714166
0.27607313484124
0.273062247654838
0.291406995124965
0.296055249604378
0.307857614256151
0.266954836110248
0.31535818382466
0.289605561945075
0.309848372808988
0.296981752246935
0.310708821080225
0.297646495571077
0.323499897255577
0.324873412561627
0.325974914601193
0.32503226755933
0.341537041188826
0.316883715275638
0.392393399734049
0.330776011883541
0.365699996702752
0.386242155935656
0.383038123902194
0.420350766586486
0.387765135995464
0.401507543725559
0.39903999394716
0.410735059851748
0.41484905125956
0.402286858558195
0.466724706138358
0.43092330372265
0.436817104657834
0.438948286977678
0.44213027680225
0.448014100435681
0.454112677999217
0.474446238150921
0.425349302772897
0.539392567031101
0.459293490967111
0.493243533818276
0.477450811935266
0.481427497690673
0.486566032791477
0.477047474789124
0.483472543590503
0.467579277670036
0.510445498584837
0.50133581448585
0.489466727904425
0.505862335246694
0.496268507403759
0.512200669973714
0.508162707575167
0.512038442579189
0.513798815751728
0.515323212538319
0.526713894025465
0.486416069652358
0.564722685868433
0.565666973215265
0.521924232884443
0.557576997776028
0.535154048479531
0.550153729063111
0.539932561438229
0.558517377876611
0.568727923996512
0.56846861701558
0.576336441619098
0.574995292171619
0.576370545783103
0.571497056827144
0.600343162345693
0.598170306983197
0.581722015877063
0.599851162635415
0.5391057539853
0.681627434101622
0.602002722835659
0.634755017198255
0.609508630457847
0.618096523024846
0.613949072195476
0.618033865984104
0.61690400193004
0.629550027715121
0.615045238069296
0.620524496279882
0.627307072014837
0.619219107379674
0.633433791161634
0.626178594874263
0.631018991754267
0.632431717142023
0.610745315861878
0.628060793060325
0.624298678025512
0.615776724014754
0.620895612262162
0.653025601380886
0.621231432987288
0.632641673826691
0.606775021149237
0.64427718305665
0.637192174800478
0.626092827868964
0.623177653828713
0.625609096231072
0.619011162918369
0.63788385823854
0.600377110312242
0.655662107935504
0.635644056823305
0.635528959420154
0.637515405583254
0.641751381398469
0.63797972283949
0.636076323302647
0.628363947539426
0.653231447936404
0.646611252486259
0.648215368770177
0.650877907806033
0.641996724081849
0.652032329227843
0.652513167683691
0.656749933152043
0.64459954460599
0.632136852189767
0.651210103018508
0.638990170673167
0.654662113614239
0.635887775300307
0.629261455714157
0.618386163729329
0.627453374123118
0.619848978798568
0.624127934421439
0.616784853831589
0.597753887121854
0.613387788968331
0.588343337718171
0.595155241231154
0.583194262406583
0.584294331219548
0.581994538477188
0.579989185293993
0.569393028871506
0.572242849888429
0.560719574409747
0.562798250826913
0.567686562333258
0.558584648295849
0.557911604484523
0.561481910310193
0.559839932890698
0.553175912508629
0.563019067025166
0.560904363324752
0.552340345628197
0.555932985277554
0.555611477392614
0.570431643353197
0.553194874574523
0.56298637087671
0.552462615350397
0.559723400776042
0.547063034894442
0.550118745053181
0.549246785719186
0.548989334038797
0.548945610565217
0.550875589196436
0.549446475578077
0.545971975253958
0.551066399964178
0.551667705514083
0.551688691537196
0.548167756224324
0.550763038385578
0.545411735495785
0.546992488556067
0.546065964890226
0.559328690528399
0.550008863820667
0.549280120464388
0.549498368363711
0.553853690413501
0.550895182273204
0.545930176028525
0.551014910184533
0.556142879361266
0.552693310694823
0.545181070609581
0.543186929649637
0.543162563703751
0.548386646382477
0.551088908737987
0.545652910822697
0.546757093861769
0.538304660172664
0.537954400789267
0.535825949545368
0.531012464158511
0.528101258817252
0.531191192035568
0.517700929079126
0.518833489607984
0.513381246349027
0.513475674093518
0.507441903559404
0.500970354752974
0.499099257157056
0.493932222033335
0.493728285603512
0.49076200660552
0.486258271944814
0.482168601818025
0.480749823735792
0.482965888994598
0.484450875311999
0.476740949368112
0.472929122021358
0.478917587278878
0.478153173541543
0.477138996098422
0.474526962169554
0.474801113753002
0.468797263701958
0.474209268577016
0.473705102295944
0.475112467777304
0.475844200624298
0.479695164988587
0.477644626288495
0.48219350061601
0.486085113304178
0.489543150481562
0.487108290284249
0.491307118475812
0.49147770432485
0.490002988760179
0.493509010898873
0.499321479900391
0.501069225296106
0.500985551494822
0.497166461258068
0.497933221804973
0.506062298581029
0.509921833927235
0.502951605473927
0.504509827297943
0.503876551415118
0.504682054464791
0.502275378702467
0.503948885063248
0.496706454332848
0.5001106360789
0.501403707837517
0.496580391712098
0.497510324166207
0.494510979356099
0.491211029704247
0.493480781065309
0.490466798764702
0.488742690441445
0.492177491534394
0.487547502733188
0.485880226492154
0.483177144814275
0.484257772905886
0.477352470751249
0.476618652499253
0.475743087386378
0.47641448667796
0.476616794204914
0.47258863007179
0.474440540494601
0.466759631561281
0.466841456948509
0.466848989868631
0.463463275660635
0.462780924705498
0.465024238617648
0.464645930950737
0.462572030890441
0.459650462874845
0.461196155697131
0.454766671008453
0.453586174405774
0.451056180999686
0.453357603940672
0.447389372230511
0.443049808779719
0.439852869645662
0.434821441056288
0.434209325377271
0.427519837161421
0.426953954929446
0.426237331301071
0.419657931419302
0.420244644044907
0.417836318493535
0.410993065958371
0.408958284858207
0.409877353108979
0.407205068713235
0.404411763075332
0.402674049896031
0.404996585874398
0.402543432433987
0.398821912745019
0.401464305997474
0.398672994014307
0.396757155058143
0.398937085460307
0.390686401359969
0.387062221881368
0.386038688695158
0.382662931531074
0.377132465913004
0.370798758845809
0.366785827808149
0.363651042559547
0.357571772705909
0.356147175712815
0.354370811262129
0.35200197948213
0.35614241878787
0.355891021092361
0.357215455726735
0.364734635487999
0.371745533979595
0.381655707947457
0.38841568585048
0.404615262786359
0.413832200985933
0.427866800279816
0.44826979860271
0.460699930862181
0.480621302894095
0.496815551457272
0.513323726694615
0.528773477756779
0.543513988559555
0.562095866349155
0.577081060679266
0.597537479603682
0.614933958590086
0.624483309873815
0.64369279860553
0.659138493214671
0.677906726175443
0.685710647236261
0.702082391311604
0.711308222207698
0.716923562244244
0.73222907812289
0.736751449979611
0.751949508003387
0.764115869024411
0.768015658945002
0.774620236296886
0.781453683101272
0.793107513765993
0.793765350253149
0.797403144230577
0.803893250936825
0.804566923897961
0.804777843095811
0.807229667815225
0.800654771153555
0.803520971399943
0.808024220383219
0.809050951383432
0.811430931462975
0.818047902905734
0.814974891990295
0.818302576480824
0.819916792062625
0.827307408439373
0.830349002425769
0.834257921027097
0.837801940625327
0.848975676843355
0.846019795564756
0.866094371510849
0.867543852737556
0.883904395712066
0.888299233847786
0.900516390028978
0.913620947843697
0.908272519082157
0.931117114381007
0.947648825140774
0.961760055408193
0.968731352582024
0.977602896971665
1.00718502934627
1.00427801150181
1.01613892413731
1.01459511325315
1.01906122530347
1.0227772083894
1.03822422083303
1.04940193681668
1.03183769183112
1.01668839838261
1.03186584099471
1.02475632238177
1.01764162072498
1.01293790644445
1.01306712114134
1.00915406445713
1.01886656352928
1.02756980368118
1.05755346929374
1.04430217983181
1.05782997178849
1.0646221387574
1.07414719604105
1.11288861012488
1.11631486026923
1.1358652156933
1.16258837383087
1.17102770680532
1.18366636631689
1.20790450530351
1.22193155040991
1.2430515910936
1.28827039800835
1.27462067491663
1.3013485052274
1.34257850810336
1.30902711106058
1.36823760207836
1.37361502725445
1.43034983063548
1.4187348075154
1.44064558513213
1.45174634259584
1.50775136749721
1.50808252549133
1.54605665206908
1.58022799699056
1.60888347157202
1.66777212175398
1.6431869554591
1.58804727087851
1.66659754787544
1.72983986336349
1.70619581963984
1.72065672493392
1.70152687448533
1.72208132095753
1.72157760118226
1.68680773404633
1.77527914598577
1.67362952694554
1.82272883457065
1.76067257228019
1.85910763997445
1.71450488170043
1.72247646840631
1.70246299252639
1.68198451563474
1.68225838173264
1.76558208821258
1.68179909175495
1.77795585319213
1.69043751641147
1.80407662620786
1.86607947128732
1.76292256955794
1.84397967264324
1.78987945432979
1.78759239432396
1.90271143128694
2.03300546520261
1.92497617200153
1.83129541052192
1.83820555053162
1.9278813151584
1.90903689234001
2.16349213098162
1.97293767875473
2.01708216501259
1.808774196437
1.86085052430441
1.9583622591791
1.91982320464543
2.19685692411411
1.96784040131975
1.87565372358842
2.27296015682544
2.37568603339174
1.99567317857395
1.82614815920112
1.93770675247266
2.09074408185431
2.0874014985053
2.20751151848773
1.91560721128014
2.2368610339562
2.34462002687616
1.97108354270931
1.97792681420959
2.00072566370353
1.9893381031343
2.08647086098624
2.08018398463856
2.15538790304385
1.9132361925523
2.03013922353459
1.93782995484815
1.89317415362586
1.80647710814203
1.85907629670902
1.69118675492864
1.65390315822357
1.59199430584901
1.52532258082508
1.54580407928136
1.55805565697904
1.46495218689096
1.45397084529044
1.42831836826641
1.50245359173021
1.40016832938027
1.44915954914077
1.33964471742288
1.37350902608283
1.3714958283164
1.32977193840044
1.35479590806671
1.34784665987756
1.28075797035621
1.2857018118507
1.25565527527629
1.2550771361191
1.24923076754578
1.24910388892966
1.18862600365206
1.17891840332675
1.10121934125313
1.13537870203629
1.06217593650668
1.08043167020498
1.00699920657574
0.967163715840772
0.942046519488233
0.8806670056493
0.860937820175637
0.825686336458599
0.775455320113016
0.759224064863933
0.720792170995571
0.683237019284973
0.65746774796922
0.626148679306467
0.606198550294547
0.577638188625051
0.562832159162907
0.544371494563126
0.515879893833682
0.504995306686774
0.495660683583501
0.480923972129031
0.47468380283428
0.467073996655288
0.463373491695034
0.458205340815248
0.449372064046248
0.448676703544871
0.440669255077281
0.438268560628933
0.438731367729469
0.440353601295772
0.443799121252575
0.439394427944404
0.438884314299013
0.448816299605184
0.442396742340606
0.446873002055301
0.442655650309744
0.447158307193986
0.448695240552039
0.441400824572734
0.435215054819594
0.442654511588059
0.426134607251889
0.422636018563293
0.423532478788823
0.418736802159678
0.425274139887017
0.411420025910273
0.412156086696426
0.408663827868008
0.398862287969865
0.408715750302628
0.407758527810367
0.401853235012821
0.408863100416574
0.413916878605293
0.420158955343584
0.42239189936771
0.422872126299556
0.423161899564175
0.427804535922078
0.427398160410033
0.434976418613426
0.438663692119172
0.439477657266327
0.437343064164232
0.44840001774746
0.456008957668864
0.451990143142111
0.440680343936594
0.448248134448114
0.454477882944038
0.459886098660839
0.460028863367355
0.458498981130415
0.456374785031714
0.451383778256618
0.468080533284558
0.468971186752256
0.466192607630618
0.469399275561617
0.477439483369187
0.485438548474927
0.496108410758825
0.506435009333582
0.511216447213716
0.528888012526812
0.555293595255079
0.553158895607329
0.586515980629734
0.586082689177321
0.598107391885928
0.615272237357114
0.607489617166931
0.596861625596769
0.62058168832386
0.59451203335166
0.585468961095531
0.590075165375415
0.575862760466048
0.558960561096209
0.571713188242551
0.550387043007719
0.544770933043279
0.543317344975865
0.546236573506107
0.536030091031714
0.53621237440308
0.534362090226553
0.538589355145811
0.534404017998755
0.52246806194868
0.55147842121617
0.539518835105573
0.524601148284258
0.541743743813594
0.523390329238027
0.52659034899188
0.514301155488029
0.512800944218102
0.51162440206028
0.503645379769594
0.499475958487516
0.501268169629908
0.489213081669544
0.486966497424214
0.481889955008085
0.479501630973945
0.472042987037044
0.466284877343148
0.470149069486442
0.468173378785041
0.459151862359513
0.468865924780622
0.460172832790508
0.468221933941254
0.46857377696706
0.463372097370137
0.437861159447853
0.466506574848057
0.440808931496802
0.445385467522047
0.425362794290712
0.430974176340248
0.434734052424112
0.440550082016581
0.431422122473996
0.423853137582033
0.407077886423567
0.431506343670852
0.422189264361797
0.432482508358239
0.419267328645477
0.414782132553773
0.420390864007797
0.41030319982592
0.392797708860415
0.40686291303943
0.406466879419956
0.40011120968543
0.395735430425301
0.40925551412059
0.385260856931545
0.412610301618171
0.395108364032598
0.394238516450896
0.402915688250826
0.407325312590593
0.40554476101692
0.421436140396205
0.399014430607049
0.403014328096657
0.393226435951866
0.418095219726996
0.417928494695036
0.40943821440594
0.417943803667942
0.415360449897083
0.411198077357811
0.428868577428846
0.412859488768631
0.437252225187766
0.426568643200332
0.446443803884016
0.445227553080103
0.439439042250622
0.457066730835353
0.447147613192123
0.453808286252389
0.480205859395412
0.444618218241619
0.474523801360339
0.472474452364039
0.476863479407621
0.490935800415152
0.521768673330123
0.535863343325262
0.531834202741324
0.558601853876656
0.579661042298821
0.576780014839178
0.614472720977561
0.627213954179464
0.637981912228618
0.63294758880804
0.642740831547745
0.643867207367003
0.755017398795439
0.683827372025371
0.717753854365964
0.700416569416074
0.722543431529864
0.719475572893398
0.753760290254189
0.701970591996047
0.700554183433642
0.70201208414825
0.701018962866002
0.704854161051644
0.724681245327435
0.702872591045897
0.724043999043815
0.713183250630133
0.725573851337884
0.667126309960345
0.711608834475126
0.6892296129866
0.706071230219206
0.670693507472352
0.719191091208101
0.692014414762424
0.704607769768492
0.650008298323807
0.668004236063054
0.643085038272859
0.630209199545955
0.624046496931667
0.682035555372758
0.614802163304109
0.652348345848295
0.64209210534852
0.608745897063266
0.641833603079636
0.662325405752782
0.576128450122795
0.623672273265244
0.6159141560194
0.626384966065523
0.5931220138821
0.648498570012122
0.595236391202018
0.621162302213023
0.570667850987219
0.655185388100303
0.620644779132766
0.666556790269064
0.619046997594779
0.64163460785527
0.576838508849476
0.650827034247932
0.675123296739973
0.631459101740106
0.592823792231948
0.670405267857652
0.660686003019597
0.645421135839013
0.616186575020987
0.677918941621729
0.615858979281229
0.702225462088319
0.677430944327448
0.662932424591931
0.637204812887585
0.737922423102915
0.667084412905372
0.663794218390133
0.659797517635846
0.688416795242266
0.622587002418857
0.760531272340482
0.722609565805942
0.721303799661557
0.647852351407948
0.776891974333271
0.713972935030829
0.777106027804903
0.723521519555026
0.850314264348707
0.852950968435509
0.861086510762635
0.790346303327078
0.788356465107785
0.78183663372372
0.861555470036972
0.784573842093485
0.85435913939925
0.946553451844797
0.874637407409845
0.98614281778887
0.941132443980297
0.840768879312749
1.2422006454181
0.957877117275359
1.23624390977245
0.708100603000609
0.89190693191599
0.759508603975986
0.817740948741976
0.690564588710057
0.773607155788855
0.772867313727235
0.76932008073888
0.820427511787802
0.82824052339369
0.745758297107983
0.798792770894433
0.740944476429257
0.859255705195192
0.687214476234278
0.981906452261499
0.801564680205727
0.918187464562597
0.615174525552639
0.799957912074731
0.815373286625938
1.11414682271636
0.986807064448064
0.905306712360636
0.658723332741425
0.837821450703229
0.818315399780531
1.28060086227518
0.870642320050856
0.839975685267742
1.62189958842071
5
0.626460885338772
0.971901536103237
1.22720970098419
0.611008261824879
0.633764145392046
1.27469359521751
0.690690402950376
1.01688314341187
0.738833663484769
0.906971935427874
1.20009034271684
1.00948404003372
0.749069609189791
1.1016038013516
0.936053248046193
5
1.01268237533431
1.82723072823125
0.625889181782679
