3596
4000.36533379555
650.420452594757
1
2
2
0.0746130534545268
0.0739044798884231
0.0837397125067276
0.0629020385983248
0.0905039065857966
0.0658896095391057
0.0886249779265296
0.0697979733946134
0.073655045511775
0.0679438641866799
0.0781810151809444
0.0758485896405012
0.0876665272263543
0.0532754446054416
0.080721990307437
0.0665603829956866
0.0819042381978158
0.0587033829317328
0.087840831972837
0.0623290172366421
0.0749203018289602
0.0612657429813271
0.0879426250549642
0.0640825676801996
0.0801101010775774
0.0834899849592947
0.077011978984733
0.0609768507978254
0.0887674536469182
0.0621472390233793
0.0827617054565334
0.0585374321276158
0.0814123142234143
0.0651242890170872
0.0800531968723039
0.0722953254695063
0.0845384725917108
0.0587610368763098
0.0829349690659045
0.0674026912431299
0.0849323317401572
0.06320498787487
0.0843443116296155
0.0630728803298413
0.0787113281371279
0.0748116276668128
0.0757075447696515
0.0738013956434359
0.0838066422938293
0.0694216918516624
0.0858300202571293
0.0542828608094888
0.0829855628099423
0.0640817646084265
0.0843945142968758
0.079311714826796
0.0811507098620465
0.0708461767178041
0.0726847554882666
0.0385990946889588
0.0875614792974949
0.0757300379841286
0.0715268536980768
0.0681463533587533
0.0923365992854177
0.0607682438691313
0.0773521213479497
0.0621954493401968
0.0727421204176215
0.0554142467635469
0.067576514267716
0.076832388970002
0.0912867730499646
0.0749326374568768
0.0876580967112894
0.0644330398665902
0.0851659870450994
0.0639852434026447
0.0712842249891447
0.0608834258889579
0.0801431787408396
0.0635737806180254
0.0741111004039236
0.0587311472423075
0.0745016559134028
0.0793821822510168
0.0646928413545445
0.0401039753277114
0.104492804779424
0.0754419423165161
0.0779918638510238
0.0674049447906837
0.079041721442742
0.0640167164987768
0.074509393422308
0.0631232277122641
0.0724141371249945
0.0581351281302608
0.0671175424901069
0.0548671715779801
0.0754277165862726
0.0368491344154553
0.102472933167092
0.0500226356018556
0.13535907396512
0.0723387933727537
0.0559223032876169
0.0804402164531001
0.0991679117678272
0.0652714762814129
0.0673548357253062
0.0600381006662309
0.0782765658487617
0.0566228684660261
0.0549575254244186
0.0536925301819345
0.105889646903118
0.0724676246139691
0.0760074630315813
0.0506670267869968
0.039890727225181
0.0653056580168403
0.108737857146097
0.0599447636269934
0.083427133296591
0.0499081019723374
0.0476470607784791
0.0880851868426743
0.111222171549349
0.0621852349298528
0.06491988558687
0.0532200204093025
0.0629598747706836
0.0224447716554493
0.0989971012017879
0.0699474347277202
0.0646247916029008
0.0275411471128828
0.0856821166201038
0.0993149417779839
0.0910716104144383
0.0617151353795459
0.0461745610742612
0.0351350775281046
0.115958052468153
0.0675868706022525
0.064503997285886
0.0638362235320279
0.0833769819604042
0.0508597146877081
0.0700053226367962
0.0263960929596213
0.095695132968423
0.0604191993678103
0.0140271937507424
0.0834040393735371
0.128903182651443
0.0628978582897701
0.117565340303979
0.0520270339529286
0.083980071199014
0.0611956678311844
0.0675133769923176
0.0433832910703763
0.0682981817332535
0.0429597306504287
0.0610970045607067
0.0715412060780681
0.0634516821746902
0.0405753310004654
0.098591519789777
0.0473502433876039
0.0509208404955553
0.135181053756275
0.0757767095186989
0.0238622752204711
0.0967774595657506
0.0654155516319077
0.0484250264462477
0.0489940909062038
0.105024190959865
0.0593844028599135
0.0703617447465653
0.0461888485536739
0.0692108202077057
0.0694161097901881
0.078226648090469
0.0606981944674917
0.0733497005587598
0.0131651717806328
0.0762372389704895
0.0887807570601154
0.104470569729204
0.0656535879066357
0.0637344606563325
-0.00085417425761903
0.0899445790966216
0.0810622828364861
0.077664283238631
0.0624546786523757
0.0696187618324359
0.0533014384851517
0.0670828775083144
0.0574945996927128
0.0649731885010551
0.0183115187990881
0.112461941367102
0.0809551424247796
0.0716130296769743
0.0455307717926785
0.0606474640805746
0.0152151356061875
0.141935547449062
0.0878594727563156
0.0724536087264564
0.0593591964569607
0.0530568742351242
0.0507323698441646
0.0994966084284289
0.0594242962870337
0.079266201297443
0.0520929858318361
0.0775423365593523
0.0505250413439242
0.0704086275364016
0.0612293504061913
0.0703948136212417
0.0543002028724645
0.0681045075554525
0.0597576728173988
0.0892655479604244
0.066372071401531
0.0781086382596245
0.056477197110024
0.0579391205517253
0.0495827951291337
0.0934280022909357
0.0625524944357345
0.0716557743925115
0.0584863709534511
0.0701088621966606
0.0499357817225255
0.0715699282607758
0.0507628777765216
0.0636322779490365
0.0284303895296909
0.111218242212378
0.0719726419344882
0.0780248940075485
0.0383234086216264
0.0946822061255509
0.0715874943493519
0.0865294388897578
0.0634763899035194
0.0843600958426086
0.0447906181227669
0.0664162275835453
0.0819445258285152
0.0789500089551705
0.0436765330586825
0.0913571366574105
0.0720568715477828
0.0794301361705749
0.0350765515232357
0.038239926076459
0.129860254426018
0.081572566275378
0.0192602528116205
0.147878676143448
0.074311969139156
0.0995455915254702
0.048958897483049
0.00976254736761204
0.13701170051672
0.125435820188043
0.0587358141167898
0.0759954702057743
0.0736966132328039
0.0777485346566484
0.0597485543718769
0.0701498296242187
0.0554829162852896
0.0878327005530129
0.0958337709125969
0.144679130007434
0.036090968275929
0.108019659479789
0.0896517349605763
0.0828725282301008
0.0610420763761866
0.0771465677743862
0.0531686966742899
0.0921959671144612
0.0741281087469303
0.0945646479510639
0.0681349809344735
0.088303236691456
0.09137710085432
0.102600637583653
0.0548914585894153
0.0895022921924226
0.0771246322466532
0.0852669321918402
0.0764414166521991
0.0744252901186142
0.0703950010951803
0.0672761528462647
0.0348440436670608
0.156510949846071
0.0660468961850609
0.0845259276746983
0.0904903264343191
0.0950877849465615
0.0716890347035041
0.0834905217001169
0.0716131065316978
0.0882670240128126
0.055127735948975
0.0662027328918376
0.104813617024285
0.0964583759955378
0.0767162777767087
0.0946671963546652
0.0731532617260386
0.086317407438583
0.0778480734407907
0.0852056681878704
0.0770614474814183
0.0949446217033351
0.0572049512304816
0.124022917394606
0.0906253348630588
0.0677026000438082
0.08971812745535
0.132363167487102
0.0865137407001458
0.103012611469176
0.0765860385748703
0.103008207706403
0.0788526567433321
0.0992148872669858
0.0804313734987958
0.101823864164726
0.100284379800809
0.1163791113167
0.0701626399328161
0.0741504496105102
0.118844582038104
0.174687646994274
0.110073435134071
0.110808040151897
0.0530623133092929
0.146333644882613
0.117433247255626
0.134629346230819
0.129140967336772
0.122714842562998
0.10525964705518
0.123691404832117
0.101509077061657
0.130805242218835
0.116870047535373
0.11894713512648
0.117889982686745
0.131831261612766
0.131863652346399
0.119539954251571
0.104033065438834
0.183341197199817
0.138928704869682
0.145933148502556
0.124726422041403
0.125709657923676
0.134813027775337
0.159445762473381
0.175839716723964
0.162019426569907
0.142939106221502
0.19601367536814
0.14915766381277
0.170741073397731
0.137432773777945
0.165879329397197
0.149123344013913
0.184623245667725
0.166264597659755
0.163970621968005
0.16428844951676
0.187032053337497
0.166614929880548
0.184567103428766
0.164230683791677
0.224451997721352
0.186362660900599
0.198847636681769
0.15987207242302
0.204727985500496
0.217002644339795
0.276221175334528
0.200142773562741
0.224667828130364
0.213934605905408
0.215167775940582
0.215658851392514
0.221098991526285
0.215463405646758
0.227140865723581
0.250133755948324
0.267348914068253
0.239397890247617
0.275259106245987
0.216341489324168
0.260580777488043
0.245890708314085
0.262009155477096
0.270590425680801
0.29334029232634
0.231721134463
0.310395524750138
0.291042600155469
0.282258948119292
0.277983820738215
0.291373479137186
0.279201780576862
0.299120635106925
0.287533166082163
0.299957226565578
0.300420831211484
0.331152069390923
0.305706454389466
0.326728612994801
0.308643901496888
0.320100027490446
0.313086212401338
0.334386696380541
0.314405144784379
0.353621375978553
0.332487030021756
0.358681487313532
0.311876775018673
0.38565000436834
0.359577143657585
0.366776161416935
0.37757908382853
0.377476242298682
0.352682712480418
0.406812441590543
0.360297148533827
0.391263483494118
0.383452705041031
0.413963972861133
0.370093708344751
0.416972124291696
0.387356638586449
0.427244890029462
0.416594967772531
0.432507784251155
0.408029556840724
0.435708321962989
0.421886689950727
0.44267350205375
0.396715495775383
0.479307375700596
0.446071072449202
0.490453133087769
0.463269308831886
0.484107403377345
0.470388126019793
0.485083279928387
0.467834087118906
0.521355348659164
0.491207993026594
0.514661244855726
0.474291316285845
0.504861479927168
0.471318533099198
0.500605951039662
0.482411430169222
0.516951513825615
0.473906737280647
0.559739408571105
0.548830779334415
0.58279482053032
0.520693803939349
0.560226697900585
0.568460810691629
0.598658088983397
0.563257992939987
0.609702314194217
0.535046436499639
0.624802116722402
0.539314524689276
0.629840857384865
0.56836754343168
0.632104423313142
0.589633402811923
0.606345524642307
0.593390081676697
0.625328932118314
0.59801268119268
0.638488944388894
0.573780675463882
0.657515832987977
0.639859343027079
0.713512883491318
0.659593686524034
0.670730700008049
0.658089365482913
0.696083746176058
0.687459003788178
0.706746593929018
0.637259278628002
0.750438966347912
0.670302530552835
0.721243356767682
0.713832391757204
0.774117124615225
0.689190987833179
0.699675594975722
0.700446249596069
0.783799948706995
0.691665334973555
0.745918328560494
0.725858114703898
0.780573982631986
0.721106562521135
0.810415328014264
0.691630632937097
0.776075049700488
0.804596224079394
0.868319413549785
0.783245294534368
0.792664616786046
0.803900692564714
0.893256339676865
0.773768518139925
0.88520596689007
0.782073887102649
0.897313317443336
0.801521768692375
0.8687604900328
0.843331272704407
0.917489039270095
0.897325364634616
0.936730004294545
0.878165481870835
0.933356990801748
0.78640593359697
0.966343046717941
0.848999091871296
0.911794174230659
0.835797626656328
0.898770126065059
0.88315110717216
0.931345660205927
0.840302902778053
0.991318539222443
0.919965741526223
0.981638836015971
0.940440267844349
0.986517573060385
0.911331538109436
0.945304297976126
0.901688534258579
0.968686728994757
0.934646607739512
0.945310855159007
0.96919225189826
1.02576721229866
0.901763395801382
1.07216447180636
1.08504800572103
1.12516901129012
0.97760733495051
1.00372836286753
0.980861162986753
1.08428247637503
0.966701011714406
1.05053668971037
0.976489493901082
1.09022861116417
0.989582511979461
1.14741847218496
1.05328104720716
1.18134610167425
1.12243527933125
1.17795759247593
1.03231309288497
1.1184556560555
1.10077891823405
1.17790647576422
1.13099356226304
1.30733752040804
1.1348174282682
1.0988011286658
1.09426255598604
1.25042443419438
1.04546004543177
1.28082577313279
1.08635860048543
1.14096077074994
1.04150067558323
1.14926040631351
1.15636496295079
1.17038186105369
1.16957172801508
1.18039589855086
1.16210044180374
1.43932024377895
1.2161626069858
1.30393595846772
1.23850242551267
1.22522294804636
1.1243664955291
1.20409403687464
1.14420531885875
1.34642550797349
1.27380721331855
1.21528901631863
1.15019375271371
1.47178142561636
1.22369844709793
1.23141067724943
1.20995961313543
1.42111421867799
1.249447373403
1.20719712391575
1.30079090584028
1.27858817419774
1.27251366273579
1.30289337221044
1.28512446479284
1.46382851095863
1.25978864072329
1.31227560153662
1.29084640947945
1.34203907294307
1.31558679118807
1.38017409762398
1.22063119469675
1.33602841685189
1.28168584590344
1.31984817943079
1.21345249601892
1.5652722721798
1.35494412224822
1.55283043870821
1.2952000541182
1.54758412893215
1.41282779221653
1.39523832869442
1.32226400453823
1.37796226380567
1.35199745583725
1.60773254565436
1.35823746615927
1.5118068967268
1.49332434770229
1.34276407558686
1.29902464171649
1.76139272778167
1.50219543228032
1.640088944261
1.46000627781533
1.38321218728607
1.3680799616265
1.45885451079569
1.22120259497429
1.37893037132413
1.39313094800099
1.43717837947032
1.28020105694574
1.4497096178737
1.49115694600632
1.37386540723935
1.42780246222062
1.46638974460453
1.33649306084137
1.4108111130851
1.40652556938596
1.5782308806247
1.43526346044701
1.4616820360506
1.42738653202813
1.87350743586638
1.68785079152596
1.53105189304004
1.35599504378707
1.5685088785243
1.5233226673984
1.70815409954652
1.5227386034309
1.35476320869768
1.35536055030899
1.57249536150693
1.5201182642925
1.4863467350512
1.47970540288637
1.53414486776848
1.36760168028696
1.746248629537
1.59339830520711
1.46075289856551
1.39454787578244
1.4429669375308
1.38108567302909
1.40512261204203
1.56141107352405
1.63092546653646
1.44932515123569
1.56891892736601
1.40940774350877
1.62963568249306
1.57799298551136
1.55844184203696
1.57861852362719
1.5396441096501
1.47735190050038
1.54375856366155
1.51276405758226
1.46472058242642
1.8311859461755
1.67240337861317
1.36988715280171
1.40388459948533
1.43707845878153
1.57166387952585
1.57329562593884
1.3742230935251
1.45975357443898
1.51207323608997
1.47320770106336
1.51346457314962
1.46083310588431
1.53463799207003
1.34865117828363
1.44066515006305
1.62079234936996
1.59986881917763
1.56167257797869
1.41226223516286
1.39758855477407
1.72491266671067
1.51968246909096
1.47083441968328
1.43194948192395
1.65569651309188
1.64057084231652
1.45593110547389
1.57907218137538
1.79344324359551
1.72834127674418
1.5850582146428
1.47882470033245
1.5687246901653
1.48029716597214
1.67587588737526
1.58968694095752
1.65667284902
1.47230534155668
1.38827925739541
1.56489535816324
1.50279657646737
1.58675015251901
1.79102612306167
1.53230266842436
1.51816144634932
1.54362614502778
1.49477044021457
1.50843688442829
1.5209935725818
1.59479434004188
1.6866286781073
1.67896867773311
1.61516517275688
1.47722425063367
1.54065746343458
1.39166518219147
1.50470860773576
1.63734684698383
1.41520832240021
1.53861233514222
1.65436584535403
1.56973217046981
1.59956252370063
1.61580539620759
1.57429451890755
1.4559178211367
1.52441706341271
1.55931552577453
1.45527175473568
1.43635237249531
1.49569088100402
1.55747915193037
1.7030454114798
1.45154754097406
1.57090077837456
1.70298346594791
1.46230680982364
1.48574450538861
1.52610022089518
1.57679807138313
1.5742432754165
1.49432641560836
1.48825259231346
1.578632873643
1.65940066916514
1.60447148011451
1.47715090264375
1.40282373044512
1.4864485751453
1.44794005778471
1.49423472800805
1.53259305224542
1.52646255630042
1.49113290610579
1.4123212683913
1.46155602097976
1.5244083087945
1.543096514272
1.46900601262786
1.53600505741343
1.41646548809602
1.34731436703021
1.48805458731777
1.46012448835139
1.43478285382569
1.41488528312591
1.49363506847361
1.57199664287748
1.44777780494464
1.49001953767341
1.44901523788741
1.48564165042227
1.45401636842628
1.47014381794886
1.51139733151949
1.403846360313
1.34496707371174
1.35837709495893
1.41920378887894
1.4673025013739
1.52089524984336
1.47039194488152
1.36769974455324
1.41415154377527
1.29555602152393
1.36665969775706
1.39644020854335
1.35569795318826
1.384517052364
1.40183990949596
1.29035857833672
1.26646100193156
1.34055328442411
1.37388041424142
1.33522340247455
1.39450633285552
1.39964151945004
1.37714759297094
1.40175182778076
1.32926509257136
1.30208769809221
1.33575683252862
1.279033344719
1.30332055722676
1.21131299464691
1.26807936822973
1.32336340304849
1.26903992175079
1.31339261511958
1.43943014744294
1.30717468174157
1.24282821311576
1.2813555735233
1.28022623432485
1.24162744321015
1.2398838236143
1.29122552242912
1.3547231529803
1.25693423065836
1.2551389028094
1.23635187979743
1.1818896700422
1.21173736646932
1.3209541039833
1.24576466093456
1.20114329031921
1.23036700254841
1.27165725536682
1.18916722865198
1.22839797281394
1.17628827162434
1.13669782362501
1.17082691051227
1.15890670742906
1.10773304979131
1.20009183352407
1.15422392088502
1.11243133181751
1.20187074466131
1.16920037333255
1.08763532140872
1.1756122374883
1.10293774235456
1.07946847167763
1.05582319213267
1.11299548945425
1.10693597278511
1.0878267629934
1.05922279309297
1.03806879582076
1.09535938716661
1.13083763453536
1.04180905419149
1.08510244259322
1.07724702741722
1.07207700572812
1.09518255748526
1.06299677008606
1.04467893676303
1.06116882217333
0.984423841616882
1.08112723077659
1.06505253046757
1.03742489644967
1.11092379428981
1.05341564746455
0.986075547976845
0.986523377241283
1.01902745922468
1.04177375461119
0.993097167137872
0.978959636582372
0.95517090557564
0.990974048001167
0.968236066978941
0.984188082917262
0.9421385877884
0.961987252956272
0.97968234888674
0.940972897497188
0.926891817874774
0.968373043900372
0.91559650591973
0.963969819010348
0.949404731030145
0.927548312045357
0.9406408005171
0.939248979810858
0.916126858600934
0.927327767449089
0.881652679375022
0.931751660642976
0.904359063408932
0.907549066400767
0.879612639524392
0.866762227456015
0.871799755154458
0.902021107951507
0.851868490365188
0.886421771983144
0.855479354059894
0.872229917303954
0.849154679129274
0.847796649289925
0.856268190964666
0.859917771526366
0.822952412841746
0.852152115569267
0.821786207561205
0.846152350216483
0.810934698731301
0.841982716832977
0.806218714578141
0.816407347707116
0.794953383711801
0.833893987117197
0.80584536777411
0.811080747794853
0.797635716686983
0.815087828155235
0.785590006007495
0.801143394477631
0.800176712318772
0.782097733612843
0.746850846026859
0.780794264934567
0.760649117445927
0.777362693701167
0.774235969030972
0.789481342164046
0.763167933549665
0.771726720056945
0.730151307133707
0.757423969463453
0.729381288425008
0.735142761019677
0.719709986054656
0.741617523778012
0.737368633691297
0.735993764692544
0.711905150612268
0.739886786853651
0.715908075292384
0.725752806288382
0.708416497005116
0.725902034665155
0.693349943181655
0.702110271884585
0.675095112162749
0.701155520896548
0.676090427724761
0.686692600375653
0.662297466371936
0.687010959863159
0.678236821917508
0.691447185349116
0.667950812936516
0.658520784384947
0.641575603468282
0.657391421911082
0.652436415553939
0.682295152501554
0.654763083502557
0.641731896700815
0.624924543872939
0.64962106537039
0.635592521707672
0.643391885146576
0.622243934845709
0.649913061430258
0.619178877776313
0.625314326068979
0.607931061499812
0.626402931377529
0.600662940803155
0.605757676074704
0.603432514299196
0.617622028192488
0.607044838873902
0.614592519494436
0.591110389028431
0.613750925979714
0.588358071525322
0.603767243208125
0.568896322170383
0.598614184315195
0.574052336365974
0.577347100234731
0.566453427212764
0.587565093602653
0.5653330273665
0.570399542754292
0.562521621909507
0.563506844984575
0.55477198597517
0.556925020948891
0.563079762472543
0.562215628116904
0.550762338425752
0.550947135888299
0.542324096050296
0.54623681033293
0.534670799989591
0.554847377502634
0.542937195256143
0.552639395803935
0.519800150270704
0.542837356272689
0.529679163048255
0.539397299622144
0.527479981438691
0.536230448582656
0.518642851642732
0.527557300906219
0.530736375249791
0.551254758591171
0.52197533744049
0.538240459715852
0.524910402025667
0.543692161692734
0.54180240566618
0.535217471151573
0.528513897506343
0.538036898481691
0.526055534891111
0.533646023653437
0.524673771282553
0.5411025527975
0.532921704685484
0.543705611172616
0.539611697151511
0.541900008558892
0.529590330840033
0.547088467629836
0.550646726212125
0.5517528520209
0.543543715180266
0.559323509333659
0.570357408100184
0.586969451563267
0.556646310083789
0.567068423021703
0.553164442125512
0.563581382716651
0.570983366602906
0.575837587629071
0.566694996888467
0.582646402681733
0.562995138417152
0.572840724243387
0.579295514810211
0.588375124801927
0.581957413130363
0.59887439404018
0.584851295568454
0.617427271439549
0.580890726724166
0.610049634937185
0.601343237945165
0.620803874260782
0.613326280385643
0.613708960949313
0.612548021069521
0.62003337643984
0.613313147148404
0.644547269473715
0.629777790421058
0.632850355508476
0.627949038251762
0.657842920044435
0.63392360700152
0.65304633607277
0.649370880574431
0.672848444747073
0.642245621755636
0.672659948693554
0.660226483678305
0.697183904424162
0.667629767887418
0.677880764223494
0.68616542136587
0.707813141749254
0.685949174339102
0.706664261029671
0.685552196638233
0.71227716667469
0.690847475834401
0.715844961072045
0.713589257811228
0.710658971033454
0.704181260044081
0.700655010065868
0.692983799077
0.707814971407614
0.680625243630769
0.706022577377873
0.690121955326592
0.707045726082489
0.698852311685977
0.716190985078285
0.687077977796192
0.710857707203918
0.687547202225258
0.724883436117736
0.685118864132559
0.702592434981424
0.667378258216155
0.710319578640511
0.682115984179269
0.699721450191663
0.676050195306799
0.695457713564178
0.692003573208751
0.698981400191095
0.690853939205837
0.695366503329681
0.67502803467697
0.691798560330535
0.668410710043891
0.701943332877572
0.676585465580545
0.699791314878594
0.681616456749141
0.687976245886802
0.680550664638178
0.6881180048831
0.682378488636931
0.688767915257248
0.675020374158341
0.688566327845636
0.682087884920747
0.700458622267585
0.673140272097241
0.691601173639084
0.678358083138776
0.687362901627409
0.665756646280628
0.681400820672954
0.674856415035734
0.682829616341
0.664333603557934
0.689235785492074
0.671727024814065
0.684215797542972
0.650003019085761
0.674798417262632
0.659354088602645
0.668194163966201
0.645547950050813
0.668456301090541
0.658909151101112
0.655668890185604
0.639652024221348
0.655265758762991
0.643289299420653
0.657468776890281
0.629684634095508
0.63682383651408
0.629575343819488
0.625069098970711
0.590718810263855
0.620431567513207
0.596070194529472
0.619099939774688
0.602265823885552
0.606163374437243
0.591004181942345
0.600376991201102
0.583508389732118
0.5919738812745
0.585838869800659
0.575823714744817
0.554870759623905
0.560056934350588
0.544131950300199
0.566995609576653
0.551327854281131
0.5599776489217
0.545008860840742
0.54705617020677
0.53306249500903
0.539506548448836
0.52404873365485
0.53616277212746
0.513749751792443
0.52335702400466
0.506328305326009
0.514082787445117
0.498420340869058
0.511788191807972
0.49395915368604
0.511462028322849
0.498298579975594
0.504839338095912
0.485278746621358
0.503078649719342
0.47746487353719
0.499156323826188
0.48276894612182
0.482849067738242
0.482507893489569
0.483662305010783
0.472040407036216
0.476541138035377
0.468807823362529
0.475626498331173
0.459251198678521
0.464611626192796
0.458119335312094
0.467153490845809
0.455230805942009
0.467863071034493
0.44711372360559
0.460475636282217
0.454877862457671
0.461469310313467
0.44728572398697
0.461114839477127
0.439209316530927
0.449070946161185
0.433523256590621
0.441486431181622
0.432051840329279
0.447206428432875
0.433089478878865
0.436205428702173
0.420535280281968
0.434728674778373
0.421877271937621
0.436899658273416
0.421248248020203
0.429062531807906
0.413556090138617
0.42878079322042
0.413154421422098
0.421165553558909
0.412687227963217
0.424123291572631
0.412167206505521
0.420868268205485
0.41231811156369
0.411372616598961
0.41278849036586
0.412157601469185
0.389955849572493
0.404961396379225
0.399576867402598
0.400142180608611
0.403403419626412
0.410114289310623
0.395544999598731
0.407893073054054
0.398770563325371
0.407518180740921
0.396699635192503
0.394245684757997
0.388787839823546
0.403372217609198
0.390750436757028
0.386233467798181
0.384084940614244
0.394575634206701
0.383762164710214
0.390145979746698
0.382009089112811
0.391711141854923
0.377709494452124
0.384999581588836
0.378342664787432
0.386175134665222
0.381706610049323
0.388325491750071
0.374954382262204
0.377618487504013
0.370210575462793
0.382226338889279
0.372258875716574
0.380162389008491
0.370154358495893
0.383522324088224
0.372185159221996
0.375956728483512
0.372059467075849
0.380779667157011
0.37020071842225
0.372799268931149
0.357091992627745
0.382449798310356
0.364309751614534
0.365022401215736
0.368003422674482
0.367596528382949
0.361395133939784
0.374767123932565
0.356469248871497
0.374604041211879
0.365114591670473
0.369941756927382
0.363816334620158
0.367262835310761
0.356007527793161
0.364265346783532
0.356229909778502
0.36363844115308
0.360235037890055
0.370720167603793
0.351379115584123
0.371842584869789
0.354310465208682
0.363605867571301
0.354672934272363
0.365669209515755
0.344205184817037
0.357572472880304
0.358470861202376
0.359798461110625
0.350776946040439
0.354460500916757
0.346293356794325
0.361398701682239
0.347395741358825
0.348089443645594
0.347599452180828
0.353223619051692
0.345438979311957
0.353360213558406
0.334068667078311
0.35063622341488
0.342125832512737
0.348815122926658
0.337505802740287
0.347269761056871
0.332282273017635
0.350027490930579
0.333920096971629
0.348237854694871
0.332542774151646
0.341985363933638
0.32891938961845
0.338232811618243
0.335711106317716
0.340513729609868
0.32172620766552
0.338680289530555
0.329715133355852
0.343945448685853
0.324010004174083
0.335153008272123
0.321444092420062
0.337663746896123
0.325134271471091
0.329917298912886
0.32644944211561
0.33153933370721
0.324514744574813
0.330351449504412
0.316755095946302
0.328101467619943
0.322169300581348
0.329202925425659
0.312733684140779
0.324631926339349
0.31553720090473
0.322399074807831
0.317124653265039
0.321300166032128
0.315341937898702
0.319816920422355
0.313697913567794
0.320898886676825
0.304160836816788
0.315636337845213
0.30611434032153
0.318247652394644
0.305294313834243
0.318474001098834
0.303503966909685
0.308027581460995
0.295845632705223
0.302207847108265
0.298618741628862
0.303668638676762
0.298806593129269
0.306655133021806
0.298290262739163
0.305165485072874
0.292349177888209
0.299167067722532
0.290743124306379
0.291978165985172
0.292111563516949
0.298552348312011
0.288959925806012
0.297552944068085
0.28021927963691
0.294772926836035
0.287109795473352
0.293449763663779
0.279778979257029
0.290246423640016
0.277419808509129
0.281894769959254
0.274905896350078
0.286752718303124
0.274528853402816
0.288047338319973
0.275770000644447
0.282200772687716
0.26857936975228
0.281002774136624
0.270221801663715
0.279206497163204
0.26750861635362
0.278234682721154
0.271651805176913
0.276120735889993
0.271969636291328
0.271427448541322
0.262735466442074
0.271693653498887
0.265804050707349
0.271213096260451
0.259677928350669
0.2716640765292
0.264539545038092
0.266650606570746
0.260104526886078
0.269442220007079
0.258419495177909
0.266574372507805
0.256072556703806
0.268374131686314
0.257172823425583
0.26504714038106
0.250332081757724
0.261712575019011
0.251869925899013
0.256023334909072
0.253576898174165
0.258086054766936
0.254667911959913
0.254561289837401
0.248406590921426
0.25586181821937
0.25347174137596
0.255972736415567
0.245413265531778
0.257018431178314
0.245129379850875
0.249176156634994
0.248580410728986
0.254025299331903
0.239917535101873
0.24519495049278
0.241763619998691
0.251943781431818
0.24386684137528
0.249445030768794
0.243584179968525
0.24686421477644
0.235195283424518
0.248108437556932
0.240299882551799
0.238307120633989
0.239251021198598
0.240580798802289
0.238823691768368
0.244044579772126
0.23491467046904
0.243809512322779
0.233726365981824
0.23885528342135
0.239953165206425
0.24110765134307
0.235008086393595
0.240986334458795
0.233404041714348
0.237610088737697
0.237105904777067
0.242923471081322
0.229473021810817
0.238475374369356
0.227155078848339
0.235260898496381
0.225218165282236
0.234152774898287
0.231746616804872
0.22658851052547
0.234816617285264
0.235799148689452
0.229650859241473
0.231920495856346
0.233090771613378
0.231317448741097
0.224338473983266
0.235094119680291
0.228000202391234
0.230681242664154
0.22362620967664
0.231582943877527
0.227829661675216
0.224959810006979
0.219643965435487
0.226772095301551
0.223374216266988
0.227389685263538
0.223464242394624
0.225427282764748
0.222356752803143
0.224504218020581
0.218886079567418
0.229388676100913
0.220213437261619
0.223000881163665
0.218851833661305
0.225643616549516
0.221535392596726
0.219934779003999
0.216144169195666
0.219405220374801
0.218585914033986
0.22220671975987
0.215727591908913
0.217274241207742
0.215228170651317
0.214829454337947
0.211092663005554
0.217865355797221
0.215735620308038
0.212810894009491
0.207295277740425
0.21640871577848
0.211155368003694
0.216741767031701
0.209817983674523
0.216808761711524
0.210744604883764
0.213459545436665
0.209316578520516
0.210812634668441
0.210880518022366
0.221155506296931
0.21033587941822
0.214203297510971
0.207357430114243
0.210607873152585
0.20609303703898
0.211268513120135
0.204391535428152
0.209960052534218
0.205449876879495
0.213359561009947
0.207888295196084
0.209974315369744
0.207490546849361
0.209133710142722
0.206230993455936
0.208581142127889
0.205093979599456
0.206471268896415
0.205140995290909
0.20513477019687
0.200212054733916
0.207247236126147
0.196787275897781
0.202041125785354
0.198272359587308
0.200247992911846
0.19949857938584
0.198848320940564
0.191434465822149
0.196420322449282
0.197508342288716
0.201454349245528
0.193778975301638
0.199145110483567
0.192991715141014
0.196300414365524
0.191188919326041
0.193567352937821
0.191531018220633
0.194606578822619
0.188860755204382
0.189839879131513
0.191281522077649
0.193258224756556
0.19020931939011
0.190238362732634
0.19179889945815
0.188942736820389
0.181881423161488
0.1878188402459
0.182915243252339
0.188340401266274
0.183319007505714
0.187198108854345
0.18217699950261
0.187769116826236
0.183644871008627
0.184403653506306
0.180410930694198
0.184546094283892
0.184290840202633
0.180395912548165
0.178470836577321
0.18364510494321
0.179356334683835
0.180219556912709
0.176054563470181
0.177552327170271
0.17664658595964
0.178632688151481
0.175562615585459
0.178388765816316
0.175655837994405
0.179092866385895
0.179087116756318
0.178554152541372
0.172876360628237
0.174117635559681
0.169361456956625
0.174527843069108
0.170688989994847
0.175226550044228
0.172110562447973
0.174210586779538
0.171485627247621
0.175126435149921
0.167655970513442
0.170228786497881
0.167930904721605
0.170139550182156
0.167589028354925
0.171209822730996
0.164652186196261
0.165602786208225
0.163896945141103
0.165369134829944
0.163911603630391
0.16404424821865
0.16785916823023
0.16686221223878
0.160471266193735
0.160382852167035
0.160992610011638
0.161529603906953
0.159858078974004
0.159649278979541
0.158603493551544
0.163287693719211
0.159908724958994
0.159446634412269
0.158976760972388
0.156522212146716
0.15746296241274
0.159766656621667
0.156123319463337
0.157852595952765
0.155679007333907
0.155991622731088
0.156144833500845
0.16079552294283
0.154618103408489
0.153765849095071
0.158734787884977
0.156240685818646
0.154616649314957
0.155564859622703
0.154455368737851
0.158258594876004
0.156237399148052
0.158308658502625
0.156221939579751
0.15461118565394
0.153037792994623
0.151801279047865
0.156029330332967
0.154143077708318
0.149522487668021
0.147368539179086
0.149019026399648
0.155524186212799
0.149256662079723
0.152082742245282
0.150735762632413
0.146937904057737
0.147300737931458
0.156345430082514
0.153365383375155
0.154493817459075
0.156625332547521
0.1522493189695
0.151833829886341
0.156446783989049
0.149904171415423
0.150561855799175
0.15655380616654
0.154048220585692
0.15472679956247
0.15382247405751
0.146390490362237
0.159577338880102
0.156451059294586
0.15300362852671
0.149717829736664
0.145936824582021
0.159318358945547
0.149886059625451
0.15200473544798
0.149699331694386
0.145828750638122
0.137070073337287
0.147798867529917
0.142020246833704
0.146076623880292
0.146622267853173
0.150999444989904
0.135684019066202
0.15310734793544
0.137488642385179
0.15903682255658
0.1356171650665
0.154575321439592
0.130601778787272
0.16072467925709
0.136256683480734
0.162305061509956
0.132442524563134
0.156294906769533
0.122526108169364
0.165621107970312
0.127186064248005
0.168159701384879
0.125439319130653
0.163893718938091
0.114739665987223
0.173620448312367
0.133015884918391
0.161897626080436
0.116797192437376
0.169321112158513
0.130372635606643
0.14933317410486
0.132867323195396
0.15057522535734
0.144247255794782
0.133714827560338
0.152513740053045
0.129808800220074
0.154828540387147
0.127001215454715
0.15679575142136
0.126686215142008
0.150666030659947
0.130921147528106
0.144461994899053
0.137374689031034
0.142994727474213
0.140935834099071
0.138021644127424
0.136087658100574
0.137477593802249
0.136898193048418
0.13792244050299
0.132116964594651
0.139199230805234
0.13240980006449
0.140609185189377
0.132604957757901
0.138405968908922
0.131735812907524
0.135983948666293
0.134071472815278
0.138017513355848
0.133927759578823
0.13385701089415
0.13403648688094
0.136774854456179
0.135925921031742
0.138096495347219
0.131973323905092
0.138261921101819
0.133294060144873
0.139855258305554
0.132720321515588
0.137167227520017
0.133955036368488
0.136380273381873
0.135051752793382
0.134925637030383
0.131675409990953
0.136783699808672
0.135372655212246
0.137817814628314
0.133143868509364
0.136331103091441
0.133951886347138
0.139551732591006
0.131741497819635
0.133021384592825
0.132836123641029
0.13594737031565
0.130396584592023
0.13729412569669
0.135247961358903
0.138952894235895
0.138355645580971
0.135364582851715
0.133920565429036
0.135946360991071
0.134308868374393
0.13550943227526
0.133882954455631
0.133867651167172
0.129979112552753
0.136595037405279
0.13393001041776
0.136364763372845
0.134801944738183
0.133916842048769
0.132381569458815
0.135886723932356
0.133541204814486
0.136308896105443
0.131311283353185
0.135049779573915
0.133721576545711
0.13253211367101
0.133134600945285
0.1393594593625
0.134378015276943
0.13469244622846
0.131421131621325
0.134778135091096
0.133886180408346
0.139478729597896
0.133873456648872
0.136506849347427
0.133771507954658
0.137336515775864
0.131678739093507
0.136281017715738
0.134729822182259
0.134339652628543
0.138158436647364
0.138798401848749
0.13312196499773
0.139911273294807
0.13632755193138
0.135959382197643
0.136205360394821
0.139289697992659
0.137777745531788
0.137421931608733
0.13416978747783
0.139001223719171
0.137126281993821
0.137431157806704
0.138418376271184
0.139885001649289
0.134970729173681
0.138870980773694
0.138152470240633
0.139991871952792
0.137199828747789
0.140032669992327
0.136568872203348
0.136009024451066
0.136821221341764
0.139262163140133
0.138863907360511
0.138386631983203
0.136759630267845
0.139921016326798
0.138914023886152
0.140237941235429
0.139521222854875
0.141255816510366
0.138172227182185
0.138850663314064
0.138971762688437
0.140751254259667
0.13959010510339
0.140345177205194
0.137862701812164
0.143390044995308
0.14083175965624
0.138926087054289
0.136353725983891
0.14082877668087
0.141882051692182
0.142506514428815
0.140024873656279
0.142422364761494
0.142630057409056
0.141012751449501
0.141370320935772
0.140616547571078
0.139845281920934
0.144690395086042
0.141360575735096
0.143143570451786
0.143734642142195
0.14166711034613
0.143662390014406
0.142791179662459
0.142111251973115
0.141310623872629
0.142695417053793
0.144305378683099
0.145195551084434
0.142684006659273
0.140265749431982
0.145498046800365
0.145817361908383
0.144960566653476
0.142733111191846
0.146822299755378
0.142338855778614
0.145028711255522
0.145224914306127
0.143296379171132
0.143086996217358
0.145673534996581
0.143930973794169
0.142442223460582
0.145459415675688
0.147264354077741
0.148209202968482
0.145521814592955
0.14058247187289
0.140937606031686
0.142205030209509
0.141691848940158
0.142484159424885
0.142069972900088
0.144478231188051
0.142653579297804
0.143496431589828
0.141136391711952
0.14216705719178
0.142043233739165
0.138842012777534
0.140502126560232
0.145441926484292
0.141409999173734
0.139344993152519
0.141979892100033
0.142183809753989
0.142293415620429
0.140213370527824
0.142255967500849
0.139658416086815
0.140137501370531
0.139172200284122
0.140211882316202
0.138803100827462
0.139274875202837
0.140555674942472
0.141702971940283
0.138697074139004
0.137705715112336
0.139022393646122
0.143469899127746
0.143347368586882
0.138811334262313
0.136594069741037
0.138609477614197
0.138331005862332
0.138869786133138
0.140247521754652
0.138136289474369
0.138548890812298
0.135918585035374
0.137005617012469
0.135812379667079
0.140918711643237
0.139435369883559
0.139529665363015
0.135170188425015
0.140314677692113
0.139117150381641
0.136826082667929
0.134951389599048
0.133492918338961
0.133649198841935
0.137536540545254
0.135136241315374
0.135440355820107
0.138305664649936
0.136353098112982
0.136011923114846
0.137284309353242
0.136592068180279
0.133840912715833
0.133315851742926
0.13541141144994
0.137130372146061
0.135906127486055
0.135381518215668
0.136464784755503
0.139107243326545
0.134717478053976
0.135248742200407
0.140041852335042
0.133905259394485
0.136448867331421
0.13556399845448
0.131993893613403
0.134495663540984
0.132881677696817
0.134980656196836
0.134530851301135
0.130100970841092
0.135245694095449
0.13589655639811
0.135087171482661
0.133463792298206
0.132969919189424
0.130624066076055
0.130756046731702
0.130296322886469
0.132026837334364
0.129525033389663
0.131485915523259
0.131482896915606
0.135474295921874
0.134060207817117
0.133804644775941
0.133100306883472
0.130204211501597
0.131292427886759
0.13129296620119
0.129506029339621
0.132184574948998
0.132759062530854
0.130767783884624
0.127619783187955
0.124956150872744
0.132794682766848
0.130355144608878
0.127725385684324
0.130925931117125
0.128684167800891
0.128757551470476
0.127582566395317
0.127118012800648
0.129071607475301
0.13292252381919
0.126612538391719
0.122034978407994
0.125559661307525
0.125607755034657
0.125234313273696
0.124150084305764
0.123654511596107
0.124833349162035
0.123806684389623
0.121506515588778
0.123530804976739
0.12380007852016
0.122865439287487
0.122570242619009
0.124172154214372
0.124162833784091
0.118783284249846
0.126738548297723
0.119391333062881
0.122668054482353
0.120113382218071
0.122042711915629
0.117392037173355
0.120169344841175
0.119303725368079
0.12185047057758
0.115391297009419
0.120646254530337
0.117853859272212
0.118806864907877
0.115807824332774
0.116479964545125
0.115586724747822
0.117835109629028
0.116769370464763
0.116904704003267
0.116391688283574
0.1173555936832
0.111960345019058
0.116820124078503
0.110357000261517
0.115497970816006
0.110877357217254
0.112889765703835
0.111900667541647
0.116341575493299
0.108481669235908
0.11416387516344
0.114991450351874
0.114505248133582
0.109746580608706
0.107900062752348
0.112828001950457
0.109167185349952
0.108624257393764
0.110165714720064
0.110374060572269
0.110192520291859
0.109216589820077
0.109718715543404
0.111370336895566
0.109180575689998
0.106685668875517
0.11155101188863
0.104697253311296
0.108330579879832
0.106018026448539
0.110559090001149
0.107283321548829
0.105018924979231
0.110178953187648
0.108431765280782
0.107677869639602
0.104725646822852
0.110467834470457
0.105837943486708
0.106558240831057
0.107443835745428
0.104987821534291
0.105098761855488
0.10544428235971
0.103980082380273
0.103895579126892
0.103813694867919
0.105238189261301
0.105314131129698
0.105175295027385
0.105141784690489
0.10334246670003
0.102744189833543
0.105656152047764
0.101697123980162
0.103569241650673
0.0976869007993398
0.107990036449459
0.0976265505768139
0.101321599974783
0.114169592957756
0.10278316370586
0.104589740515479
0.0991215717452581
0.105544802369581
0.097622266134412
0.0993705419038753
0.0968668701469776
0.103278588575064
0.103324535614146
0.102015497704876
0.0958457848183238
0.0971218808339805
0.096647706983478
0.0990260379028223
0.0971752940875373
0.102082982529743
0.0958394462420765
0.101908608223342
0.0959876451369453
0.102016063617876
0.106919957791392
0.100671072147705
0.102884542011752
0.103238246122819
0.0835968125516176
0.112641299912125
0.0985919900816097
0.106720073654731
0.0907692583913595
0.103951794636753
0.0937495124529778
0.102811045772747
0.0934662994967123
0.100108888535431
0.10247842696215
0.09658292094389
0.0995864624209344
0.0974281802718827
0.0970060784231206
0.0986314942138334
0.095351349464046
0.0983817904029794
0.0961839744054535
0.0998472104329049
0.0947664470904797
0.100179386634799
0.0924827583769481
0.103392597248392
0.0921477873202216
0.0994661416084131
0.0954900600295842
0.101355491173784
0.0927669493870722
0.101428010462579
0.0903458662503949
0.0987868138534788
0.111783435564945
0.0984456252864879
0.0988510058805222
0.0918661307329378
0.0971779045908782
0.0970580055209323
0.0951360518867348
0.0954294683432696
0.097413529075292
0.094837619347561
0.0934211645022859
0.0948872084319579
0.0937305563031069
0.0946937477236046
0.094852873863014
0.0996602404598539
0.0950864440041187
0.100051609679376
0.0926884747604218
0.102698980560605
0.0855186405409571
0.0989590615767244
0.103100682380232
0.102684990211828
0.100618334326059
0.099334710872785
0.0960816238164621
0.0970575127287864
0.0955682508838252
0.0959075125596418
0.094747242745763
0.0956910110409559
0.0972823152545479
0.0953584395358449
0.0991111635767379
0.0955734360061219
0.0987842400665353
0.0914899624274486
0.0982593178202573
0.0904029456563831
0.097758739793353
0.0885529579486175
0.098790519828167
0.0842639851056821
0.105207495570303
0.0931473581439307
0.104088690559931
0.0689360058599835
0.121648513715254
0.108368286653627
0.0969988053114273
0.102830415948234
0.0928605478243835
0.100126382633958
0.0932339505972154
0.0979799295436589
0.100533544302608
0.0986103629356716
0.094750870106211
0.0986808319580604
0.097638527932444
0.101094100195499
0.0877996746882591
0.0879321965362371
0.121264827022291
0.0986743056477341
0.106112705046223
0.0928767549420997
0.088803664177659
0.116916736827806
0.0948855096724859
0.10649666835004
0.0962038663837275
0.102423627804947
0.0939042111642122
0.103181943812875
0.093235068051417
0.104963855192803
0.0983215818396344
0.0967826696893695
0.0976925510442433
0.0960665803854292
0.103589424570621
0.0964588228712839
0.107160079388858
0.110447344584612
0.0978136788875826
0.107627930547609
0.103211246325912
0.103342960087296
0.100153359061668
0.105203821781727
0.0974254111995552
0.103973953329548
0.113693891326041
0.0954077409085792
0.108487579868744
0.110741777711204
0.0983598631028038
0.109980895406335
0.100121024784565
0.120584407009917
0.0922331413194006
0.101611108991165
0.123955582800365
0.0983801989109106
0.132055797680105
0.0966038878336995
0.120433135440287
0.0964813370139502
0.120529282757473
0.0824416140577564
0.131572212493952
0.0971573600617162
0.121300372500487
0.0958569657029489
0.115870921809524
0.112643038556385
0.116346963027914
0.115696042215643
0.111517569281042
0.104398504680055
0.120418669008048
0.115457169568943
0.0885845708163892
0.136116983539777
0.121310415513629
0.131742700663553
0.122079008149279
0.0915453155989974
0.151994228090564
0.112279347021895
0.128092743736059
0.109981484661356
0.126012972896442
0.113303939346584
0.10232747006342
0.146842579177659
0.124160786216238
0.116473994957894
0.13364195057974
0.103602230329381
0.140912185354471
0.131027261991656
0.136780341570168
0.122328300961516
0.146048552758465
0.101506990691147
0.170606642606234
0.145634101538972
0.135021657944207
0.160247757484201
0.142457836214305
0.155628623564905
0.14225589254889
0.149217959368033
0.143524979991218
0.160278176925792
0.150569832363006
0.139355387417279
0.142826361527944
0.181977593926322
0.137669187890967
0.171595670058862
0.144052489514672
0.143350229446368
0.146379061108198
0.198736426164466
0.177255674565047
0.169349062800881
0.146980824978275
0.187198301224166
0.161679693866501
0.171893656435586
0.164202494200918
0.168560999664548
0.17210696172948
0.167939141481019
0.18694505404278
0.171365219944216
0.177696673576003
0.17953307870427
0.15967697510426
0.186558415421973
0.192732904809913
0.23292166886831
0.17042142953828
0.227426326692952
0.2048300176035
0.208544205796611
0.197306509605471
0.196284380865591
0.209022637960322
0.209689166580388
0.210102678687757
0.195727322345259
0.230082817643547
0.227704487142438
0.20450546600964
0.262058978131718
0.215994179832362
0.246895658496211
0.121337483280815
0.428451266957047
0.254742146832408
0.280903539566247
0.259091125631341
0.23268021120794
0.358101251788154
0.307810622404266
0.308876332818741
0.318214309975445
0.315566313988921
0.330768537012374
0.344831609301941
0.354353364008431
0.368698019312294
0.384099777624328
0.358207515776683
0.376951395951138
0.4494114762462
0.450016388542612
0.450277787987161
0.424577668724838
0.440405675997764
0.476675586044523
0.45931027125917
0.489214808475
0.490494077398988
0.451701972472089
0.586617103343536
0.517113551811248
0.54841180161807
0.513700612563146
0.601414588113259
0.536495682690408
0.632510603458906
0.643123388185875
0.618698460344103
0.638196718150931
0.613717264467303
0.66486439859143
0.623894715042682
0.722788985139516
0.70036649729807
0.695262097465195
0.704922228997639
0.723879082096853
0.721862218876252
0.728234624511754
0.743358776205933
0.724607906411109
0.766147275275876
0.737183885695078
0.874256797636495
0.796450242877121
0.75479691733272
0.796734705304768
0.722254091993445
0.831144603295239
0.763013661445168
0.818882607534507
0.829437835928969
0.770362155217987
0.800390874406468
0.776460647525171
0.78575093842927
0.797884940886443
0.825808041954345
0.791004589397846
0.815556567784022
0.828168115126176
0.76598799641405
0.93032744071877
0.791244055754096
0.813381137996784
0.772947766214694
0.797862967435952
0.771176805684004
0.792431139330836
0.756939167629195
0.839132037130879
0.761362938184669
0.794686296430909
0.745180955092429
0.774072843420411
0.794357636294676
0.731179901966026
0.729523749183619
0.710366390824137
0.717884181066396
0.695843530529795
0.64547413814103
0.796430648467194
0.684897339676351
0.685326756595195
0.668057392437372
0.672031702367353
0.649312502824241
0.659677086268895
0.655273508453903
0.676210933700376
0.628777464483367
0.664018513485903
0.64011267772371
0.645182612253112
0.628621710256966
0.636673635433117
0.638380886392563
0.637092830245358
0.620492574783091
0.625706758096605
0.62884250595066
0.624181322914416
0.626728801797634
0.623476613082041
0.625000621192476
0.642109208055413
0.619769208790426
0.618756061374088
0.611430731389194
0.62829145261902
0.607450524602566
0.605315616994528
0.612853486991553
0.633691520463638
0.628578991505433
0.623030360628291
0.621445867539582
0.630933053626169
0.634587586809245
0.613904800145898
0.617436212858555
0.607350416609197
0.618676207745014
0.576086027775909
0.66503694993677
0.683377959448183
0.599867422406348
0.652450196257883
0.603262332163948
0.617617423775204
0.565467763237182
0.648608516680002
0.645468064845769
0.60185408974071
0.603605322112318
0.596815117668085
0.591324051720267
0.625008091605247
0.573907510801825
0.614413297065888
0.562172145421632
0.564865172091888
0.642732440566374
0.521461272114032
0.695485998070535
0.602506149533187
0.581356263847436
0.544935382751094
0.646354599186365
0.573537005894228
0.590494408548276
0.576113377265145
0.600642517755029
0.610837153490022
0.57075075355345
0.585337794033469
0.565411807357292
0.587662835990226
0.606166263756912
0.56618980007694
0.560408158575119
0.63900834060752
0.560569129776699
0.567403555493755
0.606850267780132
0.586852049919694
0.546559355857457
0.539766350127629
0.539036945694101
0.503765212950763
0.581303142297186
0.542052806944793
0.533477226364743
0.537760830863241
0.496566934595383
0.52267774624721
0.499717708942035
0.525208961734242
0.455337771906922
0.542455781138463
0.482866526027535
0.48723904848106
0.508681863784655
0.474064521854998
0.538848994028137
0.485050288532838
0.463910896914648
0.452178797526921
0.524473614858632
0.463344392784517
0.477466535072355
0.461194077960555
0.426673756187941
0.470697548322694
0.438624040399592
0.428872663957212
0.446276518105021
0.420195444059309
0.44757689554968
0.438256934497825
0.456577904698158
0.430525777584978
0.39554352568253
0.412573238917632
0.405521339779323
0.407675623141355
0.392895498147768
0.372380487102898
0.434667195271742
0.358573745617858
0.441984087002392
0.411042103212895
0.392512020928353
0.399153203165258
0.402114127072852
0.391860978050541
0.405294333930046
0.422738467132571
0.423461207524494
0.374447030112173
0.429959119053153
0.404697560863417
0.420733774642362
0.413359696798014
0.43212522662972
0.419169570251278
0.444553968691473
0.444341888741766
0.44750787239048
0.447834207667963
0.465814923366466
0.439810611144269
0.524026413180393
0.460942441977363
0.489800395444427
0.521098566527667
0.5269221981065
0.563665253530174
0.524861960796957
0.550665655767609
0.544586343329055
0.557823561666688
0.566058160682817
0.543945212195803
0.605784419836537
0.574292022769273
0.587685943071487
0.597279138970024
0.600339483307866
0.59851518359586
0.59755329664274
0.636935887672659
0.60280888196727
0.698733473222348
0.615221248309754
0.650212266381818
0.633592180801447
0.641257384369256
0.649452452657653
0.641817525328808
0.652249950978616
0.631955092903256
0.676498679698926
0.672196302008262
0.654800154988047
0.674387572957917
0.658851776211296
0.666704117571184
0.672394796749409
0.673699912365492
0.678889163050086
0.685814452705661
0.691529320192576
0.644931446681684
0.721625888814574
0.732256908914864
0.67693597566909
0.718075478483402
0.703192984632684
0.728213334226957
0.692135774680288
0.716022522071917
0.747315263090251
0.733960887493312
0.745850159515879
0.745876282419639
0.750104086241261
0.736565875429952
0.770645374446199
0.756418726919565
0.75421589995793
0.780574202683751
0.698907728955491
0.842399241636746
0.762295328017862
0.812939025095284
0.788713029427609
0.797474891605588
0.791101737956875
0.794864802791578
0.793616705764055
0.806369752785273
0.813368237157643
0.817028823161695
0.81276642007062
0.799854639789401
0.803707067406186
0.792479348231644
0.818512331563731
0.825767854326159
0.801632863850117
0.822553375480185
0.805017060874705
0.80868818579281
0.807966344030529
0.842477799460184
0.805071014168487
0.809221187709187
0.790271938878571
0.816320488640123
0.822435960849302
0.80281508460102
0.799692089439197
0.824275879828983
0.803078641980176
0.81763492919424
0.787879678424097
0.841318370133591
0.819871211761157
0.82662990538861
0.825769731384645
0.823851109424473
0.840258451742699
0.84735500960693
0.814250206082259
0.825459957073083
0.839307393110915
0.844413950565125
0.839218483634739
0.829411787638569
0.847272387190362
0.850004273944345
0.85814120651928
0.854207782450607
0.834178704848853
0.843577785415099
0.830638426605993
0.837384616635229
0.832681913766931
0.822711325564058
0.80222021267883
0.821786334527987
0.795283861566361
0.80989759566167
0.796333999904476
0.774660232998705
0.806898958702539
0.767070210236542
0.772528059794977
0.760762415176854
0.76448223037219
0.768779655393823
0.763172046009217
0.749865292058786
0.750021350308988
0.750065541414107
0.743084805252715
0.738730818013412
0.74241342878957
0.745698174667634
0.735613317050225
0.737947706969766
0.731292706120772
0.730547974162464
0.739021432591957
0.732588676903167
0.729782701582745
0.735809504168443
0.756092663998386
0.728025302748155
0.737501208859651
0.731523756949401
0.738182657959207
0.720683990588078
0.724697366285053
0.731449243910947
0.729148159636276
0.718125314363858
0.727931445836258
0.732396552570367
0.721117789303147
0.729979773142161
0.725376751605767
0.730589780096655
0.723369212721652
0.715606355380397
0.716719464583046
0.722160239505329
0.727292750044916
0.729738500992245
0.727119623249536
0.732693235556054
0.718371886288983
0.72823414373237
0.726074610414817
0.72581475000083
0.728821281188513
0.73118326846915
0.723610556914441
0.725137392311626
0.725622383783201
0.729441567949093
0.725787274892758
0.71934197942306
0.730980373078431
0.730184597861627
0.710190339703587
0.719317960014538
0.713997045315454
0.710196700258013
0.709950072059313
0.702730222532576
0.693324977226353
0.689506446427191
0.681570855354026
0.684387054138636
0.679126908344916
0.666679600443188
0.659679096265924
0.667975768461879
0.664146290266432
0.662806936561409
0.649964109663528
0.64780657364922
0.655404612022596
0.64866304252013
0.642683675159642
0.642754101100314
0.644514539787531
0.645697223286305
0.645146221931573
0.639588541622378
0.642578992848809
0.64048458692126
0.639010180508887
0.645682556803549
0.639615113555047
0.644699151733481
0.645781308546924
0.648945566519894
0.641468273845531
0.647999010012322
0.652508476504855
0.656249412867118
0.65655598811356
0.653626970645593
0.664460366220723
0.663244191567532
0.663013724978001
0.669220639109918
0.669461926392243
0.666761442677522
0.664163882552702
0.680467676321566
0.682820825531032
0.679606696611248
0.66847313624221
0.672713075066431
0.676912819701282
0.677677610508043
0.675096297978612
0.672642895573455
0.676638668456771
0.67221776367034
0.669910548993595
0.666722337202517
0.673158742399983
0.662611683619054
0.666742056658469
0.666806963992995
0.66242848835916
0.663622069672044
0.659012744560606
0.65934633177602
0.658461777312146
0.65452483875031
0.647242106655598
0.649505479696156
0.653572183878915
0.641067911435961
0.647301184303221
0.649197478469711
0.63614188369652
0.638672556027417
0.637344013341304
0.634229818793852
0.630070098949642
0.626533232402619
0.625495156373688
0.62735823921367
0.626764790268367
0.62086994563565
0.618041201357429
0.618462069678066
0.61464886162332
0.608677126530338
0.614321366086459
0.602766289800754
0.601925437173201
0.606620879396398
0.597659143897331
0.587038481382626
0.583307771272978
0.579928062880461
0.579374079308782
0.571712307795094
0.566189174951922
0.561844182254627
0.559177972854013
0.554648929069877
0.556083657469404
0.553120844855957
0.546551093100037
0.551499668984555
0.543563543858211
0.543779979420583
0.544359668016452
0.539279781522788
0.540410181463958
0.536067237163219
0.531385532663626
0.536054330997022
0.524606132784981
0.525682568062864
0.518383186877926
0.511415062483205
0.506012540259861
0.50044699211114
0.495142600576848
0.488242889246872
0.483741289251891
0.480676450737832
0.476321072253081
0.476170508814821
0.474295349818429
0.476429351268948
0.478153358953446
0.48871636699513
0.492027849767628
0.500228107187831
0.513139320257375
0.52479852746272
0.540563246748554
0.559836298572268
0.579231978653122
0.591515831730804
0.615267376268784
0.637382537844203
0.656028166868613
0.672362246232148
0.688502071912091
0.708858103605531
0.732998985584153
0.75911424959586
0.781647663020007
0.796967023547575
0.808557258606825
0.827904671867266
0.843731911734387
0.865145895028789
0.87856078014468
0.881818205203156
0.896636886277619
0.917881716205383
0.930306843392128
0.953184614494312
0.958887932342394
0.972191529781739
0.988621554478499
0.990129640322977
0.992220751233263
1.00093954424343
1.00605346577654
0.994261524603223
0.992850651077527
0.99545982869104
1.00340962394775
1.01269219826237
1.00460524369472
1.01341471925203
1.01648247570218
1.01630904076599
1.01263889766367
1.02375814318143
1.01738352637856
1.01899972095517
1.02848048312544
1.03194464477834
1.03870123387667
1.03701484413869
1.05832277219455
1.06175440188777
1.08636449488559
1.07106307342808
1.07260745180239
1.10706760241446
1.11089621647669
1.1273694231656
1.14286054045081
1.15455482285424
1.1618780371031
1.16679057023093
1.20643227931618
1.19073981905478
1.23135308631496
1.24566992545982
1.28094172143962
1.26794519726046
1.25149880711318
1.25246724331483
1.24583758547157
1.25779549016898
1.26975898670606
1.26002741019969
1.27982443035793
1.25299245743328
1.2361813309556
1.23984924733353
1.25665183358217
1.23769563231292
1.24304882064536
1.24186162412501
1.25260141076429
1.30658085514438
1.30595268795336
1.32230147057233
1.31629808450792
1.33394483011319
1.34295957574217
1.42746054559848
1.37237670126823
1.4527541079099
1.47393948075951
1.45700440431331
1.46232733797598
1.51337183374757
1.49599463275098
1.48596538507254
1.56351146066705
1.52663951858692
1.55926912918863
1.61485648559652
1.65772053417725
1.68995359255188
1.7243974843927
1.64892014299393
1.72688636549446
1.79090201825283
1.81222665179462
1.82042261609198
1.76939623749703
1.94077155398988
1.9977537292886
1.85241747178798
2.02285549908002
2.00961286685193
1.89690491657623
2.11163269437349
2.09301284042407
2.09445453820362
1.90643703613769
2.19253616751737
2.0054740506946
2.34959380402375
2.05870627067907
2.12830719685275
1.85538749373352
1.98316018373415
1.96026734667356
2.05698267397362
1.99087631844536
2.02323014797673
1.88242738260086
2.14404313655916
2.29508025019281
2.08600628076339
1.96349142224481
2.37597451988205
1.9944686495843
2.19054607228424
2.03827170441779
2.33290716263317
2.08632992318787
2.1333674184137
2.15065274379367
2.05988581953809
2.52697233886585
2.03731482398304
2.01919595412751
2.38849666614377
2.41738505186018
2.20018610731685
2.13359024429702
2.641045083575
2.1982162804128
2.17785366105479
2.60639365547533
2.08744038017478
2.28180022936398
2.48209700555607
2.99602222102971
2.79584386832038
2.08664159117682
2.39135984250771
2.16277661878845
2.65032254236028
2.22025347422997
2.74099076576722
2.55733517255421
2.277773883795
2.36485251397809
3.26545142290294
3.02621281857627
5
2.71116444997019
2.39373851865659
2.3783368619546
3.01662235569214
2.26855138542882
1.95664634311729
2.18463284602119
3.82202789368231
1.96248776336476
2.00199847833031
1.98151339203486
2.08046294736198
1.86995695226589
2.22601563366207
1.8435392517842
1.95164797575206
1.80232027738985
1.80489381700004
1.93089126724472
1.82769660458986
1.66349322766107
1.77445395116443
1.64442966760197
1.72107591870807
1.68285413983475
1.73466498939492
1.57075689992507
1.65113388931899
1.67529398800507
1.83634219039962
1.64983120643331
1.6837987072744
1.55046270367341
1.70814684168804
1.52608170711936
1.55183615939309
1.4755043104816
1.57657366890474
1.45283947226642
1.45583613957158
1.40676253854048
1.3801721609999
1.3020874778966
1.32679759518072
1.24897476286569
1.2142718525672
1.1444976969756
1.13584389486471
1.11653275389728
1.05129627825313
1.00545802828669
0.989353608035724
0.933786783512141
0.929832560400166
0.898772017600028
0.879460787997478
0.848108827994096
0.826870535891492
0.810186497992448
0.789019784317423
0.763659082370157
0.757153512026263
0.740451210770593
0.72856669101973
0.723916251135236
0.725618661504434
0.709124979063378
0.717375623766809
0.71129554181637
0.718012372603289
0.697318894889019
0.699250420608547
0.701237620157608
0.704269047867024
0.695836357066846
0.713713313335805
0.699643701838738
0.693635950667792
0.699622214280623
0.705572389174176
0.686898092744024
0.697885184385614
0.678111939626454
0.679519343979538
0.665973614048686
0.662805880627632
0.664326616240019
0.657667612985678
0.644745881777076
0.646880712050368
0.64303250513003
0.655905169893172
0.647907025494445
0.633081659696615
0.651438388387321
0.656019473079442
0.648200718750195
0.664543769619508
0.65829101745189
0.654100793972462
0.676450855217308
0.676292743882372
0.681927716559172
0.679841946262235
0.676319838225367
0.678115020744197
0.686095585209471
0.701232933696807
0.698664980896595
0.715084774499642
0.696528960382847
0.705493930788874
0.693113755873414
0.691752409388595
0.70046499656643
0.706311726441529
0.709587773159425
0.714872849423772
0.689477093369693
0.714946484909327
0.709933148115977
0.721902733941693
0.720839709321126
0.743526177166029
0.760746269448574
0.75591430463551
0.784138873994727
0.795620052753847
0.826397343869557
0.847414490354156
0.85214376282645
0.875668049777624
0.867542384368194
0.897621902419815
0.894123569483851
0.897044335743167
0.87254517753342
0.891263790237542
0.874906449936172
0.885758842382829
0.837725370982605
0.859296496759629
0.812721699137011
0.849532658484749
0.827396570997544
0.84180319965685
0.821182353035423
0.841193165314184
0.794504867010227
0.831662006078292
0.797183595531272
0.833872259306481
0.831811108612847
0.845564377048943
0.792517937000054
0.828723489046697
0.829223101691501
0.824835778701847
0.76702815921689
0.789452067246837
0.79368600890803
0.785720180198681
0.757735859680376
0.784653502658235
0.78248663972695
0.752923620508018
0.743244491932909
0.75023482362947
0.755232682505871
0.7681899719091
0.758731169173076
0.755191886924514
0.733545919399864
0.744694735336782
0.725349731018413
0.745073047565955
0.706128750706291
0.739908611678947
0.739573113562667
0.725627476808009
0.716766080258513
0.729828421523509
0.713969699981931
0.728051067443917
0.723640194453508
0.728337442778089
0.696318600437015
0.728945511637441
0.690605453978802
0.713658692898201
0.702041332806753
0.706907615476841
0.692189816069503
0.708686235189171
0.690557107761028
0.706128280019317
0.677565356234199
0.692475238837056
0.678969796347007
0.68448127754369
0.654510477014819
0.73597574775135
0.650492050091112
0.683696036451082
0.657069434373435
0.685005141122049
0.659698396262029
0.705419907155333
0.697626959038612
0.707798388970896
0.67221909784517
0.705458136436893
0.691819362608154
0.722856835136136
0.701794704308667
0.698449851795212
0.720376869124109
0.713197272032082
0.709662943504085
0.718987481197328
0.688532391959305
0.703568967538079
0.668967851796005
0.738413449788402
0.716670509723409
0.747003230846208
0.722728844983255
0.739603505912572
0.769123753264012
0.77784955328265
0.726819172832926
0.775748522761452
0.802091678745625
0.822082690348258
0.784086285059175
0.819616911126869
0.823708222359233
0.85048206659389
0.849411449891568
0.885452994789113
0.917887963499689
0.904264667924508
0.945709844209187
0.978546826683637
0.953394269162258
1.0987783147654
0.968426591059551
1.07638451867233
1.02768764241991
1.15615144779154
1.0494488386173
1.11006221421002
1.14756425904127
1.17383002741164
1.12214086216759
1.13291029354936
1.02634578139517
1.13971062305936
1.00346866807923
1.14024227519634
0.988084172505917
1.05728709321367
1.15012229585605
1.1710399141049
0.94555462312244
1.1515511393054
1.19178048781618
1.11195693389248
1.08011734485851
1.12763995435237
1.05834298382106
1.20693144953132
0.942701986434649
1.05815089809719
1.0148840890076
1.01159935794193
0.93415956371446
1.00486700896637
0.992893080782888
1.05928989051634
0.884675079177281
1.00629703014611
0.862169838102536
1.14651907553036
0.974902919954089
1.05523968324672
0.99210192482754
1.00869576626866
0.942882264820863
1.05595347082886
0.939341912398739
1.14600042405511
0.974740909595442
1.16305799956696
0.89406152757914
0.949528281004534
0.9888276170011
1.26059878416331
0.97692722550411
1.00007905877505
1.02305766068608
1.04303487513741
1.08131344583146
1.28270158740152
1.07324386368743
1.02838814184516
1.02400880268966
1.19493330371392
0.954672647394115
1.21435398870833
1.0279224060356
1.19851565945144
1.05559918438196
1.07653378025374
1.28734359556246
1.58988603094457
1.21755222795272
1.0705185641047
0.92695817161531
1.28029241789055
0.992103956053523
1.12060098981794
1.05805923986802
1.20870614998967
1.00778377788559
1.09824735408781
1.07048763519283
1.38943893329722
0.948690704912077
1.66821798972358
1.44751192387578
1.2333083720492
0.988400271917074
1.3511259645365
1.14717320365825
1.93588204880236
1.31014765614616
1.524622526007
1.45186313261708
1.9131722261493
1.67483009064461
1.3638864268752
1.14235569959648
1.05636934605234
1.00046275245532
1.11969957039123
1.06115759020633
1.33498346969559
1.44160314429901
2.42022215873061
0.973860895174994
1.30015351398117
1.31736649827157
0.95909349072338
1.19508797646096
2.15748968304769
1.0039874851727
1.48822743199893
2.19203849601432
1.43323659431742
1.23108807517814
1.44802072857255
1.29823385913727
1.9143663963685
1.44852915933579
1.1059976332439
1.19899646561298
5
1.20883515529953
5
0.966187876422169
1.16882368432204
1.03934937991726
5
1.23324344797298
1.04829980890383
1.35265670775638
1.5313829271499
5
1.28032577990301
1.001594818351
0.94645051270706
1.08506940124043
5
0.922148352895756
5
1.44417289741135
1.08051656724795
0.977721607443869
0.735955530951643
1.6475121700738
5
0.722246147356488
2.1769323867228
5
