3596
4000.36533379555
650.420452594757
1
2
2
0.0799651576302614
0.059277896053236
0.0768287587702024
0.0527994155537208
0.0879302663700714
0.0592972419509157
0.0871095893972906
0.0562899377526834
0.071848652557362
0.0595531434854259
0.0771073769863646
0.0635926204995451
0.0754549008085836
0.0472604416940044
0.0778937685932411
0.0539433209959177
0.0660232658017213
0.0500820343258714
0.0753315318321145
0.0517362792926222
0.0751027292426421
0.0533930276373821
0.0896123140138006
0.0537268660361795
0.0727802637699101
0.0716332879166744
0.0644517718071486
0.0487508341605938
0.0750676499989061
0.0548150171288036
0.0868689481054358
0.0519256757996073
0.086056589631293
0.0594787125214973
0.0829688255039885
0.054549932342155
0.0704919912732402
0.0591033575758436
0.0775978520602114
0.0560736778380168
0.0767055028045872
0.0556722751300889
0.0745947309801298
0.0559774734648565
0.0732992248997557
0.0644293383162705
0.070058739085882
0.0601697684183469
0.0798267363989663
0.0686685935575378
0.0861728417351945
0.0426252157960729
0.0966986048351742
0.0590059641120858
0.0712084347883191
0.0565796638052941
0.0737268684348639
0.0651536811891126
0.0754148276132826
0.0300055543945682
0.0820270091607852
0.0550916747999654
0.0658006717135398
0.0661594309736928
0.0779793465904855
0.0567485147664199
0.0635099390306445
0.0525101863155242
0.0654048661285319
0.0553096459039256
0.0513850147903976
0.0626881922605366
0.0919963324917568
0.0568204066149578
0.0779483816718303
0.0513630477501443
0.080683210949403
0.0543441191593366
0.055857535496236
0.064075149386893
0.0704316481990517
0.062900451541694
0.0707955830878273
0.0486244906322096
0.0588242024638655
0.069983145729555
0.0636838723300734
0.0383010674329338
0.101763860245999
0.0629456330580739
0.0654473240489547
0.0545858501064354
0.0684621439521308
0.0492492406073027
0.0632762583853487
0.0527904537831065
0.0650536293383024
0.0522720531724776
0.0552294909697832
0.0456240837132423
0.0645778851815711
0.0223943879187324
0.114875050459235
0.0220286253132439
0.12594923162314
0.0608721173993668
0.0412293933224206
0.0811532490595699
0.0813995737019747
0.0618452895696852
0.0641738898382683
0.0470530458082149
0.0611805920599089
0.0595238098329956
0.0360234899282481
0.0580102058690044
0.101181809489726
0.0668378397369986
0.056497252853082
0.0491417822060309
0.0167235091073318
0.0333497894798947
0.103932284114405
0.0479359694006847
0.0806115386632667
0.0473452279690971
0.0368724564106696
0.075398320143679
0.103800047374507
0.0503368289863636
0.0702531887341981
0.0380401159652731
0.0558096001170221
0.00713348314227169
0.106417360475334
0.0459061376780399
0.0543414471727502
0.0102320685105288
0.068831289034025
0.0886185109477901
0.0772234477417928
0.0559641555184221
0.042768760118157
0.0185219134698422
0.122037925283074
0.0611740111012274
0.0448111399136634
0.0433193427798028
0.0808897734919739
0.0421055346451287
0.0641843004603912
0.0207435999448819
0.0771222180199014
0.0518993872963925
-0.0141590481862221
0.0503497631727412
0.128247573932772
0.0177633314918665
0.150209192915972
0.0322204741590945
0.090697423627607
0.0323051040013407
0.0695355481255207
0.0240654877243235
0.0669572641741309
0.034410717356162
0.0570446299407495
0.0744791565081026
0.0466406931384178
0.022126559228747
0.0942823107473351
0.0487686981815565
0.0135691285165098
0.116881111150437
0.0700147059594262
0.0126705480856053
0.0839737507643895
0.0544827023070762
0.0451574664350012
0.03842817231636
0.0958200598718553
0.0440297374251927
0.0618145577359041
0.0352890119264788
0.0491452245724994
0.0601274705148363
0.0697803770979542
0.0460905709418625
0.0693413724108799
0.00153737635080009
0.0615346644878472
0.0847860125090788
0.101975932558518
0.0414416459685571
0.0660980300308
-0.0259068965158081
0.10856565349865
0.070879407172037
0.0597613279036695
0.039858430345817
0.0601646836087355
0.0359189672698497
0.057698091820577
0.0461404104538786
0.0506568439163021
-0.0102544688085731
0.105820644850968
0.0645888112700256
0.0569034457624856
0.02785127356735
0.0519304759735375
-0.00953172748088537
0.117455535969072
0.085374458043066
0.0566457054216835
0.0459367321652296
0.0352144207414404
0.0381934432721716
0.091212789406149
0.0490787606320437
0.0652652286035456
0.0400960743233446
0.0673698845808253
0.0395494076356285
0.0545615771474843
0.0463291193235921
0.0591972103755133
0.0365574705184351
0.0561151172547476
0.0465770173919247
0.0764761451191153
0.0515797654644679
0.0627994151517504
0.0444762504929813
0.0439400991695968
0.0266258199581518
0.0931044193208042
0.0487853367389058
0.0737375760552599
0.0365451192167026
0.0593689513193365
0.0409110598739458
0.0586288664576681
0.0457978268422926
0.0633545037460898
0.00504587462344535
0.11132493844996
0.052908017619553
0.0728521576880251
0.0104415671699362
0.0799333370695474
0.0657742485711756
0.0722221512455474
0.0504936739810046
0.0703890195352311
0.0372532688061606
0.038206444191037
0.0708603404511903
0.0716738175611466
0.0309035868768658
0.0719682452039634
0.0517965577398133
0.0605126705334515
0.0347897264928446
-0.00083968476416527
0.125534077407528
0.0779085171983342
-0.00144842707994144
0.148663521165031
0.0661024622727592
0.0818749294386074
0.0249841986869065
-0.0362375974331198
0.111486243882769
0.121944604936645
0.0552467172272775
0.053346671541963
0.0656356955551825
0.0629043341016455
0.0426303703309233
0.0655904627965383
0.0368521917181837
0.088638694043629
0.0692163948782595
0.141024966976073
0.0052703507443362
0.0860357600903676
0.0799155438033959
0.0696764243572199
0.0558441764071269
0.0670567855650979
0.0406823377116585
0.0750750966607766
0.0697178431891204
0.0806012768683507
0.0592675177166152
0.0610152294120956
0.0977105044652766
0.0769069419615053
0.0503307736037233
0.0703586760375763
0.0688943564301796
0.0719932573304556
0.0678923480814277
0.0574768828665551
0.0675446739604506
0.0523781028531633
0.0134853214064056
0.142625093468848
0.0685506072815735
0.0433268541468269
0.0957255365671594
0.0742889028920555
0.0615495079250901
0.0697736331133503
0.0663077021056473
0.0721227708116795
0.0430431631882682
0.0465736299414163
0.0973507908753817
0.082686530191811
0.0639843885076052
0.0821680505535199
0.0623201069544108
0.0700976033148129
0.0734153273212925
0.0694243640177857
0.063014401830211
0.0791298304808973
0.0499756701501154
0.0905035393118022
0.0863327770874368
0.0473433807424856
0.0787522026160633
0.126161828459617
0.0672083681104131
0.0844687661423487
0.070209394142975
0.0947997032297132
0.073271853785671
0.0860026168154321
0.0673634549269753
0.0776947144522677
0.0948042767804954
0.095445145820972
0.051983373336489
0.0662298476076221
0.105307518243802
0.169846001928584
0.0944998906556628
0.0946496134830832
0.0428972356389195
0.107077217443645
0.108788266517245
0.0893255533927041
0.119548656862817
0.0950333547698303
0.0995160626672311
0.0957242345168881
0.0878790904158417
0.103689763949127
0.0937713473462892
0.0982556697621288
0.0997508468977832
0.103160459403112
0.105230769559949
0.102183630589614
0.0802119092881615
0.160558619753885
0.111713022373344
0.112301354071649
0.112859581592105
0.100021147611011
0.105832025868589
0.138776485646477
0.115802983023692
0.148709389397149
0.102795997767741
0.179647650614462
0.124754519883506
0.136805325740417
0.117178081605353
0.133740246083697
0.11821894865736
0.139713128222856
0.127511902660998
0.137897444798814
0.128508359935781
0.156139676354909
0.133481030288843
0.152740950436537
0.123858434083626
0.175101829227764
0.1523202375852
0.155382987045499
0.123043328589012
0.144130413211215
0.179734432838001
0.207317589231256
0.155882538821566
0.169284908548097
0.172381424870325
0.167360862140144
0.163509137839342
0.17392462972931
0.175893528827114
0.174851418491437
0.180553361063927
0.207464570383797
0.176262523501271
0.209860376205937
0.165543751782225
0.216434517729739
0.196062777984282
0.19036928108898
0.225138556012375
0.228380353805625
0.182030412642661
0.232527553930302
0.232297053537614
0.203324881809616
0.224173807952947
0.228177151919021
0.225653856384996
0.229396645212355
0.221172721784528
0.236090402307555
0.227142173855421
0.252526673074926
0.233376689033903
0.247129020842704
0.228143494825599
0.251793075736749
0.252832830115903
0.269245030581107
0.253420191866645
0.289758655340191
0.260970282589258
0.265674274092842
0.236283050125377
0.274752767820824
0.28391434330194
0.287137353164256
0.306131723853258
0.300836494075016
0.283441693428012
0.303697880549821
0.317943898064464
0.313390320524393
0.288799247345888
0.318309911060467
0.294383620380642
0.302180772777973
0.304060907070636
0.323593934002304
0.313128007319037
0.327813863043405
0.34221868142298
0.343600772168247
0.317633141969196
0.351141002446241
0.322044239434055
0.387689864640181
0.384648024082803
0.377756291085827
0.394942620915816
0.397257741276633
0.355778118816006
0.351938860163417
0.359636892715689
0.397912460953608
0.382589501744659
0.399328835571038
0.375514930479247
0.400332200916921
0.393528600413244
0.421973200659483
0.434667094615989
0.421331552435372
0.401203458594904
0.439291353755044
0.413262669933784
0.442103671487325
0.419649713925545
0.423944835371234
0.410579256459029
0.429587812083732
0.434989667961934
0.474713666528906
0.436284637288955
0.476266887253562
0.455561796480937
0.510227587542817
0.457289900107158
0.482819300544933
0.490962975126925
0.494995812190349
0.505934786389329
0.550629963256746
0.499830968399612
0.510774935130737
0.471413979967681
0.543073181594318
0.516755553924311
0.53026912810922
0.546245389589734
0.53810293407611
0.508966134645992
0.538521303557182
0.544482011447453
0.550781920803612
0.531353277229527
0.562594856735845
0.572204088447194
0.591799611603595
0.561513121226487
0.571831284776615
0.572943275263699
0.589199639079649
0.56423412746038
0.567028396315503
0.574320231124749
0.634844500020925
0.639488698525832
0.650986840568181
0.603065031067642
0.622910402243577
0.645837200439878
0.66847107148611
0.609353124456015
0.641715092923018
0.673457314537951
0.671680878987693
0.658360699222185
0.686701637844127
0.645150288563017
0.679089787986284
0.681594339709432
0.662484465976671
0.690240273780501
0.746307901808422
0.680479148667067
0.682266672401062
0.661460836600808
0.721326504374835
0.753616094225071
0.774389268237017
0.708171834242057
0.725254040395094
0.716371952149135
0.729586574522355
0.765672899659451
0.8056828855461
0.742165311940617
0.768515132316208
0.737675354746503
0.751524689241133
0.761065598530212
0.802173563374655
0.826235207070048
0.79829798183441
0.795032872864554
0.811114197047124
0.785543812568483
0.788100502752977
0.782197731267898
0.803939691102822
0.751959232899708
0.806061115145999
0.858692256976293
0.860220691387945
0.87525790808599
0.88954239814846
0.844989598772384
0.872582242392199
0.863017196652478
0.924352183889339
0.850200871255446
0.841240405192458
0.876758876944243
0.882106000070281
0.891063267516408
0.928730650115402
0.919184056615054
0.913042425670243
0.926950835573395
0.910983640067351
0.908816130708906
0.877619611237422
0.869193170503605
0.957834252030435
0.921703064542844
0.992912955408225
0.994135910729216
0.938102615742049
0.933572195295597
0.986714133312686
0.975483847591312
0.977279961166936
0.984310855674131
0.964994047187039
0.909208086511324
0.939086496616553
1.00378290371249
0.970803542928206
0.943794462844089
1.00824755998769
0.998450546320316
1.02333731299253
0.966485141794004
0.993626455201504
1.09856515353776
1.00824634509811
0.983461922415907
1.03080699657004
1.11210425698996
1.1552518690751
1.12308847137473
1.10753363124668
1.01347736584104
1.06607583198776
1.07582672991813
1.07265109439439
1.10448451784394
1.04756470308912
1.05263017832398
1.08294051618251
1.04182849778608
1.0924613168808
1.07625042697898
1.14472722689565
1.1465892017153
1.08491022208016
1.03816043367689
1.05241495360593
1.12396107280757
1.11722335980428
1.06983143068828
1.16249980546113
1.11259843239074
1.04720043001516
1.10748738002898
1.09538464491807
1.11527997735615
1.09318569897237
1.14201254889691
1.20618878830109
1.18205998035355
1.12394812134079
1.12678818969368
1.20094414157022
1.19047446359295
1.17721396218589
1.20211112424307
1.25937028597766
1.27697532216203
1.21533211576626
1.25619020334725
1.12310932055477
1.14356173319309
1.18535230108262
1.16269852322783
1.14329726167583
1.15324889320631
1.23440376300513
1.23078157386786
1.17699696850481
1.26660758951124
1.23836845432514
1.24774491857913
1.25668967483426
1.19585894666896
1.16593311186633
1.22729738622085
1.23730250269503
1.24059462672393
1.23097763857538
1.19275492349195
1.19311959271362
1.29376399839506
1.21777672141588
1.20047038934876
1.32966468945545
1.3657779937424
1.12976709804867
1.32503654041068
1.42085577394169
1.28258401261072
1.21606709444068
1.25005944252156
1.28623063561084
1.25095172570156
1.21933233826992
1.37310244841792
1.31261596013178
1.21712155739384
1.26135066815288
1.20976456032952
1.29776428644315
1.2671078726357
1.28282030523704
1.49197938870341
1.39856731060422
1.28930207540876
1.25458922053895
1.41263389884375
1.28669358998796
1.24055945564209
1.28290496305475
1.39038099867408
1.35117186913563
1.38823902677033
1.32221762595378
1.34318365811086
1.30636700287601
1.24123658599659
1.20220914575664
1.39122473409988
1.33524785157079
1.3312743330089
1.36247433860131
1.25856458030145
1.29636333696419
1.34773124763774
1.30689081498971
1.33864884863526
1.28330755997656
1.44413156548397
1.36348078208021
1.38990372129227
1.32059982641792
1.36578365923879
1.32749997856032
1.32047682520463
1.32695736127594
1.42565198534738
1.3453206459528
1.3564072473406
1.25211243011325
1.38636773965977
1.38391202267908
1.35678844482366
1.35440373347875
1.35879800638866
1.24500489672255
1.27826975073984
1.33889900879134
1.44630044915967
1.43086142715752
1.45173218247133
1.31148377154494
1.33248079474163
1.4013266036334
1.37566981616073
1.26073829201012
1.33995422465582
1.34241376877924
1.38714930959021
1.46479265192015
1.40544227277403
1.37712388014959
1.36866912475194
1.34933177118497
1.44549528930722
1.22915724074934
1.39703239147555
1.39660897054006
1.31225683492951
1.28911989418317
1.38330800440454
1.29666443369242
1.36259839645618
1.28368543553355
1.29266319261976
1.37065292298064
1.39075100949373
1.2462180343212
1.33086484444909
1.29493169038032
1.31061302494244
1.2399869415426
1.31671902419031
1.30490580127248
1.38913318010021
1.42816080908964
1.22881583097028
1.25008158148599
1.42448636020938
1.31374138084767
1.30265120627065
1.30190500862447
1.32681885472239
1.22526349289511
1.39120158683092
1.39369667958411
1.40239081156509
1.28617411652612
1.38492906576805
1.28637995065531
1.38931436827977
1.44465764763933
1.39689910058692
1.25121766416698
1.23915578871835
1.21255185214626
1.35076545507084
1.26811631371214
1.19100643729334
1.21644695075142
1.46322492941695
1.2509721820207
1.27368124959493
1.2498344406214
1.2810471800211
1.22221821653248
1.26126568581891
1.28137459382226
1.31589807952462
1.27894195352363
1.25715410078588
1.21617931383899
1.26339111482154
1.25030428643256
1.36400805510358
1.37328378853706
1.29010738845818
1.17894593278558
1.30901795050261
1.16925447388512
1.24119527653302
1.21395470388423
1.22023582667061
1.22196779925797
1.24112070121638
1.20603523266409
1.24730367579739
1.22876949083305
1.23191696214404
1.20743367355692
1.20329150239409
1.11940907513476
1.19082182280291
1.20726874501295
1.20398785958982
1.21294060366235
1.18598924491697
1.1352362964899
1.21110602690117
1.17454380188912
1.19915534437255
1.10600779472866
1.18823503563442
1.15417306410569
1.20882883450601
1.12419413827056
1.17015211659735
1.14140862437025
1.25885465527963
1.24363664789005
1.23078411406293
1.12749889085816
1.19440724323878
1.13941481988277
1.14496657736708
1.08768434919561
1.11955926183874
1.11720915153883
1.16953957532336
1.10285093538436
1.12380446854743
1.06844415877125
1.09761474403438
1.08200914846303
1.12472828276248
1.06957843672098
1.14052933185604
1.03776603532914
1.1254393801277
1.094963165851
1.0670666073038
1.05867222164523
1.10966855786213
1.03602842758386
1.0864705375274
1.02611643381262
1.04314100642305
1.00612260870292
1.10248398731654
1.00079290285807
1.09372138155036
1.01844919891415
0.997352520868912
0.990298635825808
1.04542431275795
0.949438649630915
1.04296831682739
1.00674888107419
1.00759581587131
0.991817130087348
1.00863808667776
0.972371017287583
0.998505492341118
0.95150579071314
0.960769525886173
0.939426524840259
0.981915189311522
0.924071429615342
0.956206770613801
0.913323675332025
0.952320129771846
0.934286604226222
0.973253726941231
0.919968976369342
0.932064390615433
0.901502919155939
0.933799903654058
0.897469585233251
0.896569853571198
0.888149024620305
0.92087860561931
0.894228331615141
0.928532453196741
0.905574199013716
0.917221403923126
0.867928608198038
0.887256551197485
0.870403507734942
0.919599514407119
0.869750125371659
0.847474344136071
0.843736597629805
0.826841191525398
0.839797608375149
0.850222056150259
0.821259631737111
0.834295368439017
0.822347660417494
0.833442574909425
0.821437223720907
0.85445091482755
0.78229294239535
0.831695261933709
0.795322643163479
0.805557821249619
0.772088837745576
0.793157843525805
0.784104249540082
0.822206382159168
0.790433669353044
0.814423677377512
0.767809034015487
0.799778226836794
0.745287814230484
0.771863078656048
0.731522124341531
0.769515779717267
0.752951066368411
0.753931337509666
0.734899940562537
0.756883435833305
0.741408211903718
0.773946604087839
0.738792724733918
0.733030237125264
0.711865293708414
0.754324018017866
0.726383508198215
0.723249280844435
0.7053595688152
0.713635747793463
0.692979774165102
0.704940719729811
0.703515671009902
0.702971338603802
0.701598508237349
0.701866611590031
0.67577576448956
0.692999734152262
0.669968489524671
0.701109203772846
0.65817718787156
0.697736451650407
0.664117274540477
0.668049941690753
0.679566701002929
0.672350357971303
0.648610370143721
0.675024021515761
0.628327782753889
0.666770905326818
0.63072779833074
0.667870647990423
0.632612285307556
0.635732469640073
0.607277912153065
0.65351676508331
0.620246048331725
0.647799576202572
0.61328562626673
0.62493329631218
0.603482671070302
0.6232797341132
0.626440367864893
0.625106125785239
0.591034511173942
0.616807943372567
0.615489546032081
0.61255608681613
0.597636333453975
0.611585702039599
0.580435889280664
0.595905846052664
0.569463704727253
0.598307350416379
0.57210956625621
0.559773940902339
0.576158848158713
0.589661291145595
0.552990347186175
0.576845297477248
0.555534629605935
0.572245934075401
0.537932554333683
0.566776891186475
0.547603638781001
0.55780174569755
0.538408715872306
0.565609196565228
0.544065584704505
0.550655104158836
0.538923973466529
0.544285728501957
0.522757300907718
0.538176235974537
0.520412796401306
0.546229299191829
0.520193284140349
0.529860622090776
0.515465636398334
0.523488194668186
0.49587888399807
0.531259994349909
0.501344034010239
0.512110224469847
0.496912945468375
0.509908954566823
0.496344163786921
0.517465914007907
0.489312103336666
0.494696482448882
0.484746743391681
0.491537432368933
0.480805477107203
0.489043915044848
0.479516486326565
0.480397904784771
0.484980798737466
0.485506895288603
0.464563768257029
0.475432813394938
0.464676450743504
0.486200598709932
0.456721683114232
0.481616868680079
0.454810382684356
0.47684416073032
0.463828846478867
0.470905568911543
0.453436340676254
0.475283918233975
0.46730134537447
0.463275139318241
0.449052586674523
0.461385425338961
0.455276474110143
0.460563879426954
0.451061512892045
0.463728894845794
0.444007880578367
0.470548809592955
0.445304564795397
0.464081955170575
0.451366660856967
0.463781746716498
0.449060210039976
0.457991996838926
0.454080238007177
0.459237115262771
0.460033671112479
0.464719016622829
0.45401125546907
0.477750143299071
0.458172182838659
0.486553281569649
0.462545003893153
0.469377889418659
0.462488675071054
0.474121290186335
0.451994253369419
0.486080326776186
0.486165678388297
0.495108931735431
0.480828547938987
0.491692648677289
0.479411187353198
0.478967458966863
0.481795999634429
0.501776468013034
0.491722973895243
0.508988658589956
0.492723774597585
0.498130501891449
0.48705281760949
0.505808165355686
0.500641299509496
0.51741292836231
0.499377615880606
0.533499728688184
0.506809204215661
0.528398287423584
0.502062174644163
0.53289853650654
0.503867040547296
0.537366738606077
0.514951973299902
0.539948796104204
0.530484021212446
0.548385996987799
0.524150789173463
0.555449062106565
0.530969719537023
0.562780616206445
0.546839160310717
0.56161131224246
0.54501753046875
0.580545169273566
0.571782438539454
0.587577853922934
0.57159385954145
0.592875901822181
0.578680142533506
0.604718806128977
0.596338055053889
0.600148267248106
0.589473893326992
0.596839771252825
0.59873911409882
0.604682007883908
0.594679550201549
0.62405364828942
0.602839671368298
0.611310979149451
0.598637272038573
0.616328945609574
0.589218168084046
0.624337583130862
0.598279793280293
0.631364785998223
0.585058082970745
0.597884715458523
0.593730368570613
0.6019505872617
0.592611766520775
0.611801541573423
0.592011281064112
0.600243455552438
0.588087500019989
0.604867044827112
0.580306307766191
0.619437764232068
0.584485165705513
0.597497086158867
0.589721950820597
0.606923282209176
0.588868305561744
0.617612206453502
0.595021981859596
0.60830211255265
0.596018202714359
0.601429033688553
0.594463676488312
0.587031933734273
0.583057593244809
0.611552766499666
0.594407195978631
0.609688004221353
0.588061799259149
0.613164254370342
0.594103428771632
0.603510540308904
0.580771216931527
0.611791302312426
0.592812083352321
0.616882194912876
0.596884741626449
0.603463605848674
0.589103967505644
0.611111699870068
0.587948526628317
0.606004055552188
0.5941748063701
0.613368086934519
0.582499852702994
0.604739411417181
0.574370761901158
0.598204343632267
0.582267650106874
0.594182616519793
0.577739903261773
0.584190149845155
0.571378084504574
0.584152468346865
0.567118034772781
0.571525591176846
0.555086346306245
0.574539276049253
0.554134686667136
0.576934888824208
0.553238004076503
0.564003156084677
0.542784755966135
0.553611554858862
0.528608541519253
0.539083374499054
0.539739846951465
0.554399337908981
0.534526648905807
0.526654201384242
0.51548412300679
0.530542717515248
0.516112019860593
0.522879807573309
0.50086035354153
0.502726728298032
0.490200806655204
0.494499504079522
0.49073553451154
0.502836753255729
0.486068576922687
0.487812341853662
0.479555102626316
0.485227875447379
0.46861428225059
0.477026285781114
0.460653064053937
0.465186270823395
0.451132238845695
0.468317984280564
0.449925515367069
0.463702079064829
0.442444496255601
0.465019471603851
0.436817517918532
0.450076942435929
0.448616384513284
0.445793525091107
0.432503103089035
0.450645668864671
0.426076972091579
0.430429719622353
0.419897414935886
0.430387889509283
0.424886523351129
0.430262436311761
0.415003209415856
0.430620354080994
0.417284027795403
0.429962177587911
0.405514727964251
0.416767231828651
0.39690366134579
0.413531652792855
0.403927306860998
0.405269863026214
0.390131818261139
0.409722429683025
0.39583759235008
0.405631953886509
0.387804689167071
0.403638021120732
0.392833152397582
0.400269937867144
0.388483732003561
0.405309450514432
0.386409945182072
0.402546026413993
0.383633992735692
0.393379665257457
0.386759829924407
0.38333969532655
0.373369910969613
0.390711272989351
0.376170194540261
0.382782979858385
0.381185636380881
0.383304527918916
0.367277473629705
0.379378745480334
0.365474645133872
0.384171967404672
0.366744536035624
0.3705885133491
0.371254073769931
0.369504583703636
0.367569625155727
0.365505939591601
0.360589487888628
0.369139370991089
0.358837164328652
0.364030188672794
0.356944176597258
0.360393247483455
0.35732903653991
0.364873237152984
0.348572145034755
0.363295730259151
0.356676783072121
0.357433730971265
0.353422391626931
0.352958103672681
0.344393807077642
0.348677941114927
0.339860974221304
0.356575608590099
0.34431327645142
0.348794461396764
0.345265620085047
0.351401042310968
0.339370466484262
0.348151809433327
0.335453152825793
0.344076451406988
0.34117582317949
0.34931085023084
0.339544672874331
0.341585012727445
0.335477149620012
0.340243063999226
0.33291212148242
0.340995494212247
0.336055848575259
0.335722546099287
0.327214701788028
0.340068749260256
0.331114437550371
0.338782605163815
0.326224944896152
0.338378681744132
0.329348577744671
0.341726563896655
0.332883294200563
0.332659672522277
0.330450426675767
0.336679121493608
0.323596322825262
0.32813255318453
0.324101358862733
0.33285829472057
0.323561514150307
0.337274237994476
0.324271969644315
0.327784824556102
0.314253358728989
0.330411327504448
0.33082717340323
0.326679848867304
0.324476106461449
0.330868369252576
0.322488126080329
0.332632645065201
0.326435459426732
0.323468293304003
0.315636149929338
0.327990294108745
0.318296009221885
0.327255178611894
0.317635124838202
0.329012740355591
0.317470063803001
0.322407390645981
0.312284406852244
0.325563131285875
0.317695929230353
0.316172096159814
0.317206836219154
0.318409012209222
0.314106557491856
0.319602294021858
0.307476519924925
0.315676966082838
0.315488898814744
0.318697214223488
0.303349861659789
0.311521180654913
0.305716851157909
0.314849102124432
0.306900708095502
0.312878958887692
0.301285837697774
0.307542704630042
0.303715349225426
0.305594750368508
0.300713016747958
0.308795153470298
0.302970844265654
0.302461064986369
0.296662856825207
0.308086395519568
0.297792759597167
0.308066531270113
0.289469791087945
0.302624233461197
0.297968452236581
0.302493482918768
0.294097198630801
0.298452309505715
0.283631646604064
0.30422569914112
0.289763809339254
0.296819613837383
0.291865321161026
0.298679345986826
0.28982069012339
0.304329974060553
0.285083302923202
0.286237062009107
0.291215140160867
0.2930602310325
0.287099224599273
0.294975409828617
0.28233762791091
0.290066465538284
0.283568587088252
0.29092347517865
0.281168984171586
0.286625579670501
0.274107362310521
0.284050379167723
0.277966325605188
0.281058244522663
0.279793146523761
0.281373801715642
0.277323821755021
0.281899793991024
0.273421509026645
0.277463087502071
0.269327530382146
0.274167971189157
0.270867607326039
0.27314458570463
0.270670977760032
0.268022580234325
0.266752161848365
0.274532611272536
0.263694136099414
0.269941708849993
0.265781035292705
0.260641406034027
0.261627471866601
0.267999676668522
0.257193237893532
0.263580617724373
0.251222422789092
0.259880603546631
0.261380441551768
0.265008888074854
0.251956952042848
0.264707082732339
0.25980037698558
0.257768679233336
0.249610728530489
0.256391937204732
0.250001926265878
0.257505563606462
0.250916295364147
0.256667022725852
0.248903659244389
0.26043917004182
0.25134582306096
0.246877746045062
0.241435159530539
0.248028997454572
0.246429578520867
0.249449636066287
0.243817609434603
0.251266897749315
0.242201240306321
0.245339717140846
0.248183481609035
0.238542489481821
0.23632951440197
0.247881989388923
0.24158788287064
0.244365172666941
0.236313477948491
0.243766334116962
0.233279747053811
0.241345794766888
0.233974589198069
0.236340790164368
0.235115072332067
0.239308399183783
0.235009787918334
0.234791630193412
0.23053615876454
0.231863115561639
0.228247322856147
0.237314742568177
0.226827326358721
0.23555300295789
0.227140959792218
0.233373592547951
0.227795781244755
0.229048115484656
0.227041900172993
0.226552658947354
0.223649832358937
0.230792543961737
0.230019998714075
0.228588478574072
0.22101306244966
0.225043652228808
0.220008615062176
0.226296186531736
0.218948807980302
0.221619336411213
0.224408825494377
0.226467027198477
0.220846955647775
0.224902711190026
0.220959399501974
0.221242397456415
0.221435801921593
0.22222400562424
0.216259625368971
0.221936074745167
0.21968824458882
0.22173500377599
0.216801184888219
0.218675575496708
0.222613619360539
0.223417394699997
0.215382921906733
0.221529698297503
0.219482663894406
0.219788917592516
0.219029607173528
0.217090584983554
0.213806270700195
0.213715470083566
0.214978908621854
0.217529424395386
0.214102402610987
0.217161851515544
0.214203953748111
0.214818207499444
0.212126291205663
0.214208693229403
0.213008702224227
0.210856737097202
0.20775262919306
0.213336514441485
0.207585028956029
0.2126492129182
0.20660957420806
0.21080725195555
0.207941060535197
0.208043955752684
0.206222033383515
0.209954860382731
0.207556987634188
0.211657703853199
0.206334079817198
0.207993084327371
0.203722062393374
0.208996357269431
0.201239221783433
0.20352359016812
0.207215438419161
0.20512848366026
0.202698878717413
0.206850432279494
0.203263234625508
0.201692657527799
0.201289312784918
0.204805842813096
0.202472732770459
0.201953526801034
0.202258791860539
0.199946247504254
0.20038643878698
0.199727320795123
0.192291653434132
0.199251672174449
0.197718562402924
0.201145368050267
0.199134372198548
0.197667636331194
0.198311018986908
0.199076651239223
0.197828207717485
0.199180071054891
0.195621127244289
0.20220476257605
0.196247801451346
0.196782251379535
0.19464688753601
0.202633234429372
0.195829153611691
0.197967166025834
0.195661772830325
0.192608572280055
0.192436489687214
0.197666341005784
0.193565543364089
0.193124990997459
0.191488836200027
0.194596200799067
0.194379858482994
0.190591448649769
0.187352579969514
0.189466758182049
0.191748005935389
0.192364385651768
0.191269826012177
0.190463672143564
0.188849750935949
0.192654366046969
0.18608228007204
0.183371262361981
0.186526894578345
0.188907559764865
0.187507518560437
0.181704558958211
0.183634573140679
0.187623164227325
0.177600443629471
0.182400653673398
0.180373580977089
0.183411105229646
0.180847261511327
0.183011283778799
0.180502311226485
0.177504899564915
0.176633379288993
0.177087995287981
0.176838592382856
0.176817311068334
0.176265230277571
0.174488595670388
0.181508142962887
0.179506392610556
0.175096501641361
0.175995089206126
0.172276547061968
0.177367114860059
0.174634397909
0.173339572887631
0.169483697384298
0.171922005566723
0.175677972503386
0.173153591920931
0.171784879340689
0.173524517293914
0.16748253946604
0.170481394712378
0.1674799438386
0.16590943418275
0.172514228311416
0.170608268838104
0.167409649236483
0.168206857417038
0.167989054901055
0.166389790675064
0.166712302212157
0.164536213490985
0.163889894129986
0.161555676672613
0.166056456776469
0.165933784203713
0.16042693780911
0.162492098470892
0.163120998795956
0.160112065841125
0.158335854294536
0.16056199046274
0.159076374881734
0.161085532123765
0.160005201271961
0.162546553075161
0.157815294549821
0.158802290214907
0.157872850932901
0.155301842708544
0.158061749556886
0.155215936671301
0.15225025553045
0.15321958348864
0.152960912759879
0.15203497094875
0.153918545857339
0.151559954938029
0.154277912751443
0.150181616859218
0.148629019703771
0.149107189747095
0.149484938829239
0.149764160489817
0.151122345943371
0.147822907685468
0.152601983065942
0.150117989026816
0.14730049585089
0.150011625929405
0.148467628707564
0.14455416226196
0.148416758125496
0.146784117985657
0.147240563183596
0.145882520156781
0.145985736333185
0.142291517940397
0.146391936316736
0.14777871332461
0.147513732527595
0.142954463682933
0.146467260773847
0.145472453203868
0.146698498160276
0.14410175877556
0.144330865302196
0.141440869951452
0.143181252008106
0.145553757581339
0.145402450290403
0.142158176119477
0.142714253688293
0.14030912474484
0.14544156285377
0.140173177640071
0.139918601848451
0.137222270161537
0.1438276330782
0.142744939146937
0.136866167524473
0.135448597674171
0.138687186533227
0.132866038384082
0.13996138746296
0.144598588531351
0.147243971941669
0.136668878997477
0.144169884068014
0.135163010289079
0.140785184816838
0.139068613419058
0.144427085252308
0.137715316188694
0.143382178111945
0.145755116797912
0.150083526017999
0.134469672131539
0.13975861668329
0.143893178894106
0.146211535590272
0.134534777043049
0.138819033057775
0.134459945827844
0.142856981818443
0.128797749590992
0.145046401155867
0.137415239884844
0.136634717062954
0.121394484529158
0.138556996652817
0.125630342767528
0.140375309230984
0.12956357502151
0.141727023002514
0.120978871016976
0.146171703436893
0.125579748884525
0.147953076287814
0.115007448925623
0.145555474424357
0.115130298416253
0.15105604704907
0.124206653164995
0.156414497340674
0.117414473887178
0.145756910140598
0.109428948837814
0.150984740469516
0.114646692321129
0.156977926820402
0.116140948250153
0.146915031811577
0.108028572891162
0.150991118226868
0.120728979222453
0.138050885802105
0.115704371732149
0.142164737902517
0.127055782914634
0.123749226014639
0.135765996084856
0.122828683868246
0.141486723221519
0.112487551775047
0.148334258681383
0.108567968606003
0.146888988695032
0.115151586099443
0.144447910933198
0.114657462303483
0.13624446067566
0.119397625037299
0.129633785831473
0.124459066211511
0.127654104224493
0.126807585670894
0.128213254746211
0.120109853418724
0.125923497642146
0.123288746721767
0.126571043146102
0.116550625871905
0.127543804596132
0.120666580198824
0.126197116348764
0.119489307881691
0.125716636071829
0.118304174076573
0.123739629170763
0.122224329559949
0.125155806971554
0.119404884226407
0.121827298277164
0.120946509332288
0.124796420474131
0.12309541440738
0.124825846029409
0.119686516242025
0.123314971888358
0.120257042240846
0.127759102071964
0.119390214674415
0.125425508324114
0.119891468559446
0.123958423770314
0.121460389631867
0.122241063972766
0.119632102102907
0.123415589674443
0.12260270186234
0.123146987908263
0.120120774548582
0.123316908849197
0.123440431956497
0.128488067559248
0.117195999627382
0.122091070582986
0.118845526139909
0.124393517550411
0.118307372820455
0.122797365723072
0.119717156368348
0.122419385309171
0.122639692344861
0.121993056945
0.119278760803494
0.121183914237939
0.122321626256107
0.122304322499597
0.119317508312294
0.122292038901164
0.116600294316273
0.12069495904077
0.120958438615733
0.12205959613843
0.120380994939453
0.122787108641614
0.119933568511705
0.122580846783764
0.122380562084938
0.120874558979147
0.115909257588164
0.122440664511578
0.119221197489503
0.119789387347446
0.11790936831026
0.122711356717801
0.120284925189091
0.118980670907839
0.118706161681987
0.120723187829896
0.119546088443692
0.124876377991186
0.11815146359643
0.121033976825151
0.12190353532063
0.124153633565134
0.1203184514653
0.12141541822998
0.119205465735787
0.119953435954418
0.120918553890701
0.12471638988454
0.120616937773108
0.124252702271692
0.124076418032449
0.122116930496514
0.121216031540572
0.126553122928588
0.122072197400775
0.123772422038203
0.117610897377752
0.119834298248371
0.123356136444257
0.123491291286273
0.122664028916493
0.123848580176807
0.119865395980672
0.122735780402755
0.122066165874907
0.124944237856265
0.124269640372242
0.12552296730567
0.120581152680104
0.120785319934123
0.12413420111367
0.12404538794645
0.123216667323703
0.123927745207673
0.121065432497775
0.125354783399237
0.124870049655884
0.121578725089848
0.123199664724864
0.125663578566244
0.124723448518704
0.123354429880086
0.120471753142485
0.124274751027943
0.122913914625893
0.121774176845397
0.120867505947008
0.124279814895355
0.123976139906285
0.123469927483407
0.121565416151361
0.125036005954181
0.122936726690012
0.125382750991699
0.125536052102415
0.12656231235957
0.125965962075885
0.124774609863577
0.128170574123434
0.127175000607197
0.126448248700709
0.130973863965255
0.124135464548891
0.123111697165376
0.126997171778444
0.12679885124635
0.125321258647032
0.128340498163744
0.127631513122471
0.124137125091151
0.12518550487034
0.127976181032507
0.12590333102065
0.125186292515987
0.127992258828476
0.125995716587961
0.130097366510737
0.127199965090663
0.127994689867871
0.128588741820099
0.126787970750638
0.127272377108965
0.131046304112217
0.127398172033482
0.126499304607461
0.126973767849792
0.126175081173735
0.127401026900106
0.126438351351332
0.130632752485356
0.127718883290438
0.128562246569521
0.127098155368717
0.123144528815077
0.123848171427283
0.124713373001977
0.125387724292993
0.124100358561617
0.126871706474337
0.127185408201923
0.124380713226845
0.126166925029849
0.126082345943217
0.126601808349098
0.127338024454282
0.124069980683347
0.125325432365133
0.120452883703626
0.123381173731208
0.123928459460282
0.123804811765351
0.122893601217577
0.123314000729648
0.125535216792662
0.121411303745459
0.120424223523057
0.123129698017722
0.12448903670516
0.122857537479284
0.121577737773087
0.124512576566765
0.122488412861783
0.121852523486781
0.120495916711522
0.121936011028002
0.124142390551884
0.123546942068683
0.119230707151249
0.122078402599978
0.121568637467156
0.119268549941643
0.120515662412885
0.123297652730816
0.12073338513826
0.119405432824566
0.121164809507135
0.119183602843095
0.121110908024932
0.122957226372724
0.121122199540565
0.120646273660294
0.118767693128505
0.124366117396116
0.120038462824212
0.120038676405059
0.119743573465129
0.118867240673395
0.117953872843528
0.118243923561849
0.11842992403667
0.119689823469391
0.117434699781801
0.11363896334417
0.11807424865185
0.118162161414801
0.119281971723654
0.119781765954313
0.119880800838678
0.117862903237219
0.11743883128734
0.118848127782373
0.118313909693723
0.118632374239741
0.120036199075953
0.117336224801254
0.119061450521382
0.119623323312589
0.117883522724757
0.119035471177292
0.114802663389451
0.116476900226397
0.119721568672772
0.117111357788098
0.11906212585288
0.115238472347797
0.114377263698714
0.120280510528887
0.117507205484896
0.119024557363468
0.116823413149612
0.113776403010438
0.11425447286812
0.115725705774102
0.115882827748424
0.11492801830212
0.114806129450868
0.116179279010127
0.116871239513267
0.118383575126814
0.116051332377928
0.115626803843279
0.11556885096774
0.116763802003447
0.116205095753744
0.115436847851925
0.114317787383049
0.115520058558534
0.115883407772226
0.11468175292179
0.111950122904849
0.11281111594434
0.114299207918982
0.114347755013678
0.112692915087435
0.117189044212765
0.116062953568978
0.115863997180959
0.10892115462543
0.112376338526939
0.111084231668153
0.114709035123764
0.111605952001481
0.111112599699839
0.10887920358165
0.111850882559106
0.109889203773572
0.110526509300864
0.110344380228192
0.109916878827129
0.10804154823027
0.108949293403397
0.109807662359393
0.108904696426996
0.107766675731399
0.106362540097448
0.106527542208977
0.111056301416685
0.103225596693941
0.109951692900962
0.105235573262895
0.109342009968826
0.103946726016371
0.107604960302226
0.103036210000971
0.106150895451842
0.102894299233423
0.105269273610617
0.100972406292311
0.106003166871207
0.103839304057615
0.103419283757241
0.102691935641485
0.104757966623643
0.100110113193842
0.103103390516132
0.101369635263213
0.100857945787608
0.0993115866441938
0.102922827270871
0.096995425759615
0.104408818017113
0.0975918544690933
0.101068906679203
0.0981515568122676
0.100492615540264
0.0992230427565819
0.100687273891187
0.0959076547015062
0.0984817823655171
0.101583449989875
0.0980705140610969
0.0968560661388422
0.0979672698386082
0.0970669119293716
0.0998704854784622
0.0965950527019867
0.0983168627100455
0.0982015820162819
0.0955057620800636
0.095598527375476
0.0962083768694729
0.0962965836537953
0.0981191509325577
0.0933360919486979
0.0941916781347059
0.0940823545671212
0.0945279018328665
0.092853976904141
0.0944970825405849
0.0925407216381939
0.0895974764931917
0.0975151490965105
0.0969842720606836
0.0958740374545411
0.0922339711709831
0.0954737583994124
0.0923045425634485
0.0941880487017853
0.0954418545778957
0.0929518686400564
0.0926499443895532
0.0902573779178332
0.0947635733791329
0.0915341460787945
0.0910666420468988
0.0907991950023874
0.0903262975822477
0.092174154562573
0.0872903845663756
0.0882683259284883
0.0864820322196534
0.0876925141071699
0.0883200005231904
0.0903079609037366
0.0827373335562241
0.0961190146366152
0.0829136540639306
0.0831507107696578
0.101372610134581
0.0884552551440316
0.0924103291450075
0.0870358886371905
0.0911718130802271
0.0845781849181294
0.0909505402664298
0.0865495628031484
0.0902531398356379
0.0865544121749106
0.0846161931980679
0.0814932696837599
0.0876515958837096
0.0858131279407473
0.0884341246418545
0.0839012021977079
0.0903424096911516
0.0832413627895396
0.0893076989902805
0.0815241051613
0.0856488770165885
0.092985856132763
0.08589807331581
0.0860683398823858
0.0888233304152122
0.0692004687703627
0.104058085868221
0.0858432002005173
0.0913635238062908
0.0803328597890254
0.0909521959065108
0.0837226400507237
0.0866034092192037
0.0807652143166943
0.0857791271124493
0.0896948728212653
0.0834000273416183
0.0861529820727674
0.0820728903339874
0.0823270570752805
0.0810874265346942
0.0817376569301549
0.0828430543402945
0.0833414424353336
0.0849907741524231
0.0834973909289426
0.0867931294617734
0.0788381206975172
0.0879283710521258
0.0758970023027436
0.0842261190263715
0.0867288154441627
0.0840272024184758
0.0799302596856658
0.0877711429326608
0.0768160086612144
0.0792446236648303
0.101287795689059
0.08042244435143
0.0863675876167261
0.0805250823645914
0.0845327996406011
0.0826055886482498
0.0807947061268507
0.0774317821756891
0.084439531495574
0.0787209601103567
0.0821883511417374
0.0796417233662198
0.0822670427168776
0.0822018778860708
0.0816801950718093
0.0821346750516889
0.0790287391072563
0.0845827019158469
0.0795465984142925
0.088890854779297
0.0711308244528756
0.0793085159823832
0.0925419783521024
0.086824845307312
0.0908600206931638
0.0836221676287113
0.0820666122384497
0.0794665231997843
0.0840850640856148
0.0792025025317314
0.083831702290288
0.0803765147938941
0.082873344622247
0.0820561936474484
0.0861792539574518
0.0783188373098485
0.0855568261627574
0.0785413114918147
0.0809198578030637
0.0746237080415615
0.0826328378351755
0.0728716267331115
0.0848440123532003
0.0693292018239564
0.0879412504880934
0.0784349700255692
0.0936752964480764
0.0523918478354113
0.0956379944776855
0.0982024533302997
0.076709234534093
0.0929232566965621
0.0784888823743999
0.0861555144356131
0.0770621066767076
0.0805572604041422
0.0842698646596204
0.0822263181955464
0.0767516798061958
0.0805512267548643
0.0819650511366163
0.0874967648463781
0.0708735443506982
0.0712536183608258
0.104141135868936
0.0828641181707254
0.089307950728717
0.0815809981757736
0.0681069582016037
0.109045407560512
0.0793832422609802
0.0906730206578851
0.082210711414886
0.0863739252283746
0.081488810741215
0.08411875903397
0.0766629712541802
0.0884408972730342
0.0841471564319228
0.0768939412999345
0.0843773610015375
0.0800738464345561
0.0861518933805998
0.0788091892300618
0.0842106563709142
0.0949865232221463
0.0829751840194823
0.0909205776900372
0.0865831169063066
0.0886234338623808
0.0846374204221898
0.0885611763284347
0.0800124945088374
0.0819730806979973
0.0974630394756632
0.0787522082652836
0.0913232775246108
0.0976891760526778
0.0822574709353902
0.0919973981139272
0.0817552896103691
0.0972804766119758
0.0810656979941953
0.0702496513029429
0.112596672119764
0.0758859058130317
0.116207666684862
0.0803980661099398
0.100914527767854
0.081299947741945
0.103634215141093
0.0683777985014015
0.110277210412486
0.0831620047840196
0.100256093286509
0.0813527585380397
0.0920302731345977
0.0969734069919471
0.0953672107310439
0.0976919847775821
0.0926316572025525
0.084706135864152
0.0972444162302087
0.101175135817499
0.0647435001981067
0.115400895158866
0.096030474720381
0.108157808317578
0.106024216843755
0.0706372939261241
0.131627557298757
0.0942215285449977
0.104165534722667
0.0935595981892553
0.104216795265365
0.098374406079232
0.0774471198080136
0.122772262483194
0.107349067176377
0.0947999627751276
0.115255391272203
0.0839225427516779
0.119188599608839
0.111412820984749
0.111170461340283
0.102572382422907
0.118641075647724
0.0765997731424328
0.128804371854802
0.123061595567667
0.0964266400263397
0.138693754935692
0.108902947972727
0.131075275602611
0.111483209565293
0.123680402680859
0.10689036194019
0.133918258671895
0.120239854845352
0.116005088579197
0.104376409152587
0.156471115210858
0.110547326121168
0.143269507691295
0.117624040741967
0.108808648439132
0.109734047898257
0.175429993112596
0.1446334652878
0.144530539165585
0.11546575633177
0.153493749603994
0.13667377488535
0.142313010929044
0.138845119454942
0.13820111339305
0.139962625743284
0.139810114500671
0.151639512984013
0.1470111438195
0.145014721241669
0.154971371657856
0.128203811937401
0.15264601404467
0.145213624863446
0.198814863431908
0.136465067926598
0.182699764343584
0.164948138019528
0.166748111066919
0.161635786611332
0.160502743818371
0.171292221409176
0.167048643863035
0.168667563302418
0.156387163013848
0.179604801071712
0.189290070395052
0.164680337778688
0.22398506432138
0.169950347714545
0.197861728198301
0.0894490648099642
0.36588056022683
0.212806184512812
0.215845350653562
0.208481365292911
0.159230950400555
0.285279609484582
0.24251276853043
0.235413857604398
0.252375037929833
0.249317618024688
0.252203324975949
0.273507580704547
0.271558252740854
0.283215729631492
0.294857480184958
0.272521860269066
0.270821654747032
0.33442015362121
0.340719192976136
0.355893186968331
0.324758518162173
0.347356234523846
0.368997490411133
0.354837607349943
0.369763766265341
0.374564561799626
0.315838875541186
0.461540843650176
0.394781822605601
0.419252133658649
0.397277169577783
0.466008114054625
0.406257759395459
0.45443406716968
0.49122008794627
0.460621284464672
0.494818834523543
0.47031091673659
0.514379553389928
0.475837328891053
0.538030515501725
0.532049053613233
0.52249091929615
0.53338887594825
0.542702759412469
0.55378055020474
0.550623742983838
0.561317570564957
0.543544514217565
0.601656444749548
0.54758581060799
0.625225193756197
0.635350745323917
0.569846086676578
0.610872466063414
0.548784832257988
0.624649087721387
0.584088988424111
0.620088534598286
0.636600114446346
0.585286436918069
0.604110406396038
0.605886056423224
0.631624044991667
0.617217344938797
0.61850872984384
0.594394490975955
0.61150193612889
0.608429462978252
0.557772742235263
0.722874901329239
0.601130459859288
0.624707153604743
0.590806449273722
0.611314454370148
0.600170152191263
0.61895851004845
0.575649141343234
0.62743172413735
0.589811944841828
0.626940714187708
0.575582049128811
0.606612870420927
0.629021199149572
0.577040393224159
0.565649267886723
0.568331300125794
0.567465263175991
0.54845038581457
0.501810682392256
0.622370837901047
0.531746030133054
0.546652572203685
0.550097490481862
0.539451106205403
0.525685367370016
0.532360711375654
0.526690229153636
0.542404633566184
0.508085407788771
0.529987303534503
0.526632933032104
0.524853247147282
0.505556502000297
0.520317604358846
0.522457098108277
0.514943490020484
0.518147047873622
0.519254177374079
0.52697579549621
0.518485886606262
0.507160489482473
0.5192142816775
0.511248337034738
0.525649005473722
0.523965923615097
0.517657015003713
0.515152927286447
0.52601221485768
0.517258867298369
0.515659236238245
0.513506046206391
0.522200256564783
0.515592173209494
0.51310466529973
0.52462838442665
0.522984169807065
0.519004360415121
0.517284659256493
0.515734975553245
0.507230686112413
0.516152496683404
0.481631067701028
0.510320344971036
0.561285191094273
0.48824829237795
0.518803325158064
0.491789767282167
0.515094164044595
0.461827168950103
0.510435021737655
0.530372577488271
0.490803625369621
0.498158506888488
0.491887956457664
0.482625418385292
0.50160865904461
0.469768214405275
0.49043701580467
0.452398180618786
0.447609821151467
0.550115374957673
0.425244526086538
0.575212647341223
0.479690552750006
0.465445042730672
0.435372820371007
0.516544100053221
0.456208832489761
0.466637049943615
0.462485821472962
0.450884187296881
0.482352357682058
0.447334227411544
0.465263131209588
0.43623774230257
0.432469857680601
0.476208769178031
0.446627887312367
0.426489001768473
0.488508217613545
0.428517766115029
0.432989453231391
0.493274417073212
0.467192935801652
0.432315326308652
0.426961712267257
0.426664388224825
0.393530669168277
0.455823417304937
0.438818238403651
0.412412526067697
0.420569910099532
0.389137172055724
0.407607503304704
0.390415221655874
0.417602380650227
0.355255232792425
0.434147684833781
0.393781837808996
0.367731814817126
0.390742595329724
0.379094512203345
0.43749065103346
0.383370893293884
0.366691542326191
0.347322314786736
0.411651163907636
0.363840073359367
0.37535459064219
0.362733832030918
0.33913275431667
0.38403061025384
0.354728935636197
0.328009653706513
0.360642387004636
0.333003055324039
0.358103764891596
0.36190688225471
0.373949349085203
0.349950800924249
0.32693569699957
0.335555286203525
0.326687198064928
0.327081441116363
0.317173836391796
0.298329174048771
0.363998319591779
0.287613219744307
0.354449463809378
0.341363634059573
0.324638156364704
0.331437019865036
0.328246744507743
0.320720559897639
0.341545648698197
0.345303654860756
0.35545510217217
0.309204460985252
0.362590993532858
0.347225118008024
0.359379160426506
0.350302946462966
0.36017615713555
0.350317961202411
0.366896212920906
0.377813523669053
0.380361159635833
0.375730631092347
0.392813581826274
0.370566709637924
0.438663576402306
0.391614773678031
0.407789828009794
0.437665799302214
0.441413225226245
0.479857624802916
0.434311723681979
0.455576388162934
0.458324668395382
0.472157061801408
0.483197199158827
0.466723094882276
0.517785190471682
0.489168061675003
0.492939887761948
0.500919508316637
0.504027173215331
0.511782595966173
0.507437554848945
0.538701311647863
0.484216474736804
0.589978792398577
0.532722359967344
0.555483745898403
0.535971347383032
0.537740175849717
0.550584420450839
0.544082275943809
0.554156217515183
0.542037353380485
0.563444595609565
0.56582903933847
0.552895783344284
0.56552073838163
0.55975579395065
0.5753838211141
0.571801022401857
0.564686249326949
0.575391278684868
0.574929022876584
0.578532278801544
0.555223566726987
0.636966648851896
0.625063236955583
0.582537019986568
0.60825949061096
0.600241749547928
0.625828045705778
0.605379971086724
0.619066983843468
0.638732216337725
0.638760146097186
0.643111830906098
0.636514866255902
0.640855930183726
0.638886313927234
0.661914657099846
0.655999774479127
0.640126027591578
0.669044181678903
0.616874396096786
0.731814768296498
0.661296146590215
0.690980714127658
0.677620293780549
0.682344456950053
0.694441465362549
0.682790780603288
0.684600938948922
0.699940530510786
0.688278891611857
0.699367197273816
0.695298974606838
0.687493859820057
0.698582614082092
0.688358403664771
0.705772360020455
0.705734876289181
0.692835145984172
0.701517319589801
0.68793766224882
0.690307606530126
0.703709672895386
0.720533773931265
0.699375394903532
0.698981364801565
0.687442535333828
0.721257402554416
0.712950863858619
0.700858007785211
0.693762993411574
0.70005209786262
0.690652326455151
0.703241614347986
0.67938860238543
0.728660801958835
0.714885456159627
0.704515755803938
0.707478684807352
0.717994524548563
0.710275519967069
0.715619941852724
0.711233998091804
0.721291690613533
0.724925145062419
0.720878989064715
0.724965817503632
0.720187621369522
0.725480768273342
0.727805298345056
0.746669552143962
0.735789652499477
0.725293564315178
0.734554357687397
0.715783346170991
0.725619360835203
0.720440958836657
0.715769221840331
0.70861472612774
0.695635959383671
0.692190858105914
0.70690955614856
0.702679988290035
0.690391406674054
0.70364357175045
0.668924642886306
0.68165485684543
0.674875329495727
0.66529566609021
0.653529223679285
0.666844846685767
0.657441899721294
0.657007397805235
0.649850178138412
0.643047372995286
0.638234555450642
0.64340651176488
0.640080139206899
0.642829838469368
0.648049504683864
0.640596496082998
0.636807170279444
0.637247282803112
0.6319255640785
0.64451996301728
0.645555036219761
0.643548207714584
0.627585250905353
0.644088388786541
0.632845522442001
0.640827543793215
0.64152257156454
0.639556334874093
0.636916016947775
0.632994833815512
0.628390292659579
0.629142335679895
0.637668172700982
0.629606913017327
0.625602839632414
0.624881890306488
0.633739384978254
0.634918668055924
0.628706604384115
0.627205692561283
0.628006922391744
0.630208915629408
0.63140414551373
0.626433195830721
0.641521617886296
0.629576185969368
0.634553172509921
0.636793604373947
0.626094983373081
0.636253342659591
0.633344534235486
0.637476020507876
0.625160435941149
0.628914894434783
0.634439822109743
0.629873051271337
0.627216850743834
0.62394791767176
0.632236332421213
0.623212822971818
0.621685304156683
0.619254893072501
0.619967824800131
0.613565582300229
0.6100099695123
0.604590432481341
0.607611612883612
0.598566670883493
0.604975095608407
0.591072472849953
0.57814884649937
0.583787276663856
0.572117472752139
0.574388249106359
0.571507871400071
0.566117833259489
0.560998114408017
0.56012176829989
0.563840540089739
0.561464779436797
0.558531405966331
0.552418293310446
0.554237180406509
0.557339949591093
0.557996094094361
0.554420916192971
0.553023524918024
0.553417359159501
0.551768325105716
0.553738137997876
0.551042510721736
0.555396381591324
0.557892059138476
0.557855247557534
0.557904351818625
0.562470816895898
0.566502788917593
0.566820650800267
0.568717795481999
0.570329704827212
0.568819970674013
0.569677196342435
0.576200279263586
0.581963404950722
0.570043791721049
0.577751016466361
0.581995215594706
0.57826524938046
0.583009661972624
0.584805980737017
0.586850381208254
0.583401632361293
0.582381444844914
0.580351570885909
0.578445361653621
0.58181138066197
0.581693246020395
0.577794867065334
0.579633855861099
0.581426834532668
0.571830166593326
0.569242054879619
0.577771586756158
0.573558094715131
0.567171155947046
0.568332307387052
0.565592165678142
0.565963077716265
0.560806647432213
0.559619452388943
0.552114107611212
0.552723325482786
0.553083978189613
0.554212350720235
0.55314392509998
0.547633341958406
0.54492597760529
0.550250232440721
0.548277746430569
0.541089684136995
0.539417486999273
0.539167451783306
0.538853360800462
0.540358607896933
0.53712133737441
0.531794006523312
0.532412641879115
0.530225569983855
0.528417422591893
0.520848170022261
0.523893797146604
0.519184912252316
0.515259288795724
0.513889463946273
0.51280782429447
0.507892760751139
0.504835666971917
0.498846111390538
0.493307578051458
0.490796959917793
0.489489869025631
0.483562580963298
0.47918943597312
0.476687040317377
0.472423916078224
0.470425149442892
0.472626238835273
0.467557145727507
0.473136739290421
0.467854983695999
0.465580002878636
0.463417470862881
0.46159273907008
0.461713764553323
0.45883262947199
0.453856845541692
0.451603066143627
0.445426280711302
0.440293870363159
0.437925518679558
0.434483752270112
0.422300205141724
0.420028465877926
0.41354813282568
0.413302562955307
0.408027689010739
0.407625399875683
0.407766745403032
0.405951958248885
0.409365463634009
0.42020613042096
0.422789096667432
0.436558890723852
0.439976867680963
0.452083552963499
0.463588716983076
0.479689579816014
0.495522552802839
0.512006981980776
0.525104665912484
0.546143319009158
0.557401297517367
0.575699818769234
0.5920318781883
0.612267731714797
0.631373948023719
0.645074536153101
0.659713354879552
0.680032637952894
0.701213333411827
0.708820226193995
0.72978120009243
0.742281691628437
0.755410309493151
0.765487786836491
0.777424044019088
0.793547961983802
0.805109609115462
0.816315777870584
0.824936607314474
0.825151398975537
0.841316495917318
0.838106639864217
0.8546736752953
0.847468357611315
0.858763774163353
0.857841127625992
0.869406533664835
0.868526638848298
0.856562953977702
0.863514567929378
0.867493151237823
0.880989279315553
0.883638527044706
0.869306725617858
0.87655172827962
0.871143940017298
0.875254920980493
0.877866453129744
0.89544407220381
0.900669822795491
0.903656523233803
0.908261710965521
0.916184515842176
0.91232718215214
0.915407248955872
0.926352692607981
0.938102696691989
0.957499873911431
0.968178440966145
0.974819524479271
0.974009248208804
0.997532783761817
1.00734206565648
1.0180809826882
1.05572531192986
1.05468755398227
1.05656558257048
1.07756532779712
1.061263786016
1.07775770927153
1.0802578519712
1.08757348141597
1.0910079300828
1.09507479444955
1.10020500081685
1.10534671742856
1.10675040349986
1.08562140790383
1.07517087695345
1.08220641795876
1.09787218685059
1.08457136560754
1.08688687218049
1.10488126358217
1.09213473095887
1.10240179327567
1.11161881443081
1.11944728396769
1.13166372071014
1.16283608400978
1.17315811294546
1.18936364312221
1.19645753368659
1.20599547140952
1.23277109088136
1.23180922061285
1.26519047753048
1.26561730856176
1.29674870253781
1.32268715275266
1.36190395183539
1.35250387236096
1.32207901667138
1.39646952709549
1.41832455296145
1.42729436721966
1.45213188195743
1.45180908653342
1.50998067208781
1.52702004392494
1.55880605665183
1.65407644016972
1.51590566833625
1.62773109238074
1.65790900192714
1.62135095522561
1.71183408364732
1.70611184160193
1.77975884901149
1.79891710669041
1.59451282381375
1.79536353315608
1.78509971591309
1.79638188708573
1.84678914809087
1.80173020561073
1.83529803938288
1.76218335429331
1.71880518895553
1.81719029604233
1.7467746960147
1.71437082192733
1.84378097686319
1.73058726574948
1.89777047703355
1.761175225195
1.7389616107771
1.7538768933864
1.80444014509911
1.84288317486392
1.7972057334752
1.86722515858736
1.78563685525736
1.89226755328714
1.76862961219213
1.91256137829414
1.9827890714143
1.91161684822953
1.8611127484342
2.0694572511825
1.91017378123595
2.129613201343
2.03504850341577
2.34544322595342
2.1152313713058
2.05675748473429
2.05756953233927
2.07622114577999
2.18967997117093
2.22101887035014
1.95339353035899
2.11954077618479
2.17344075582103
1.9606403587783
2.01897622855137
2.13130487839038
2.01027062060064
2.12107093356968
2.2152047547492
2.33657617512139
2.07223969058643
2.19275176977402
1.93164517671133
2.34230565325819
2.01474344877628
2.4757939071285
1.97153891866837
2.20609049423287
1.90820857836552
2.16396155865775
1.89068602186921
1.89611930428966
1.86515591143816
1.88212289706923
2.30336561322606
2.05460440921154
1.80917108949592
1.74647375297705
1.77945345964632
1.79295745062827
1.66602486873327
1.72458167821814
1.73046626299836
1.67877661596535
1.61332221803041
1.72433364724333
1.53153750573037
1.65939973251903
1.59753122085538
1.61178625375205
1.54715269544606
1.63645938787655
1.52001273096671
1.6353227365104
1.43332070837952
1.53636544605937
1.58380071745915
1.53721423994277
1.52723534307692
1.51236995649176
1.44466081447068
1.467147204089
1.43459934668898
1.39725815790273
1.34013227258848
1.35852890813909
1.32959617743844
1.35610739656782
1.29012792796014
1.30654062604926
1.18581030714308
1.19568528978683
1.16277059504879
1.10115597504173
1.09503585756671
1.04780882825893
0.993452854928896
0.988988982493597
0.962173880903635
0.909149500643352
0.866087676510362
0.844482878285438
0.812297926384051
0.795378424226657
0.755821281402544
0.751010956656256
0.721265591766885
0.71633183249879
0.697183783703497
0.690927609833378
0.678233727440779
0.668800174496293
0.657525367931871
0.665877328456703
0.642738380490948
0.645788051859159
0.636839006983665
0.650113700727585
0.643389101913812
0.651113410829874
0.646896171598899
0.653965295557553
0.642995482463706
0.644661199011321
0.645782411376423
0.646366991560728
0.632759955574787
0.63255319874268
0.619016460839138
0.615229245828249
0.614415417517388
0.602997572850335
0.604323122037552
0.598534590000738
0.594519193981837
0.596622449174059
0.583615870945046
0.593927055513229
0.582228864776417
0.592101526966642
0.583779705903107
0.591190219530368
0.594209518923426
0.603133421056977
0.601212860899432
0.602367659377741
0.598445015501256
0.611312898309056
0.608881299900633
0.619407484876357
0.61758134013339
0.63064407383797
0.617209777147147
0.629449183588905
0.627969057066817
0.632933738455748
0.628078842630075
0.63779829246898
0.616060403546504
0.619040390679306
0.626909347063266
0.63526748660421
0.626697904502817
0.62298402401489
0.63453250538616
0.641564893656805
0.627017277404714
0.654999294231248
0.659249696147248
0.686673955515293
0.679272802768863
0.685360067453973
0.704132840231121
0.72703943418339
0.735821584598048
0.761673344221302
0.759766796958635
0.779672575351866
0.806212871187065
0.804451008825328
0.803800223994269
0.818482229581841
0.790236826613595
0.790113824763747
0.77973082774061
0.775440017854714
0.77159473446301
0.781767988571956
0.753921924016772
0.764089819550064
0.719641232050857
0.746928903501836
0.724629819278847
0.744323108429355
0.728426209242864
0.719355435814653
0.723271795472636
0.765553086308797
0.741468846561201
0.736779135648407
0.724941013963587
0.741903845030512
0.716093546844473
0.720022869492943
0.720129104212657
0.724853643374912
0.704395140052755
0.726258106202265
0.706064758528584
0.713068369411337
0.685929034800121
0.680145201569129
0.661031624736233
0.676237287890867
0.650979096922757
0.668706744107598
0.64669310735145
0.656473368277578
0.644750261324466
0.6657843076352
0.627774238476925
0.656354074253025
0.646918873572287
0.654244974175261
0.62641435557211
0.648306809338012
0.61590136478578
0.613231880930955
0.619315730089675
0.62646924302599
0.611661830845403
0.625527755971745
0.613194216885813
0.616331147190195
0.602110810774309
0.583155015554889
0.61257881774893
0.609339287824109
0.5921630157073
0.594808710759467
0.591641300308887
0.605287973950295
0.57368336071386
0.596693728638811
0.581008731566922
0.592456505667041
0.583232985920868
0.590303965494589
0.558024671553172
0.580081402457601
0.566546055348439
0.588427973458731
0.579865721977425
0.591328783005279
0.573741460886919
0.598811116371057
0.568753339750283
0.614076108825795
0.574663878178432
0.589737454167763
0.585863515987959
0.596371057250753
0.601661368223855
0.634232100508409
0.598471166205945
0.597398221144891
0.598621418682171
0.586377198201734
0.594019945660113
0.606553204680242
0.625310190161651
0.597807770254908
0.627095007507549
0.648347922166114
0.606293448632548
0.639320020867552
0.650712537230327
0.667124219617164
0.662857992593805
0.657873317696756
0.672329607749207
0.676811740148944
0.71866805145892
0.736325571893319
0.707061192520226
0.726185817288501
0.79002098144204
0.781448548056194
0.781283658418133
0.89098324421687
0.842748324831015
0.815962155752938
0.866145719697645
0.928727345345404
0.91289851243532
0.917629426496268
0.935588587426115
0.9869730306061
0.90293338277495
0.958823142201155
0.899675960650764
0.98412731277431
0.876809708945958
1.01442841567365
0.925760828276987
0.981301593981667
0.87049397210255
0.942280185617315
0.853049201907841
0.913661452898277
0.867783524375076
0.988332513970777
0.946909087816624
0.885168304910898
0.834608521828942
0.886801688851552
0.901704477125372
0.959331320947611
0.930594598548106
0.981090034327126
0.959642151938402
0.901283439983726
0.86170985811268
0.879960375237614
0.910821994084414
0.855403691602497
0.855576417966157
0.870407431617711
0.844370545830213
0.890383217444711
0.806959961960563
0.833697934657725
0.85048818251659
0.847749723710416
0.907641234773143
0.879676141777879
0.890688737097458
0.867668360672809
0.717585446484873
0.960733729412013
0.783692046411048
0.908495939489462
0.928984479801329
0.870647613565805
0.832801471790081
0.938580378294617
0.757254424471898
0.932590186745112
0.837957068169593
0.896948212143839
0.881580035634148
0.919538236265885
0.790861723968768
0.996672203760038
0.808137421522737
0.885879220587735
0.777761058246965
0.921898672140908
0.886487706880411
1.03705344092101
0.917159401297648
1.01047682798882
0.790388881961299
0.957445239349852
0.80806494516382
1.00957263250941
0.954431370968708
1.16449627433686
0.88103924681352
0.84912333251934
0.936414650874851
1.17021310066724
1.0016017109399
1.56376392749457
0.833996978364934
1.072087174774
1.11284980072861
1.34450537207946
1.22083965088183
1.06181388218845
0.840435456592561
1.03231408337186
1.02029855276765
1.42207108980403
1.02733321472421
1.27972058874201
1.03358327273509
1.30567305063256
0.981805538880874
1.27866072661702
0.977070445282577
1.03799968201985
0.861115690589332
1.16279481458072
1.26134528149925
0.99228370081269
0.857492048263454
1.36386984885156
1.1507407825536
1.32372110812736
1.17881417954954
1.38465332333883
0.980747094450296
5
1.09941678037118
1.50836229905899
1.28965070587313
1.59848710032984
2.09750643840965
1.36741038190738
1.43864953548295
1.08953113447668
0.7638442391015
0.95799479223978
1.49209013093079
1.26567753587627
1.13820120108749
1.33016393377423
1.08228583837619
1.51224820267002
0.918135290062693
1.15520440445626
1.12532320095842
5
0.875246890889809
0.988787542531271
1.20339672509199
5
0.877507177923712
1.14001634371699
0.91089085485377
5
1.05495283409244
1.67101461947708
1.36838807373749
5
1.69347532691419
1.3130660131592
1.22770142820675
0.771204478527576
0.741440074127382
