3596
4000.36533379555
650.420452594757
1
2
2
0.062046785949431
0.0545991503899831
0.0563784657765988
0.0413520179998765
0.0670794262368623
0.0561515115464648
0.0775731225327808
0.056106503130514
0.0694860559532218
0.0502959021755976
0.0643304231395924
0.0589163081673454
0.0683004448716049
0.042781706753279
0.067943097333365
0.041011495789043
0.0584481990222598
0.0424472816328096
0.0604450529690004
0.0518535323536404
0.0673224844486906
0.0440346414666949
0.0745145762462089
0.0579227051086306
0.0675227863782763
0.0620714349354423
0.0592008598262888
0.0431300831197185
0.0730164383653184
0.0507936367980029
0.0678170517654061
0.0550559843596573
0.0741870415940906
0.0496141328415638
0.0675054742332015
0.0536329123688242
0.0642129467806328
0.0411955922299643
0.0642531982636726
0.0526486894701985
0.0774925982777206
0.0455234780793353
0.0693239327859685
0.0539149693130924
0.0646442420030618
0.0532584468366002
0.0606760989221346
0.0518686883018189
0.0611145990410202
0.0517237820222139
0.0676582314338251
0.0411051298744533
0.0786521485247828
0.0533460348233168
0.0593669942283945
0.0512677178249022
0.0642672227502249
0.0550496204090115
0.0621477140630636
0.0290405207728704
0.0762467397932803
0.0593113094989023
0.0565472939361103
0.0481668278568598
0.0686389996943328
0.042414092535604
0.056150457704769
0.0437661633795763
0.0564266808080476
0.0389558189124605
0.0433089365692647
0.0703210370854397
0.077093995958904
0.0558841462148879
0.0599905751419787
0.0404711358020947
0.0680181231468066
0.0435123940311828
0.048690153224048
0.0573832532575023
0.0709710869585284
0.0661956875282904
0.0562712237383707
0.0378557355480104
0.0585436976244913
0.0533760520327356
0.0515521922994079
0.0343532036306013
0.0793327374337155
0.0582552711831674
0.0585163201439709
0.038265858252386
0.0533521813830602
0.0437549479652526
0.0543724839356809
0.0458228869279797
0.0616869995962744
0.0404798577955158
0.0537402201093807
0.0368281517381083
0.0561538191486862
0.024301130463455
0.0912285449418616
0.0219950011512302
0.107455695844035
0.0562050958348868
0.0376306914511467
0.0677189128606423
0.079299626357705
0.0421727966495786
0.05003076304509
0.0396307173550651
0.0636574673444824
0.0392081993702963
0.035246053852975
0.0426614183439741
0.0969244749187145
0.0555205540640634
0.0454684483303664
0.036858765405691
0.0171601676358471
0.0312232403571599
0.0987374428677918
0.0485975932239511
0.0735487582652817
0.0464906809597329
0.0279999188030816
0.0695170649681716
0.102504646107787
0.0493860396966882
0.0475568028296482
0.034359309489176
0.0443532182516979
0.0114488884761916
0.0753541356719177
0.035223111639196
0.0483090472692514
0.00908035995080922
0.0556607548387415
0.0828219058277633
0.076839675048514
0.0516795740893178
0.0347230734818748
0.02794994517849
0.103078733987331
0.0578901639565556
0.043921104395065
0.0436017745876007
0.0776717934549334
0.037426529368482
0.0552420334525452
0.0173098266973219
0.0788725382885059
0.0458631844726075
0.00214915558300786
0.0476749729009831
0.122642734021951
0.0434353755808977
0.111942226440646
0.0538717246109524
0.0700608763267883
0.0396732954803087
0.0535329090639377
0.0252829900020426
0.0517564126308873
0.0234445842968595
0.0578851310604095
0.0626794551116315
0.0419442131624881
0.0213093600634629
0.0900412516720023
0.034375650011787
0.0348385518356919
0.10217610363325
0.0742716223573846
0.018335560438801
0.0802898947310379
0.0545470747081908
0.0344704934317442
0.0292151508629297
0.0886414045286776
0.0519759692226082
0.0462969148553191
0.0222642664063164
0.0465584683052203
0.0488035012528997
0.0608755413279029
0.0455413499903677
0.0527904416333965
0.000567210691392729
0.0469175296708398
0.0775850023443782
0.0947288951719705
0.0493564045908756
0.0578180860481245
-0.0224165908923975
0.0692129372457499
0.0642075133388922
0.0606714247398667
0.0377770118763674
0.05556875080736
0.0377476710755359
0.0476815830880658
0.0473013961627302
0.0425228115291046
-0.000372239776686767
0.0871132713329908
0.0635218235715023
0.0508075080468065
0.0217867280735906
0.0420057287158237
-0.000670384342789713
0.118337521483923
0.0792494908870641
0.0557805862456551
0.039345050183267
0.0363687454075159
0.0294019742297086
0.0831677717730944
0.0367093182508387
0.0566360393779988
0.042526151275772
0.0647469298209499
0.0408764551249017
0.0479934201093143
0.0390066152875724
0.0545937801714213
0.0414415130310439
0.0473120986794785
0.0415587270943745
0.0700193815659894
0.0430702748080355
0.0600514809417997
0.03491415997516
0.0392115318226123
0.0284617965790875
0.0818071028024516
0.0473653486004669
0.0618021437269819
0.0377365248170976
0.0515662226475727
0.0361052367074298
0.0601520777649205
0.0422914411493506
0.0548897313131344
0.0143835358652772
0.0963690866698031
0.0552190546564083
0.0622603974167989
0.0101675435815408
0.0750353991915876
0.0571115197506304
0.0657599538798303
0.0397055214620675
0.068174062324433
0.019549791981735
0.044218081351384
0.0636035401912967
0.060470186097065
0.0181358481526357
0.0787772169475721
0.0404736002472951
0.0576959840110691
0.019288679868772
0.0123410863451913
0.114383404175151
0.0628845106417577
0.00884316069403289
0.124129155600166
0.0626144651038869
0.0756400376338231
0.0240870827609217
-0.0179691509280617
0.106189087972664
0.127883621949812
0.0495499939035996
0.0540738143728574
0.0648207547005045
0.0543106450853452
0.0434828263342625
0.0512488426410378
0.0370031791029266
0.0687289400885793
0.0740458415026395
0.123729224065769
0.0112402424178397
0.103152596622084
0.0682796472605097
0.0622923013650587
0.0478212739045481
0.0579551991555479
0.0336834560142924
0.0820701668272615
0.0510522490512733
0.0807409319951532
0.0478789623167124
0.0662313425861832
0.0833064803356788
0.0742871395443223
0.0414603547581116
0.0762383990607427
0.0541730615594025
0.0689523975210783
0.055911723135211
0.0573823243708978
0.0616674185191554
0.0476069774223519
0.00593447719787853
0.137304365056746
0.0588725530061316
0.0588986356250143
0.0792042399812461
0.0757895887841172
0.0525855464229482
0.0681264147074465
0.0513607986456998
0.0709893884543199
0.0372961792311724
0.0526793723216338
0.0782606720716202
0.0734372300845338
0.0597578933019338
0.0633422425582235
0.054694103669549
0.0687241244111061
0.063139001572627
0.0614185553285167
0.055569800333286
0.0770908242287435
0.0426463547796116
0.0941800578691136
0.0760519735172523
0.0404420868724906
0.087278328784052
0.11144654464899
0.0797453743875537
0.0781849610556999
0.0618802180215538
0.0821590970627408
0.064397130775293
0.0885652157945181
0.0596319785605119
0.0733715396869955
0.0865294483882537
0.0975580498076623
0.0450588198448022
0.0560110169642828
0.0940380675073003
0.153199996559973
0.0829152885830328
0.0917839625893816
0.0432476088898991
0.124108959452911
0.0977948777391912
0.106858635854028
0.105610201281395
0.0980623816632874
0.0855593319705196
0.0969982342303402
0.0840039343882481
0.10693194723372
0.0940575079835288
0.0983082065886428
0.0995931185364417
0.101924523172282
0.103346948682953
0.100456418828167
0.076635524651662
0.158727075855389
0.113393994819535
0.124681302658227
0.101037645310057
0.0983821949441488
0.10057413936559
0.130453015031891
0.139529655581666
0.141972624313308
0.128684636918907
0.167700412939982
0.127200297691542
0.144524398598763
0.119925701368856
0.145093304256708
0.133862161488187
0.141413820619177
0.129893986237571
0.144711238511294
0.136898342268978
0.154588813239995
0.139680277658844
0.153110719939343
0.135387403850419
0.180485464919928
0.152629142832501
0.17543700997764
0.127072040613308
0.17960431331935
0.18180073291776
0.234475567762347
0.17176683331725
0.189360407922999
0.174108135163027
0.187427895082258
0.164945549818964
0.189011676324062
0.175293891851826
0.188360026698708
0.187059939383632
0.218971514182884
0.205503242982635
0.231123499849424
0.174277474602936
0.242150338104363
0.191471942324594
0.220286991537584
0.227851135878131
0.239529759574661
0.18490013682036
0.273667686427702
0.22247619663414
0.244694745671625
0.244554807397182
0.246891343327537
0.241468588753608
0.266263260399781
0.246219031802461
0.267476262812221
0.243368177920633
0.275406100646861
0.250547103713228
0.281223106768666
0.254678710938962
0.271552714092817
0.267286483199178
0.287793542559239
0.273046915327426
0.301411935665671
0.279187355054612
0.306412490448497
0.259020563055641
0.3113255181798
0.292386355966233
0.307823640127824
0.337253443258142
0.32875181623743
0.298331575642696
0.333213125552986
0.313863276204438
0.332958947331275
0.325450511889217
0.354905154949244
0.325606569101932
0.351457128155184
0.331705920336327
0.359447175037622
0.334046782174594
0.365866113243663
0.365312499083821
0.374429085531051
0.354165546294639
0.38761097090873
0.360457738581068
0.428324743975872
0.397203407895673
0.421777676930362
0.400814527205626
0.452967931259615
0.379903187862523
0.426628959580738
0.427818667532945
0.438517474689571
0.428787933812632
0.432549814847787
0.427153059415215
0.460539599181726
0.418462379353447
0.43410756151847
0.44592353438487
0.474939198398396
0.447108450276413
0.499433016710999
0.453093146001822
0.51058327096445
0.466359188015779
0.477600258117665
0.496029491239927
0.508617676958974
0.493411291920839
0.539938710432903
0.485621053763766
0.572058858410781
0.486018983804029
0.556543483538222
0.534391055265787
0.574463322496042
0.506960083274365
0.574394705319945
0.563095599479368
0.557862066437002
0.568642821431982
0.618544885115994
0.553245473191535
0.573254604290777
0.567710153352864
0.629944010692055
0.597786541416515
0.611127554415227
0.592588202537998
0.588820160403777
0.568937017329198
0.642187184177857
0.583703737141427
0.641990836865659
0.637093784124628
0.660186892234032
0.616250942695208
0.6447772027113
0.644123117701571
0.664028403096335
0.630066299574543
0.647799289788673
0.675647999388484
0.75879824342981
0.64431667051657
0.726191491473752
0.688404970718404
0.775160928122001
0.71862749127
0.723915200279268
0.695202432026169
0.78317680300439
0.696094596207108
0.755289960940637
0.778665057603273
0.815023417846082
0.752370392443799
0.821552393541168
0.753461718218245
0.769850457666106
0.749579651980674
0.83755591283689
0.719768425847973
0.829306601211519
0.807580628796577
0.899803983047556
0.759247812973363
0.828371744950729
0.799240976230062
0.848106972108754
0.836861376906888
0.853849452657504
0.757860799256278
0.884167312830183
0.771017192181884
0.892712038130752
0.781635515685522
0.978201410594265
0.868847933966164
0.929493272398434
0.88227189068502
0.943469552340765
0.827772474393346
0.93191211392298
0.916706123811885
0.98018267922615
0.891924248238137
0.950921507021552
0.831849122557074
1.02561834769822
0.989281334632262
0.940596824971607
0.906972436769489
1.00909280668546
0.992922813383367
1.01031810723941
0.948802333086911
1.0279663495823
0.980311898763038
1.01120994032827
0.96299547491988
1.11138807977989
1.04189384600328
1.10219849185296
1.05325471755321
1.08551744033816
0.998459632729968
1.04487278982483
0.983124360863939
1.16981749650335
1.01629925510156
1.0803729826332
1.04088294010907
1.11966523463721
1.10095524310836
1.12302011813436
1.08436805743248
1.2684333300544
1.09215808519346
1.11290433684933
1.05970451525618
1.15502642253378
1.09425277270651
1.14790448038458
1.09152614418267
1.16599354494474
1.0688129814788
1.13673481761373
1.15023300583024
1.2901796405275
1.13367902511605
1.16007437667323
1.11026433514952
1.27545847923754
1.28669845183049
1.29628184673354
1.20574745519413
1.2333778048476
1.15654794487521
1.1257250968498
1.12006309291184
1.20761826874965
1.21706394016726
1.33073403273851
1.31827286036288
1.51864975574655
1.15715344171548
1.48535517981201
1.29090776896641
1.15300454362942
1.14692540854946
1.31047400847262
1.16168580673002
1.47183958095398
1.32135616161749
1.50133619478842
1.32856585023329
1.54732607818211
1.27238415013893
1.26190132008428
1.25694739621403
1.20196267488375
1.26760415724157
1.35536270513341
1.16610991241455
1.37612011179934
1.35476850982156
1.30094797845265
1.32378325639846
1.39665881811304
1.41083027435262
1.53906568431092
1.23472602076071
1.38954738397275
1.4434180381644
1.41955463485806
1.2850921099631
1.60746470975161
1.43577959364659
1.53431410372862
1.29255312871896
1.37497433936992
1.41934655112008
1.36472351609943
1.25522340509647
1.28559089810618
1.27293104268993
1.26913360134219
1.24370640496306
1.67696306808239
1.45647086940749
1.41716095510178
1.29950852526787
1.50235218683927
1.42511972985433
1.35247789952492
1.39096285196924
1.3514667613944
1.37047895290686
1.5278514069001
1.62940247381901
1.59064321853958
1.51626917375307
2.01751408610616
1.41741382296014
1.52669029624634
1.45845978787512
1.43816170563588
1.44339958300591
1.53407656127362
1.39816991457174
1.59101679354584
1.41670284347466
1.40655461324917
1.32681069092718
1.44401879907369
1.31430423374701
1.58685467442648
1.5175038986404
1.60993655652247
1.52509892715233
1.73221138511972
1.57202718987426
1.40735722869656
1.49152087629164
1.55301173681508
1.44831061972298
1.43635198097152
1.50665842542523
1.60254458149236
1.46222026414092
1.45481990539673
1.43062875305946
1.57527666884743
1.60529255816147
1.62857706367907
1.59548358731612
1.71168264070715
1.42365760269759
1.61587667736835
1.55785900608086
1.62812804910264
1.54477331501225
1.41147911722882
1.46700601123955
1.66618583861167
1.42471310694306
1.56105815273448
1.46729701519151
1.54996667644974
1.6299466991757
1.63070674439107
1.50379096726806
1.59707105009436
1.54311456037657
1.47487896022534
1.47891304974838
1.49118791055353
1.49233967644404
1.50903924327729
1.38807008749593
1.43796562285163
1.42124356119924
1.47934744627744
1.51410939788638
1.59357362296176
1.43037475955967
1.50283801643964
1.46617713629146
1.5070631439197
1.44930253870071
1.43471905828819
1.55576906237652
1.52871486616642
1.51429146301374
1.44960704893939
1.44186898736133
1.60074665444505
1.50556635045781
1.52308905729695
1.45424306997567
1.50284676441006
1.40205625154468
1.42706071381101
1.57615556151155
1.53725772041258
1.50649238982418
1.59637819008338
1.39849930994254
1.46645306545724
1.67165469563034
1.52918109164469
1.61351769599105
1.52840329763051
1.44675589366036
1.51626425107099
1.50507290339193
1.52114253029248
1.4429860503637
1.42896438882267
1.40378300390965
1.48448764649883
1.38796608984721
1.45629558615518
1.65360671110855
1.46555267262117
1.42746917004179
1.64019018048985
1.41476041451327
1.35777943290142
1.46406012135306
1.51340812822094
1.64361794709513
1.470124975967
1.43740751949713
1.43914032228338
1.48164924679413
1.55272215840276
1.47592629319508
1.42759249486513
1.52950079749421
1.45742285129932
1.36215601256704
1.47066265491284
1.62160946263707
1.4560618223196
1.33195398225565
1.37786950454032
1.38787985461707
1.41460102130878
1.41746865513802
1.55126070441657
1.4445406493202
1.27933121531713
1.4522134109267
1.40644809882653
1.41727053784249
1.56288550521356
1.36875179998546
1.34521366955904
1.50734047877173
1.47063718238648
1.44592003865309
1.43472705517491
1.3004509524319
1.37343015918414
1.36087653145642
1.35279865583851
1.39729676242253
1.37451581096209
1.40319841045751
1.37606219414326
1.41305893779808
1.36552198241835
1.28345169517444
1.32780856422144
1.36035743700617
1.28344168560717
1.28264830422365
1.27431274157085
1.30574420471351
1.40037055480397
1.31985807656582
1.35291475443854
1.36514832412638
1.30559375295183
1.29474594057392
1.3195174295641
1.32137415659039
1.31228957467647
1.30613726369358
1.26171031752941
1.30664743505671
1.28955221520642
1.25088481655953
1.27166665107015
1.31181576281647
1.25199561576132
1.26777831041519
1.22705908106624
1.33298375604012
1.37790411462894
1.27895357956202
1.29388861018262
1.27459048918998
1.19292156719089
1.22920247319113
1.17744767261621
1.18807962789563
1.1947020577051
1.26206569360693
1.16615034437087
1.11915002163512
1.17035761925612
1.20408007016889
1.19647163959078
1.16476347666944
1.18275325209691
1.18513612768651
1.17148390808956
1.19155443749525
1.15019509954192
1.22059367635506
1.13411607906891
1.17308334546117
1.15906359877831
1.13279878777443
1.15460865239527
1.11393407114255
1.06142829700551
1.07848299566284
1.09020476408673
1.12554816646394
1.07214410823695
1.05939370372219
1.10035227952145
1.10825674663477
1.00702816252338
1.04505217439552
1.11090561448045
1.05964573642327
1.00817466817577
1.08439102354566
1.05636642112962
1.01528694921347
1.021121466508
1.05004126770584
1.03760803852793
1.01385513208363
1.00074682106974
0.99061756654437
0.969689157575418
0.977272562079977
0.96747022136639
1.00796222107809
0.975080585502281
0.985779887366403
0.967928580415099
1.00103910746821
0.972888256389163
1.00354213255724
0.942558927617478
0.955519360035049
0.957449601533937
0.958375905496632
0.971306008043104
0.955100315857594
0.941352571103408
0.939887937842199
0.917970577899247
0.916900921032641
0.894136009331776
0.919599278254694
0.905147530362889
0.893651438038463
0.876694128110282
0.89458457953263
0.882945501875285
0.885528552617185
0.881361930353119
0.8716326952256
0.837947940563651
0.872864748140123
0.859469055010519
0.86404988697793
0.836852322170964
0.840854664423037
0.824702268670061
0.828237785733172
0.844878665648327
0.846278752804582
0.811578913272061
0.818981232381715
0.803175874756779
0.81709427963717
0.804858113584502
0.813033638151347
0.778890378691614
0.800511138211681
0.790212231571185
0.789691477579761
0.764935135564129
0.806502211947114
0.757798675180497
0.777789360053041
0.768438030744061
0.771492543902489
0.745730017967358
0.777383598516999
0.744552926370029
0.74846232371829
0.733187287451126
0.759540092641747
0.741546308567719
0.757136262394531
0.716530525060116
0.739760745315715
0.734715584955928
0.7247887394849
0.701715116795417
0.727531681940549
0.71293986042807
0.717708506038301
0.693015175741423
0.716357800638728
0.711222888590809
0.721732482628997
0.694070465320443
0.702642608535123
0.666725831165043
0.689304768383488
0.688309526659065
0.68490521162645
0.669759995744288
0.677543805848591
0.651462131735184
0.659704862449957
0.659773519111275
0.665752991467927
0.636882761811358
0.652608658488863
0.642358329854508
0.640530224892217
0.622184004753088
0.654331588579292
0.637649835527095
0.645279657555692
0.634768518624145
0.624250128469212
0.612374933693416
0.620629033277913
0.615933177736743
0.61511205376631
0.594299713727677
0.613577902689794
0.601546258725987
0.597210521764357
0.595575867665102
0.602913209781337
0.590228266029258
0.591916931714527
0.582694179953487
0.576238803685317
0.572384146214646
0.584594688599914
0.559170216844704
0.582514755970388
0.56338703849169
0.564740744650519
0.547569115435086
0.559582717342956
0.556184143120698
0.566104989387688
0.547763473497892
0.547214505918683
0.539597092614081
0.551909650942277
0.541047717732273
0.540121265984756
0.544194970556833
0.538526669087415
0.520542899558161
0.538342506853765
0.520617541588379
0.53195704816918
0.518266603121902
0.527731364661617
0.507121490689184
0.517634365249921
0.517418035129141
0.519468577269812
0.486650174808747
0.512693127846433
0.508367798982118
0.515510191944968
0.486961256367735
0.498239094829583
0.482183263230353
0.494456862056907
0.48668139084531
0.495367773330643
0.484106120070092
0.487512942730166
0.479523486953341
0.494257742657087
0.479702478668673
0.487328569271488
0.477858266655348
0.489878217876573
0.475344750205521
0.487301022988232
0.474318270653222
0.481852649224751
0.465458973103249
0.480498540712229
0.453113358485314
0.480244500623264
0.464106276809211
0.468970335974482
0.46659245512721
0.474940544982814
0.477094134245795
0.474097422545529
0.460851026573245
0.470602645276055
0.475033267197662
0.480226465774247
0.465840771239197
0.484927823812586
0.479320538050202
0.480735587202476
0.460901780361547
0.482285877706211
0.47431961242896
0.491915737972456
0.474568439910975
0.487509403901235
0.485472860874699
0.488762122551841
0.480014623996933
0.495394669796076
0.491338556192486
0.503804099522011
0.489490975763779
0.506069149652517
0.495037489211959
0.499563511368708
0.492926816645524
0.514683879167271
0.503223541484538
0.528812563735209
0.502028325967745
0.51778021136564
0.503813540618942
0.521012398647467
0.517218420964201
0.538685462560711
0.518690832430709
0.527405086788893
0.529247136827323
0.534769972403751
0.528907866527732
0.539589009167334
0.540098776294566
0.556042181406912
0.553725821010425
0.564651705009142
0.550775013100774
0.573251226476752
0.554297515294812
0.574093336318507
0.568243157206563
0.570586453901144
0.574715367569685
0.600147735491356
0.589963415072506
0.600093771092871
0.597451295092193
0.606887623532742
0.593406055493764
0.620469112131373
0.620511422009237
0.614703100483658
0.610685085690626
0.638077287626296
0.611954438255839
0.638783194347679
0.623215751686353
0.644276819833901
0.620502186467339
0.650713345511192
0.624679729235555
0.643713149820022
0.622876036866718
0.677793481696081
0.627874934211318
0.648580560983851
0.628940793434029
0.668677866638802
0.612049829659824
0.642961086076281
0.627783325341862
0.648321065826339
0.620999709487727
0.640498336821033
0.6229174739369
0.635542850131416
0.618415457894848
0.638009370739699
0.628805293537893
0.625238895284152
0.61656233142273
0.638084931225512
0.617894361608716
0.634498762612069
0.638416917695445
0.63374454874577
0.626298061078672
0.646058707248459
0.629980673804428
0.644600706857902
0.621696796591487
0.636950712981804
0.61951875255814
0.639473357301095
0.625871673610081
0.662905146325483
0.627538827071182
0.656300036370621
0.632292110341242
0.630731687028421
0.6247801070811
0.647091986240811
0.623729730823378
0.640298573675958
0.617967543774223
0.637789195385039
0.612908216807534
0.651029639829557
0.609253783182082
0.64128727290073
0.623653137431386
0.628938253722258
0.617455050284323
0.637518117609946
0.625139063321783
0.650883284184018
0.607267917127735
0.633651113383836
0.60845750136113
0.629006231675111
0.607378379026039
0.607659166303294
0.592400751300686
0.610767270361702
0.587173909709934
0.614691253128482
0.571570296041377
0.600273052244729
0.575159693268211
0.592944619112674
0.564631977408462
0.571917970979613
0.562032045918888
0.562125846506832
0.57400469728605
0.554169376367946
0.557973922743893
0.569981960558104
0.539874751943693
0.560468314850732
0.527375650853091
0.545490704433019
0.523934493145245
0.53086199008907
0.518965629924916
0.527103607502551
0.50182240476988
0.52594884492542
0.496104456269562
0.504549420549988
0.488465912923762
0.508075314118624
0.489339763412219
0.497421548971524
0.474590186528556
0.502243167652147
0.463068335338623
0.482809200638933
0.474065708122157
0.482374216091342
0.463050968036946
0.477057929162069
0.45789566961905
0.473883660928035
0.452718951792551
0.465749251473992
0.455729863453673
0.462617743090226
0.434506098939509
0.461023878503405
0.440969752935073
0.450253001172185
0.432620698268117
0.442336356486164
0.435123757150123
0.44525339245754
0.42747843565365
0.451542437458877
0.418950406301151
0.430316902349857
0.418703708141033
0.431631894656393
0.413666428241177
0.427895145456405
0.417052803412757
0.424334114117758
0.409302763529897
0.435000459941421
0.409130015204774
0.414676722273277
0.393829815752892
0.420303887325346
0.395309750384835
0.41250772101959
0.402202711664024
0.402577923540052
0.392146772432955
0.409794103659678
0.384120631958813
0.400781914259775
0.38684935645916
0.400709937707082
0.391886263926701
0.388512521472823
0.380327654010252
0.398441130209879
0.381558492171237
0.394287155863293
0.377711797797963
0.388004779879725
0.374468090730335
0.389098287547322
0.378997659924784
0.384744078822168
0.379764631394304
0.386970047679999
0.367947988625956
0.384329333661896
0.370335377395745
0.372239416466208
0.368679199976748
0.368282896805372
0.363268329367641
0.369477472996381
0.365972644709218
0.372031743146314
0.361047379645055
0.372715563788326
0.357358765729098
0.3659313059977
0.356032823488409
0.357847162147437
0.357716590808044
0.360860043738769
0.357164218748921
0.361269672464553
0.348915485373682
0.367101821416454
0.346886227175974
0.354266956129876
0.349007586952969
0.357378541231055
0.342301993711181
0.353980861790461
0.351616538611281
0.349616528495207
0.348243208630349
0.350993333579462
0.340843872850457
0.352574453734355
0.334971066860421
0.350155692055072
0.336925321712794
0.350288464698816
0.342860019908674
0.345473190724292
0.336592319322494
0.339713262391283
0.333250211416075
0.352522194054379
0.330631259890911
0.34412471586462
0.338355635263476
0.344138833951124
0.330952277383184
0.335479331698016
0.327613445376416
0.337486635982667
0.327801864222471
0.340941386926362
0.33332153791442
0.33459716860542
0.330934403365707
0.335706485651133
0.324209481224578
0.342005705165357
0.32617256835331
0.336721054702052
0.320020778755566
0.335687997907411
0.323428423265931
0.335215639046572
0.325672006641878
0.334456011270538
0.320070280264652
0.335171678063296
0.321758750509847
0.334902093898729
0.319587363757158
0.33155779856023
0.314577376051752
0.331012770918308
0.318856475893412
0.325510538917995
0.32053041719288
0.328627401645718
0.317090904499936
0.326260883383406
0.307632290018844
0.320525916798324
0.31436653796557
0.315817967665031
0.307577999972145
0.322027937564842
0.307241447655982
0.314812137965314
0.307482623966913
0.312504225700993
0.308156219166049
0.318624422778357
0.303868259167693
0.310293763031931
0.308398369417904
0.313340327423621
0.301345304914533
0.310757642388777
0.294744501628045
0.31056591099284
0.303303325989603
0.309650633654382
0.298240282191568
0.308748266962499
0.295294792318111
0.303673413244986
0.297274095193179
0.299990095283467
0.295574509104691
0.295301838496042
0.29086389805694
0.299233667038029
0.295375005664295
0.302157193350769
0.283795224247524
0.296450335065853
0.288988156657797
0.295416444829338
0.285696174569298
0.297899779730171
0.284785445956662
0.293071252895303
0.284931178498691
0.284921717023203
0.284291983123921
0.285721371370149
0.27519794363076
0.290984782750238
0.277819161261573
0.281406983379908
0.275981885624753
0.282231877572215
0.2750118133078
0.280083318972107
0.26797538666885
0.280769484054291
0.274657761105831
0.277142520950638
0.276653363297535
0.270701382079312
0.264471375842101
0.272389972365785
0.270120871707697
0.270886981459395
0.264832735625665
0.269268458515498
0.254862329498496
0.268213187682341
0.255901217469327
0.262355039289305
0.249484742575494
0.270969339238074
0.257030126703692
0.261712478216616
0.244163430569575
0.254615787027521
0.252447482064623
0.261073504102744
0.2454771317511
0.257270544904796
0.247519153598564
0.249310999823345
0.250170087546384
0.250805065866091
0.237021672311735
0.249077547191652
0.236325431255155
0.249536281929428
0.240240532002349
0.250049068652079
0.244320853409136
0.248993614110512
0.238010789863266
0.243975780790934
0.238136179513478
0.23953694079885
0.233980088587639
0.236381636170393
0.228040571685422
0.236290391761001
0.237837192115087
0.236598138146427
0.228489270412999
0.237255466044771
0.227134758334406
0.233465620089584
0.229250532662747
0.233854850714032
0.225195014750451
0.231681396588791
0.224017407954611
0.227298148375059
0.225408869276483
0.232287030364005
0.22244199724733
0.222913807817369
0.221956442119846
0.227077722357705
0.218382835871801
0.227115859825531
0.219803686572142
0.224578775090062
0.216659870565548
0.222702394097851
0.215216472617911
0.217898757519286
0.209909121970216
0.218593810780175
0.207590852317405
0.214029053910819
0.209302582511807
0.217829714492905
0.213432317198834
0.215763004424741
0.208574162466261
0.213567828270399
0.207779496030153
0.215578909684614
0.210310110818582
0.212444008061114
0.208658026825924
0.212153158162469
0.205648637105112
0.20978722700305
0.20615395185632
0.210968637454829
0.205506277736099
0.208929330005839
0.200717121127995
0.209707371462556
0.201551218924307
0.207905916402978
0.203386775600289
0.208015018198062
0.205521459373933
0.210756462018536
0.197546090436337
0.203830537513564
0.195818741946748
0.202352221879895
0.198094690119191
0.200415760492133
0.197200546664387
0.201186114809254
0.194759051521865
0.200023603510529
0.197915200847065
0.202217496752205
0.199574354710588
0.200036853560415
0.19480291982039
0.197606861291611
0.19275114071111
0.201621880126102
0.191413999329694
0.197832905055068
0.190963043806798
0.195483472580286
0.192662278610707
0.195956680000974
0.184413393487244
0.193396561128044
0.187681523255732
0.193326737265355
0.187361044980184
0.194065985394513
0.185687619354828
0.187059873774012
0.183169669072103
0.18883195493825
0.189916112573667
0.193117620969338
0.183184996366395
0.189652813425665
0.179185730082439
0.18540346344056
0.18515202798184
0.18913650660388
0.181500476286529
0.183489902594081
0.177631394053181
0.184256984285623
0.185775636967361
0.180397933470307
0.175551464329649
0.182715241699658
0.176537173499372
0.185622259412566
0.180150669448852
0.175231984748653
0.178014125990037
0.180691812721384
0.175046370555476
0.182825214563298
0.179620226514049
0.182198485607182
0.176500571125652
0.179496808994606
0.171690930099521
0.181948483541236
0.174289592077678
0.178711845038279
0.173123127154044
0.176304981149844
0.172998115600391
0.177829788685593
0.171330480331573
0.175202649823182
0.171630850700152
0.175509994261461
0.17426027932654
0.174400873370641
0.17129758973371
0.171621236180951
0.169021116885145
0.170095598398381
0.168374883991501
0.171600950844056
0.164844683628406
0.169152385656906
0.163296191555615
0.166134092551997
0.158914367582725
0.165826970822337
0.161043941997014
0.16265826106212
0.160141529273166
0.162777248907385
0.160562520789552
0.163003883434148
0.155354017728855
0.164206648394011
0.157561301158029
0.16067715360984
0.156505203838308
0.159861441993785
0.155021416717285
0.158001489720888
0.156295153585579
0.159857022889384
0.153858552755821
0.153075855941385
0.153875481185218
0.153145903285294
0.151854564058855
0.152035574596289
0.145380917351178
0.151440739562027
0.148898463243069
0.14938063513435
0.145704304318887
0.148884386438131
0.149054823080842
0.151109002353489
0.143430606598411
0.147425464827569
0.142294554196452
0.14298787507675
0.141229059666567
0.143149001042758
0.142968925345073
0.144646143667915
0.139017671501588
0.141063103891386
0.138564347405751
0.139625783940634
0.135857357206224
0.139572386233848
0.141900370285223
0.143674436692668
0.140537050356484
0.140323136085383
0.134899034577617
0.135595608768519
0.134254802573896
0.135336933683565
0.130096021817256
0.136542558204893
0.13170720715487
0.137015873020537
0.130574655397574
0.1328614436214
0.131552750649547
0.129368615674811
0.128695061944179
0.131967954239562
0.128854675958844
0.129495252949453
0.123872159390792
0.128119443313526
0.124914860060376
0.127367412207936
0.127036152306166
0.12613119506105
0.124603077741237
0.124376408706494
0.120653848479198
0.122191417933084
0.121728891693274
0.121343590011984
0.120761186334337
0.122947451219155
0.121790977697431
0.123650740838647
0.120710142114447
0.120579779442367
0.119461693725803
0.118915791846131
0.117844429811201
0.119435852540005
0.114881703654295
0.116244092951115
0.115847245018987
0.115127370672158
0.113758477342628
0.12164649302951
0.116916625038078
0.115579187442403
0.118856358868749
0.11760228645741
0.116508451016407
0.119188969059111
0.115261135105325
0.114103781129271
0.114318951987629
0.118758986834756
0.116744821371745
0.116621315878264
0.115382059105302
0.112339172131238
0.117998138533961
0.117144357424782
0.114077163615499
0.114722052394914
0.111087412780595
0.113602293218785
0.111571698280716
0.113084091938369
0.106178477235378
0.109792053197018
0.114707410675609
0.11819219704448
0.120628884990899
0.116733034005973
0.115602025411345
0.108685752526402
0.114342810682193
0.123117216147967
0.114223904062115
0.109610568712775
0.114615342527663
0.11622572082624
0.11613993403522
0.117418550530367
0.111358229666911
0.119167995684916
0.117567217652236
0.115651669637995
0.114653941857525
0.109943377480625
0.119136521561278
0.108523154197479
0.112532496791414
0.112003072564658
0.111112024100461
0.102637829696806
0.114396290630912
0.108401085294019
0.110212409489026
0.109456875044652
0.116400702971533
0.101226157833149
0.11973915202406
0.109802446237676
0.122003494512437
0.0968055683278365
0.123327557222382
0.0967027937277778
0.123472258833766
0.102381620393554
0.12958881342436
0.0992279592395011
0.124376883226579
0.0885550457310011
0.126751162223329
0.0892611460778306
0.134078049730758
0.0889645376780994
0.12368785114767
0.078741261807181
0.133937512907701
0.090242962686651
0.124095171678528
0.0766866062128859
0.129647083970238
0.0898352842068235
0.111043974946446
0.095243549286618
0.10833944430299
0.106383068007557
0.0956777531933578
0.112079399870958
0.0896786212128243
0.114697946355996
0.0879572187051062
0.117268770631912
0.0886664635746712
0.111793458949742
0.0931750278687501
0.105452196386558
0.0959211313416407
0.100544769079553
0.0978821196195753
0.0985111874677871
0.0957416880241472
0.0963565393601315
0.0963974116890591
0.0994862528336783
0.0941669534667667
0.100478094704725
0.0928311506563007
0.0979578533357868
0.0943234572504388
0.101924233380501
0.0936318549000541
0.0981570100494676
0.0956136710656047
0.0972036726826032
0.094328131701988
0.0958934829262094
0.094361370689773
0.0976546999703438
0.0936878113021319
0.0977623191619888
0.0930429530845174
0.0982970346014484
0.0916691368050691
0.098008500285069
0.0926551925130643
0.0958951689133574
0.0918316251459492
0.0964691817108551
0.095857383877518
0.0945921552111949
0.0922480765935299
0.0976310817038401
0.096811183119576
0.0985157275757166
0.0924736081425542
0.0972552795219283
0.0978480857274561
0.100230384046317
0.0919177216871276
0.0937948475830947
0.0929030304033036
0.0966175619339096
0.0917955649989315
0.0965367097749566
0.0935912940674691
0.0959137135605883
0.095540060247153
0.0931640173400019
0.0923422008084919
0.0951942601058808
0.0956411176948847
0.0978033248379851
0.0941007617456584
0.0943592754317023
0.0922743230449516
0.0962205247869536
0.0913255390136902
0.0957212122276152
0.0945244051273559
0.0956687429857706
0.0902988463552829
0.0929056207541676
0.0937965557660525
0.0947135511431961
0.0919050987607962
0.0962985191515956
0.0958717122799837
0.0967443456916039
0.0914963789319676
0.0958414331410745
0.0937874310080331
0.0964293543262726
0.0906868508314468
0.0927920920377932
0.0948904392397277
0.101675700605448
0.0956406295060268
0.0971217330539808
0.0946324074983026
0.0991015894250669
0.0934096384619395
0.096034040701716
0.0965956635542684
0.09562402067071
0.0980346589481708
0.0995519569515901
0.0926188387757374
0.0977096772200272
0.095606142543552
0.0967188837391073
0.0969644693661526
0.0991457630161172
0.0969143864529023
0.0972632938140531
0.0946095029708836
0.0972590518288378
0.0964661336089351
0.0984713324931655
0.0966702651854376
0.0994921386151763
0.0965033123727145
0.10088082133332
0.10005534002011
0.100301567147467
0.098134108097497
0.100993571709679
0.0972926078104732
0.0984123710997497
0.0988942983426789
0.10030699090401
0.0999743220920469
0.0987037240392217
0.0963475811539203
0.100810399444457
0.0978730421678023
0.0995714390809565
0.100550789608203
0.103806046806438
0.0998431323175823
0.0985599688664653
0.0991809364653825
0.10106691948004
0.101089590456238
0.099800330761708
0.0992064035403353
0.105116701321161
0.100828142779541
0.0993515628192862
0.0967460180680622
0.101262529610696
0.101331107612166
0.102556297860113
0.1014148224923
0.099951795471749
0.104202565338024
0.103314612329668
0.102945415381538
0.102586751150094
0.101292752865904
0.102882971133416
0.10180245430476
0.102042784515575
0.103513214655227
0.102686186689951
0.103553428948471
0.104691623118052
0.104669366899864
0.104446160483701
0.104240832124663
0.105215044471919
0.104321992305945
0.106488167291361
0.104375596459367
0.105809628421326
0.10575649288514
0.105186851564402
0.102956531815261
0.106141064962074
0.106480838081491
0.106521620014892
0.101630555808052
0.103839199283727
0.104057567593069
0.104921095779683
0.101948402647203
0.103837983873664
0.103540208714737
0.106388043306822
0.105062101469816
0.10518127110924
0.101994384987369
0.102662631762134
0.101036897086592
0.104095479928535
0.105084985933344
0.102307862517907
0.104169138322644
0.105615453183759
0.10098924077187
0.101796568413062
0.101284634720216
0.10165477928325
0.100991047636105
0.101213471120797
0.100980161474056
0.102231024655512
0.100026860013725
0.100955584904597
0.102544258444146
0.101008993545151
0.0997283292481981
0.102681089404748
0.0980675170245086
0.101862138163755
0.101015741707826
0.100920596623027
0.101638123912195
0.0993491499140081
0.100485755168068
0.0994917532302125
0.0996427560918556
0.0994824722260381
0.0982540110200879
0.100759819239904
0.0971818082707836
0.0973036828888333
0.0998233236138802
0.0973459440870189
0.0973201498997245
0.10158688377294
0.101699494544092
0.0988951983934031
0.0977338186894633
0.0975973869107672
0.0975300642856606
0.0959007839313637
0.0960811311157492
0.098370637949462
0.100551231773884
0.0976140641273574
0.102138042110692
0.100310846789915
0.097006441627776
0.09756426869418
0.0956371235374786
0.0986065276565125
0.0964368292895292
0.0950785398483364
0.0968852586318423
0.0969364680941939
0.0970873048468918
0.0969200719495707
0.0992979483992623
0.0963670000591094
0.0977939963174474
0.096088895377144
0.0933936675021689
0.0968023313771629
0.0953902384665512
0.097330712842855
0.0974090035147263
0.0989277580584073
0.0968989822788287
0.0967669127646418
0.0986459816377439
0.0991950289445195
0.0969240051944066
0.0936023531686404
0.0945952974909953
0.0982690422639724
0.0966946270388229
0.0947891317917042
0.096100798118341
0.0939408748679082
0.0997414841068832
0.0970347851490976
0.0982192188176846
0.0970570588770016
0.0952193295423291
0.0941247962316772
0.0940982774089755
0.0967775128794885
0.095109247477972
0.0903776467124881
0.0947558851431785
0.0953249792108066
0.0963012474080358
0.0966376002927468
0.0989764860096071
0.0950370854194016
0.0954754770342189
0.0963289065866096
0.0937763156489956
0.0931667831548124
0.0936727765857915
0.0939377787991403
0.0933886707814901
0.0923263723301857
0.0910450927365709
0.0965321505384021
0.0939722714496343
0.0929010511662204
0.0957458402590303
0.0939880569737154
0.0918982600008864
0.0930977899443797
0.0898970540260483
0.0904800427614661
0.0926690437993442
0.0937675649191027
0.088636642295914
0.088802082372258
0.091503906719457
0.0902733508696234
0.0893978259361811
0.0882189120408256
0.0888196038536464
0.0881594713945239
0.0880998018142315
0.0884787721891029
0.087049290640593
0.0859144236915852
0.0856893381808943
0.0876893307909558
0.0856347483586304
0.0880739469422494
0.0931251171647653
0.0888507873090322
0.0873696518083976
0.0821338011953394
0.0865939881157317
0.082286327009157
0.0854378274708723
0.0851545905887784
0.0881949707263049
0.0804543142011256
0.0858641830338848
0.0841445427735026
0.0850212176546194
0.0824265931247318
0.081589606176352
0.083054106274
0.0826901733126139
0.0810781753729087
0.0813821532701586
0.0827027872791903
0.0844376098667709
0.0793104892067431
0.0829351946163099
0.0784320917378512
0.0818373441105903
0.0785555618672737
0.0816234049948259
0.0801714215705985
0.0814030675562128
0.0786249653863246
0.0816051109045958
0.0818937362364651
0.0792763551224552
0.0769904126347976
0.0754792939070516
0.0790592167361799
0.0801551136733349
0.0773828957819492
0.0800824543412423
0.078343909217324
0.075912440904551
0.0789958486122766
0.0792899460551664
0.0776222316716574
0.0795320923775237
0.0747372748930368
0.0755799817176479
0.0758078633065555
0.077486240241219
0.0746565886620555
0.0792258950533824
0.0741013747732361
0.0756347991157013
0.0818077584071908
0.0803666364526061
0.0771277684086122
0.0755157141951091
0.0778967780629288
0.0765340322349811
0.0788991896196838
0.0778315140679766
0.0769708367080899
0.0751827723704977
0.076251367062394
0.0736219100041434
0.0735506085302031
0.073931177725147
0.0742429899972832
0.074535171827389
0.0749767272910855
0.0740740953363953
0.0761174187500827
0.0716518955378992
0.0764847690890712
0.0742301176585077
0.0781292080598688
0.0662641674344696
0.0803350773611863
0.0659039463132515
0.0727556027090591
0.0828467123640448
0.0752490325099599
0.0763399494959104
0.0711435311514022
0.0768353880899709
0.0692575162482422
0.0744308494395102
0.0694876716148652
0.0734402671333369
0.0717718184743703
0.0732488250850234
0.0662952426270338
0.0703390174167483
0.0699338662585049
0.0733287987853066
0.0710293956478889
0.0729780517551096
0.0705833843796439
0.0750533113835997
0.0662331668891683
0.0733800631008448
0.079748241221965
0.0748157551726736
0.0747445821864787
0.0743128320933505
0.0557740175085511
0.0912669530581247
0.0732410808133844
0.0800728308475346
0.0660317322139984
0.0753000884228697
0.0665694672168817
0.0768695685546956
0.0662613550020089
0.0746207752915919
0.073613235907814
0.0705639769795313
0.0741863412375378
0.0691584296630563
0.0693197074579878
0.0690081125467307
0.0666398423467587
0.0729507291815075
0.0710561625882824
0.0726207749102246
0.0696918312770568
0.0737242356739935
0.0678823650347103
0.075881974380738
0.063309936831791
0.0702697316309451
0.0732749731683539
0.0749368795310376
0.0686559009501219
0.0777325390531883
0.0630347635216151
0.0719333127304257
0.0841302382782046
0.0708540579373288
0.0746043170402162
0.0681776019959964
0.0743315052802825
0.0714390450809986
0.0733267995660972
0.0692148307569313
0.0722496728993558
0.0702202454704984
0.070536551282126
0.0703116958958804
0.0708953057083027
0.071775476857072
0.0716129733388277
0.071460713091234
0.0708783071351931
0.0732744009762734
0.0678711714948813
0.0773086491555548
0.061196527676036
0.0772055871977869
0.0816140187385825
0.080062203875503
0.0762513541640018
0.0762478831635613
0.0705308832589093
0.0720502340190921
0.0712174463531601
0.0682220349513949
0.0724668372702978
0.0711469090959449
0.0715244727437592
0.0713708860713767
0.0733957703353685
0.0696475873349625
0.0745271762109941
0.0665787158976075
0.0724247832829405
0.0679748516362765
0.0727493052743714
0.064337071464595
0.0763946615490683
0.0621108142612191
0.0850883057806401
0.068459365625252
0.0832807747046198
0.042675001706921
0.100693181830796
0.0870152601986264
0.0730611790816111
0.0808988726476398
0.0709474818738051
0.0781961103803566
0.0690059206035303
0.0725527503336081
0.0758772326418077
0.0762390220657415
0.0700141501950318
0.0730013722808307
0.0747834577816905
0.079492974118489
0.063186486445234
0.0642706399242359
0.0938247650747274
0.0738403185024091
0.0823885001252763
0.0690008008532661
0.0663101782289423
0.0968878631883547
0.0710866716013788
0.0847866840640228
0.0719660461224232
0.0781269634646173
0.0729225959848335
0.0817647543403889
0.0707780956008487
0.081280388489884
0.0764428505761127
0.0723326456922806
0.0761198411863218
0.072567597351331
0.0803320357241295
0.0718296989632608
0.0799910299702481
0.0886984135865181
0.0748810943560685
0.0857012555990052
0.0798576056676907
0.0798168381869332
0.0782100506843568
0.0822824000477246
0.0705596312633594
0.082035045553434
0.0901422711273348
0.072137116285614
0.0838668951443115
0.0892543823026397
0.0770424410025134
0.0840535717531828
0.0777990641415092
0.0951860272413137
0.0697897283860661
0.0795526685897705
0.0992011733635863
0.0760628413356488
0.105709565862074
0.0705771777338877
0.0945141061020489
0.0723012848806183
0.0974222004975057
0.0603121165355116
0.10323688044194
0.0743063869347004
0.0997152476652124
0.0744952601244517
0.0931227768533579
0.0886663647367932
0.0931494286684286
0.0901009121228204
0.0874208306021967
0.0766814754234627
0.0962095774293706
0.0910274267894475
0.0636727833436001
0.115405289548859
0.0932692327728182
0.108954779851884
0.0978116404622296
0.068285908413465
0.130690610234342
0.0893707305512822
0.101831816629284
0.0860685718649923
0.099199836743398
0.0903835504920815
0.0748777957445507
0.118406148471543
0.0982431550961001
0.0925095584184366
0.106004377479695
0.0732901441534467
0.112809952806266
0.102561193603265
0.107067689962749
0.0920176524110488
0.113966279899336
0.0713967709168459
0.139248602236086
0.106301704486282
0.100344364693372
0.126652254985449
0.105116158840517
0.122432618039117
0.108020860878857
0.114115552653366
0.102249542767252
0.126753810732064
0.116123232588617
0.107135691333841
0.112183938785479
0.151346530919045
0.104444408312141
0.136206934470257
0.111902141740972
0.107919771732299
0.11466324871378
0.168066269565887
0.147376862813158
0.141755768890004
0.112006932995334
0.154730524475056
0.128075717462408
0.139036720072119
0.13216679661894
0.137010571737608
0.138055700673505
0.136124117655553
0.152586293834362
0.140539920417072
0.145239297180947
0.149763184763898
0.1297591270214
0.155027798706794
0.159019073167916
0.198145571680118
0.1338800549273
0.196839298568727
0.163633231351499
0.168414588676227
0.161642801893115
0.161028232048436
0.166175662336047
0.167564332677247
0.168670194684214
0.154465773759125
0.185786489188892
0.184486404258668
0.159646069895743
0.213187047205222
0.167415375967264
0.20312946277621
0.0858351993788081
0.384837772379174
0.195852552759682
0.222508531871591
0.197226672268184
0.180045441046142
0.281280937841502
0.230343340907404
0.229874307318258
0.245955885556059
0.23510350084209
0.246568775818973
0.263906325969019
0.260921812579738
0.274107076963839
0.285335275376975
0.264751273875255
0.27191728680503
0.324427500604743
0.332814326749098
0.337502021548477
0.31158106909475
0.33657961170044
0.354896514145058
0.330707428854188
0.35303137625281
0.358316360626253
0.321948073139303
0.450953207172252
0.376858571166591
0.404570849369442
0.377103963990965
0.455941833464639
0.37769966076293
0.465815586992684
0.456538145362667
0.445430364219248
0.46507380821781
0.445388584859409
0.486993540200516
0.437022910179428
0.513931356379837
0.498076530069728
0.499815639204389
0.506933865093759
0.503838051999814
0.514584018248917
0.516017204048538
0.537485956371704
0.512803042441011
0.568980920061072
0.505237335006297
0.681995532410614
0.59108306553202
0.528015193302722
0.571809658519354
0.516407982273256
0.602643817567521
0.545689235310099
0.588294194963087
0.595380613395622
0.54622226068695
0.564306395892259
0.56524785227822
0.577894003462403
0.566722814128897
0.59180900400864
0.549894476306226
0.593408586763608
0.566909124659707
0.504755828063729
0.676279279891115
0.558103633156197
0.585085602138355
0.570185844887998
0.574090762005317
0.551863041786114
0.569290461583257
0.530799311138089
0.590242630037875
0.535687623063412
0.581209248008027
0.531196145279538
0.557008562679624
0.570931757856946
0.544071067085263
0.545288753866113
0.541859191131305
0.533956979138262
0.519398319835466
0.477179207605136
0.615085069285485
0.509982822662701
0.52849793691497
0.51305654785954
0.52009550815195
0.511973206345314
0.508126320780803
0.501626789075629
0.518386545857836
0.491539965506711
0.512527752366015
0.491802581876364
0.508745189409192
0.49318149009133
0.50652087331266
0.495141983666239
0.49603672478202
0.497447586051599
0.50041770636119
0.493290845969088
0.493929582841857
0.490209789580389
0.503087544307512
0.489093413964411
0.501898978937648
0.488063484397813
0.491814935260892
0.491638898757742
0.487013478455531
0.483394943156461
0.488719028509804
0.481610442819884
0.484828004649604
0.483247521602869
0.481085431302731
0.479621735042901
0.487379470281631
0.478627242267401
0.471356345618545
0.473004907515564
0.469315844866279
0.474142275090973
0.445089431171273
0.509373232844579
0.507171212687339
0.452699115932366
0.481485789457462
0.438009792014903
0.468147364325847
0.417144690483764
0.469426812970145
0.470055826858491
0.445049492185607
0.441801956713076
0.432181520059161
0.431172084217311
0.45588344921439
0.416209087256284
0.439729416278533
0.395541493978773
0.419302412107317
0.494022776160092
0.355998661701154
0.523398910627438
0.422942196530548
0.408917131116718
0.365596087912159
0.4586822188291
0.38766689119238
0.404379229863678
0.3881268373023
0.395475286594115
0.414326006705298
0.379932912342646
0.39695630779806
0.37766145596856
0.377081678287894
0.413208563405127
0.380928869761143
0.353912821625159
0.427025494391436
0.369975224387924
0.382873971458718
0.401873572374211
0.398897497138647
0.362782628381154
0.359220136968083
0.364188974080728
0.331807682959553
0.391418935453361
0.361761516279211
0.344792285597225
0.355109263014133
0.332226409729231
0.349531256337287
0.330110230436362
0.362768639909166
0.288913129342206
0.369653534794119
0.319738861352135
0.318053817973879
0.336204179469325
0.316131386368141
0.374280467404026
0.330291077685879
0.313224705446781
0.302202807740963
0.362693508593859
0.312406026709435
0.333887992964921
0.318720315796319
0.286786501909615
0.333441848948448
0.304359300223294
0.295063291306016
0.323531289609603
0.291189529001439
0.33216867813029
0.322437476714584
0.335537172244669
0.314475953776772
0.287294830683014
0.300535636900193
0.29095532192779
0.300500102949128
0.28940475167086
0.269798864247024
0.33231026933726
0.252382521730889
0.333506898427868
0.309581304228591
0.299310401405159
0.307152752519899
0.305963291027416
0.303176362273783
0.332693858462083
0.337071859200125
0.343862417026359
0.300616926374897
0.354073342731393
0.321227669959331
0.340215736364388
0.334467560182557
0.347506157399363
0.333466733569418
0.358925012228733
0.364178952081944
0.366850473876907
0.365674534584065
0.385932867112392
0.355664581829928
0.440514575518118
0.377512614264298
0.409803961855709
0.424690998265388
0.424237403335013
0.461959060953111
0.429682610368626
0.455260994749617
0.445438464274263
0.461230238586938
0.468473749942165
0.451176615695833
0.509974380079485
0.481249076206751
0.493576767278171
0.492668146173995
0.495248430491636
0.503673903159624
0.51273357654995
0.530825336746849
0.495626196274104
0.595501356706081
0.512442427173532
0.546858981492779
0.530317148687599
0.540258914289373
0.543403003943343
0.533130271342677
0.542250578004455
0.516460841432679
0.561240784398982
0.568294510176386
0.550072242895733
0.574407832163686
0.560216881315774
0.567066607970116
0.568759842367304
0.567644311613907
0.570690644351867
0.575795212753273
0.59352424977831
0.539489562910036
0.616810393370696
0.638946608114901
0.588550934447143
0.618313118563626
0.607209182698436
0.633144765925962
0.606204374928326
0.624839728749507
0.639478386672703
0.635545813245616
0.634370017586993
0.633044306400513
0.656438467196366
0.644736725402946
0.67256117813007
0.667201816184534
0.645128191393417
0.664929879453405
0.603429343993727
0.759421752015091
0.669213917339291
0.7027889500761
0.68294596149397
0.678490376983726
0.68415214709393
0.698489265351342
0.68869680446141
0.706563202838506
0.693274370828952
0.692427235405106
0.685283693531672
0.685326498912586
0.699118218992262
0.672536292075606
0.701313323408947
0.711663412610439
0.685597225412052
0.698206765460051
0.688584674058355
0.691441118630838
0.698197848373098
0.733089404703152
0.692069150366326
0.704406973786936
0.691806065006666
0.719580787889899
0.715539776125373
0.699045583288437
0.692178882824942
0.70345847687743
0.685282533283525
0.710685087411212
0.679779147325512
0.737933489891126
0.726898759119089
0.719721617346303
0.706080011200138
0.715853521765745
0.707178950578205
0.721685519987374
0.722626580541063
0.732945516651398
0.730682693973532
0.734679277472206
0.740251535416752
0.73429839050475
0.742262822060666
0.739337408700883
0.748518138881489
0.746388141080513
0.727380234392918
0.736820052579417
0.720305318387125
0.728930021701168
0.729911034082836
0.724349048547765
0.694082818146635
0.70546626516888
0.692964418912112
0.708100234145133
0.710136848249871
0.688089877453164
0.699660706189277
0.664945711393311
0.680919203401992
0.670656463804648
0.669610511694731
0.669660873345881
0.665894261339631
0.654851213372094
0.653205535238252
0.648808495912424
0.644902876631224
0.643671345063331
0.64644899489102
0.644749614310309
0.639402908867016
0.64455300826242
0.638816939942418
0.64450822444583
0.632153859222042
0.633848580201111
0.640225137692033
0.633951896975776
0.643569488609533
0.629846061094371
0.644277465905615
0.633424276180578
0.636895650263886
0.621732980842041
0.639611290549899
0.636063781463
0.630775365722934
0.632858355129075
0.630715518965579
0.633623855499572
0.629780339116258
0.637288493477598
0.630778279434414
0.636887349791003
0.62892057783884
0.62172583929221
0.63017288306365
0.631130353623257
0.618429039579785
0.629137610881071
0.635409443664973
0.625589882657792
0.627033900191789
0.634292996908602
0.622448300168173
0.629918162439973
0.635162234862523
0.630991158525814
0.630973356868925
0.632522539020654
0.625956080319926
0.624695655190266
0.622984863931553
0.620278430207532
0.628903525711045
0.63178578600935
0.623234366165486
0.622282157595283
0.616933791978227
0.6135394973115
0.612660116223304
0.614527187379067
0.600428487747081
0.598449358267181
0.594513942656496
0.595988616649702
0.584459386635197
0.575249672945001
0.573998361395207
0.57620372103566
0.569524132501381
0.56489605779673
0.557637563943724
0.556139360821134
0.556267180851603
0.552077273490361
0.551175228633232
0.551465704587756
0.554200318799419
0.553567948548508
0.551498998403724
0.549199495380203
0.541490985773822
0.545500178743996
0.548157497617268
0.55136382082121
0.546820711170742
0.552874460161869
0.553501729509876
0.550891568709879
0.556821191733627
0.556652218772642
0.563761745653517
0.559383330415059
0.558005093482269
0.565138314580526
0.567045527881245
0.566105661440411
0.572961354663249
0.578493686340473
0.573774875180648
0.572298828310948
0.57570217629476
0.578582842718147
0.581079539709829
0.581291875989725
0.579344125184465
0.582948357126743
0.578618773656736
0.576884921739984
0.576807422955642
0.579311090779258
0.574786366422087
0.576221955100569
0.578385732307262
0.578338083543572
0.578701456857749
0.570407685450216
0.574753852549634
0.573088346444162
0.563084201541836
0.563473057584832
0.568845349616085
0.561769743962591
0.561665481184995
0.562622315857174
0.557925241701231
0.556019216826993
0.556303875614959
0.550407918259962
0.5552067556587
0.548193615422537
0.544875329439136
0.543815308465531
0.539688157133375
0.537044096194946
0.538831022024553
0.545797053007399
0.539233697353452
0.535282925829234
0.539490577610216
0.537721456404586
0.532732464950277
0.533972486218745
0.527708267545484
0.529388309583941
0.52767546540146
0.523971972695989
0.517576595795668
0.515027245316956
0.512856715481122
0.508300465001913
0.504680726307422
0.501708357624859
0.497424975863245
0.49625669059402
0.490047138693351
0.489821144287807
0.486128124385296
0.480724514547305
0.479614198245238
0.475475608609179
0.474694620423851
0.477178582551348
0.476212393259452
0.475315148829621
0.473596253032022
0.471783685143065
0.466983267240023
0.468111949331291
0.465759558543242
0.465369123134892
0.457795138170425
0.453815080501947
0.450608161227861
0.448193555890241
0.44337134474868
0.433761123636288
0.427282771586021
0.425872911950899
0.420364577057584
0.414918186357456
0.414667789038263
0.413393354347891
0.411347407776458
0.416634521758686
0.415817456149088
0.424212511809047
0.433100855741958
0.440427161857882
0.452763655609491
0.462614400650659
0.482463922385339
0.492278584198682
0.509930484260726
0.527798414785115
0.55069309252314
0.567204922595387
0.585972692760075
0.600778175890395
0.615904848968599
0.645062650344468
0.660168790192209
0.675262592983229
0.691077519626804
0.712976270039445
0.727869704711716
0.745714275329443
0.765081835839561
0.780844732032767
0.783513354836308
0.804648732946364
0.819630141845279
0.830682616920458
0.846318632636358
0.851715359569216
0.862664130816555
0.88016123140888
0.876967468263031
0.889631278314238
0.884255448904975
0.892594511701077
0.900078251244769
0.904834019097537
0.89275431526592
0.90704569101722
0.903612200645886
0.902993670848575
0.915037457804781
0.920766989220985
0.910204287557854
0.908710865406227
0.923449409674368
0.921582319540988
0.918195295353852
0.925844627563387
0.939750336592038
0.942986242876936
0.953943239879555
0.942375060049565
0.958804780211319
0.962628456289003
0.96673082627018
0.988587453109958
0.997248827607061
0.997739405636981
1.00509423079938
1.02062470618162
1.01595922667835
1.0490679981085
1.06560451374683
1.06927179037795
1.0848293239552
1.09937510855556
1.09918193063293
1.11637830465865
1.12767036996558
1.15549324539212
1.14582392506742
1.15176032239802
1.14568117503968
1.13702151394938
1.14955870799717
1.13970365489962
1.1285587930352
1.1565595702724
1.12493761523448
1.1376940935128
1.12166614716417
1.13936067747544
1.13421472412816
1.16033858054423
1.14675046309962
1.18188034950686
1.18396905655328
1.19151542302838
1.1797348643494
1.24491818025673
1.26185031849521
1.24285662077458
1.28853252640497
1.30317509470477
1.31800379060747
1.32313946585483
1.33331041898715
1.4018175559747
1.3778165817603
1.39054576061025
1.38784929438093
1.43438945460625
1.41652344058737
1.47410881855092
1.51952826862488
1.50486516401751
1.50411079307816
1.57002402861722
1.62909551686792
1.66487940817038
1.63066732573287
1.61312544723613
1.7046137180451
1.78922075634874
1.72308119533942
1.6767209550876
1.68899798839434
1.77212542285277
1.75960459070353
1.83582207033047
1.81981811253958
1.91061973326554
1.79371469971453
1.84217498170863
2.01293191068102
1.87900269974302
1.85033240983935
1.88099728608662
1.77489933262408
1.86388088259069
1.79437386436751
1.81559056924834
1.82878767713424
1.87211874315061
1.84463941250195
2.00183852742962
1.91899555454982
1.96641167062169
1.95017823926358
1.97008437510714
2.00645838837996
2.04051218811643
1.91372656233933
2.21266186548585
2.03449071417919
2.04988912085548
2.09774646464567
1.99224923381366
1.98979155736482
2.0361368075873
1.96622060361023
2.07652517293935
2.03817329043526
2.18890712600975
2.28108327956561
2.50860002094134
2.12570053802315
2.19208485475295
2.21553398746466
2.39133317630308
2.1146101519201
2.13133870118723
2.21669160857036
2.26959018703184
2.1520794751013
2.18491817600477
2.4678398268939
2.32216975984727
2.1241327677365
2.44654163539568
2.1354151660109
2.1306797533042
2.26330010435649
2.32135250309612
2.32537573306636
2.90829128045654
2.20449640190755
2.44471238685111
2.0179894391696
2.46362303224436
2.60824236136174
2.25124678352424
1.94115542694333
2.24360046954258
2.10365818390959
1.86906328519019
1.88879086369687
1.95895074233354
1.80265875043166
1.97313377227036
1.80925882500813
1.82445632612621
1.70441071470775
1.77476373381137
1.63914824957309
1.63470660571139
1.59957849935388
1.7303894326666
1.58551805854189
1.69113030930298
1.6588250788372
1.59924311230177
1.56191895897517
1.57039461590188
1.5844391826018
1.5933888028125
1.53603259460604
1.51532370078732
1.51023157444107
1.48680994975909
1.4658841181633
1.48890679327468
1.38403223039491
1.40501167468605
1.36371814260272
1.36236949163414
1.26775288553848
1.27193146402032
1.22677979275949
1.19161937733772
1.14070226232894
1.07764926275269
1.0174979172095
0.98475096623643
0.93807145060152
0.912335921270862
0.864050936695754
0.837132252284897
0.803121281877711
0.777437942199248
0.749049211684963
0.723702568844623
0.71376144999277
0.67952810251993
0.661038346210747
0.652372331119284
0.62921867936646
0.618419350059952
0.60629793947211
0.60698041068036
0.601229519008089
0.593678051358069
0.586856881935484
0.598319045810664
0.582950282922281
0.576564771313112
0.572393231905178
0.592605376203694
0.577783731454796
0.597262688486794
0.590440772692841
0.593584088207025
0.589304749912395
0.597660087723268
0.58473770523559
0.592140679624016
0.569975188026563
0.572332537280021
0.580256111280434
0.563036456378193
0.562491708149219
0.560584670909749
0.555036139777667
0.551070693994736
0.544304975408792
0.540178641518999
0.536225408770828
0.540405719871655
0.533313251440791
0.527752645800602
0.534333961820809
0.537041493441529
0.535426061999358
0.540031416597302
0.548435716036217
0.55313985556224
0.554432522534101
0.570066323008241
0.565186820576806
0.564433784100382
0.569126757582757
0.590719012442051
0.585829099606846
0.583319276642999
0.576674097390443
0.58380017550078
0.57364953428029
0.598054750791753
0.586713999717451
0.602855212555048
0.581788965418456
0.587457266526422
0.588595616530391
0.587888197747001
0.606724930015369
0.603796141782443
0.601075970938102
0.635945892203376
0.624557470888276
0.640600381315302
0.646327526998268
0.663739177281968
0.681151855400659
0.701779987588317
0.714060720301045
0.757839733289797
0.755471085552148
0.769586955879094
0.768323472347357
0.774262709217259
0.786462810725355
0.784764878855837
0.76800694503227
0.765998695249518
0.772653527412732
0.751418506244536
0.7320587921572
0.740389347663677
0.73345252405416
0.698962251679946
0.706539055293252
0.716286519055432
0.700994962923887
0.713286705448883
0.698916513978243
0.709572290258182
0.704631614786893
0.71064243467527
0.696415608423358
0.715298920666153
0.690686889218771
0.690402112523591
0.691715140409403
0.690992347166539
0.655187541949756
0.665616862161262
0.663894188886029
0.654070877822196
0.652184438802263
0.661345644476788
0.631013856213529
0.653153588658886
0.636080394925154
0.621503287280638
0.620507512255812
0.6078602906249
0.607224036565989
0.611024448601185
0.607810465433268
0.597345134636311
0.611323560798938
0.61274802027813
0.589554897609039
0.606039362621459
0.588348171521553
0.590363066793949
0.590468746814422
0.581576217612167
0.579954271395043
0.572306122443845
0.56393588782874
0.579254011786725
0.554871319338893
0.573792472795278
0.548521987150334
0.555862728483001
0.554392747543273
0.549920656811392
0.555517711011756
0.54180423946067
0.550139186724845
0.548539565488157
0.519021769253132
0.551946617842402
0.524417004371934
0.53542975118757
0.521787434891863
0.543862211276539
0.537598563032842
0.545291551484728
0.526593056969071
0.531331448585555
0.530221271678575
0.554070181697616
0.524084141603578
0.527290279882373
0.530105864548533
0.533073665140911
0.551179445616162
0.557197240544051
0.526456693581946
0.552640341845425
0.53111714118445
0.573275368493874
0.534507715164242
0.569169507292775
0.549971109206671
0.570293206949227
0.549943147934409
0.572299901388649
0.564596828630644
0.587239742161745
0.568091286177867
0.613839500048777
0.589699991481679
0.613865009814668
0.590620259007581
0.646916086344958
0.628972100912368
0.660599992443995
0.647465277254239
0.676773759873453
0.665987848509031
0.713413387059506
0.69633601298821
0.745807803761576
0.73473407374775
0.800874773712032
0.756276422601846
0.836730317834808
0.82765592051178
0.913328108656166
0.828987225932318
0.96844779484982
0.877003963206059
0.954061076768838
0.945275678008575
0.93936769468476
0.894046531893004
0.882534506629704
0.814589900455207
0.940754519415722
0.868514186447295
0.914212943459325
0.949505337048096
0.903376338631616
0.809604621892868
0.918788776813382
0.89807057463598
0.908374776748186
0.893623363659643
0.868343735197276
0.884515678311597
0.889821394869431
0.847858982272192
0.88434506759279
0.82555875684667
0.93236967503636
0.833304243462456
0.905052250881567
0.819962767699206
0.821942922309913
0.799176915544169
0.849163797660591
0.779306497622113
0.854125721207677
0.7433475805915
0.759888964380949
0.842699296659045
0.778019177711029
0.792476165027392
0.832368690119605
0.773315382703279
0.749081303368912
0.835399073841129
0.788388135397845
0.80419787827796
0.901848386313565
0.769398394998848
0.803659686467564
0.779606610712083
0.866502512545358
0.752045981660757
0.880521810503028
0.798405159802719
0.832731100586619
0.793151307184213
0.997557761985804
0.774286457068434
0.816226635920198
0.80960662328611
0.941566286380472
0.861205859078202
0.919028285352602
0.869182318613148
0.852255903603419
0.901120995705838
0.841280938851942
0.772744057017573
0.904172777285063
0.754554580925669
0.804274696062275
0.742475926537898
0.829486781693934
0.802010035244394
0.89799026421585
0.977860484707009
0.889669494246506
0.843753152500349
1.01628701051199
0.884616872689647
0.975914320961779
1.03112925829888
1.09594172786309
1.04412145285394
1.2528164199419
1.03202922011049
1.38537951322789
1.16984904474576
1.08580598793569
0.91211444468192
1.19715503279149
0.942957505981833
1.08520030999116
1.12827716744857
1.3287849769505
0.936791121369595
1.48691314272959
0.753291874878245
1.38320143315114
1.14632612983881
1.18144416473093
1.0079217106496
0.973662539184021
0.837785442551457
1.40410910117661
0.868809517116819
1.12418952616275
1.28246638838167
2.00512202380151
1.01680286283745
1.49632478964243
0.952123777496108
1.11442571850008
0.937004943010033
1.25899469171527
1.00788217541978
1.88188663324322
1.00933618543929
5
1.31405561228897
0.821034397839621
0.810387913784285
0.98402940276389
0.836722307611237
1.38063295851008
1.58228356259525
0.90803525609564
0.840430650328061
5
0.794759576291405
2.78489021846582
0.895497906772569
1.05745510283669
0.806003801411115
0.841666320782761
0.635346644780471
5
5
0.731550911010922
1.30415057899743
5
0.596066180682133
5
1.26095224266851
1.50064557228696
1.09339520165286
1.94570614647005
1.11234233549199
5
0.757890597813151
