3596
4000.36533379555
650.420452594757
1
2
2
0.0705468977042408
0.0574915768346079
0.0697549451238545
0.0449376929799812
0.0736765865460987
0.0516614916575913
0.0681191560161192
0.0543822724933289
0.0624369885229978
0.0580818933780279
0.0675973070013994
0.0531896854406245
0.0646161320880464
0.0446922618411824
0.0551138361634063
0.0496473671220108
0.0745001158548565
0.0477022967359685
0.0665118964631698
0.0533480886122247
0.0671451443336157
0.0537820967686935
0.0786425606891818
0.053604394132205
0.0629143318004692
0.0584230303911072
0.0602200543210945
0.0473262842761419
0.0762613844919616
0.0466069454474018
0.072114730758532
0.0531697846164144
0.0741924008277258
0.0561297799373539
0.0693578831646458
0.0461679526982241
0.0762058131620529
0.0533730229741732
0.0653202925809718
0.0526606788366043
0.0856342250021342
0.0514627069683669
0.0577127360869713
0.0565260135603676
0.0622362452139281
0.0574707820580911
0.0611343153105999
0.0561009752936302
0.0675912866778114
0.0540328128114619
0.0763793471159448
0.0411938427818487
0.0705367976742407
0.0484330411643154
0.0676334386726183
0.0596916115032994
0.0563466895941361
0.0581812837632761
0.0658995554465074
0.0314273979883398
0.0740214000105344
0.0583046425331185
0.0634751611412817
0.0444549413958978
0.072205358127968
0.0488311483291925
0.0547440895539961
0.0421579867928533
0.0643371043274123
0.0467306355029014
0.0466530344196672
0.0574797274707552
0.0851279373994411
0.050127115067767
0.0626249902837991
0.044569357636782
0.06447657758371
0.0449044374889003
0.0529721643262241
0.0516624353645463
0.0660587867960905
0.0573446967037614
0.0614483057271559
0.0437136358819711
0.0630590411331371
0.0531759597438523
0.053098749502808
0.0413738884386402
0.0852828389637823
0.0609910685781807
0.0576865444665005
0.045747532620094
0.0640600277516229
0.046499209476626
0.0606539381614762
0.0431052644366995
0.0621683274578173
0.0411681272383491
0.0545392432369853
0.0438177388153743
0.0662113323717181
0.027580412014789
0.0857364332841669
0.0311338351190838
0.121725199557743
0.0599986853395991
0.0469406040774116
0.0714861449347569
0.08762838455316
0.0406234817180898
0.0473543402650099
0.0420481921365924
0.055171538046658
0.0461432686580165
0.0350785546209827
0.0458748168274836
0.0959136424400851
0.0560980071479826
0.0576801366505949
0.0316209103200972
0.0242847965448595
0.0397808457261605
0.0977997018766419
0.0448600312901311
0.0739012280467655
0.0401057730497694
0.0267102918926177
0.0619859157615514
0.0944412403446039
0.0492978122617991
0.0558112519615023
0.0337946744411377
0.0450351776746355
0.0174815115294635
0.085136652911623
0.0508073126050256
0.0509544801965552
0.0137563113005667
0.0663682642426453
0.0882097848461706
0.0783934574610304
0.0428379108864008
0.0237160868377969
0.0197238138974022
0.104918352018161
0.0537207620530791
0.0447955382108696
0.0360589740089108
0.0748046437744292
0.037138414857704
0.0531908732491052
0.0271263604562386
0.0756362973011681
0.0381352290861181
0.00124313549454599
0.067383902497521
0.120675617212936
0.0659844276918009
0.108966702826125
0.0356562954865673
0.0613265329163605
0.0399419710542416
0.0580405036120211
0.0281224381392355
0.0543754732926221
0.0242526577322279
0.0498512199024776
0.0671729263217506
0.0406714356678513
0.0196317714251099
0.0767499241126859
0.0341258071833032
0.0421227691948274
0.109968528477539
0.0717583215869317
0.0118996249067568
0.0907898355132589
0.0600343764566827
0.0346421979184139
0.0304170340559194
0.086480624243858
0.0437513808067497
0.0522466126862843
0.0311572321976808
0.0451864056971339
0.0471928531379588
0.0640713730933947
0.048612090582104
0.0586054959945203
-0.000803631605162203
0.0456415135416852
0.0826898013495075
0.0914517079743671
0.0487630938857746
0.0560708113226742
-0.00873838045705701
0.0859770259939734
0.0710927522643663
0.068868765568813
0.0390824735837172
0.0511845553641952
0.026624634006866
0.0475659519531345
0.0420967057198348
0.0421212454203305
0.00141379000335266
0.0938798161122905
0.060535639541703
0.0536826648775237
0.0303667062486278
0.0417206017394023
0.00776491662142595
0.117143509017522
0.0847498487693041
0.0575255841056841
0.0492097791474808
0.0400166653291412
0.0314253490935731
0.0790308775553413
0.0461634688673684
0.0541847942208061
0.0349978583098056
0.0609662963397329
0.0379098030681312
0.0584934615747729
0.0379627050337849
0.0608255896170527
0.037195973830082
0.050335321592559
0.045099011681182
0.0702263290031435
0.0478169933276491
0.0567077358873489
0.0357317456374553
0.040006103485105
0.034860060611742
0.0785028535428731
0.0462293623139932
0.0577993011541239
0.0365366195710404
0.0479048134424107
0.0377066938703586
0.0542808558035792
0.0404013796648383
0.0453136597058719
0.0148937932992668
0.0890116187126464
0.0436606948975533
0.0577087090122829
0.0193444236662472
0.0733088048338677
0.0561794900737095
0.064643878564566
0.0434179874404877
0.0683085053124208
0.0294989289520436
0.0417864176926365
0.0614452351394326
0.0655782348687714
0.0282563729678998
0.071206427834225
0.0516080907333458
0.0537867654003511
0.020018831504996
0.0189555014182066
0.100651127744013
0.06317286130196
0.00948448918216338
0.112218721312224
0.0664003657626018
0.0792343112363998
0.0239281475944012
-0.014087187231604
0.124254018441398
0.117590034791539
0.0443712846432813
0.0598115604553548
0.0574631693452018
0.0568015077044949
0.0438493721193354
0.0527871032444747
0.0357395411971002
0.0649454245424489
0.0695718291321938
0.12515256796265
0.0162541487410717
0.0884804931370646
0.0656311282652809
0.0649434643707241
0.043309077610769
0.0573676573749205
0.033902484726319
0.0715510566966218
0.0608350244038116
0.0779108432346855
0.0488598461925246
0.0704203399150752
0.0796493079742026
0.0775822710552169
0.036478602824328
0.0620190634627711
0.0536966294745232
0.0574577883925675
0.0492504224925214
0.0518050363283313
0.0567348405188166
0.0451688111450276
0.0102758401681516
0.136668829066053
0.055487847401407
0.063680488287749
0.0778169505325213
0.070880055772952
0.0532863718604811
0.0623990250703891
0.0474016045189695
0.0675589380211762
0.0370999287170279
0.0482077746606926
0.0791169915823966
0.0767718675388435
0.054305774433481
0.0735095075295538
0.0560281173527802
0.0674392080670505
0.0582372212152697
0.0617211742910484
0.0513539432375683
0.0725847482515035
0.0394928520538001
0.096903064613238
0.0736299215474524
0.0591421405954937
0.0768359321580734
0.10652284427856
0.0592327118467331
0.07643150465235
0.0578307110512194
0.0797377442810853
0.0610343495737005
0.0808478531128761
0.0534060969568233
0.0716862236700936
0.0888882199864104
0.0932136889760221
0.0488185139657361
0.0555107560049455
0.108818375834781
0.151462757343415
0.0949628118647815
0.0952935697977472
0.0286331264582033
0.122535729610388
0.101318190744843
0.113067587423078
0.0964835378412329
0.0928133146353039
0.0796635603441502
0.102546663834849
0.0843091732165529
0.100902669464535
0.097125667895975
0.0948357773952781
0.0881564523645464
0.0976643256256087
0.095505972265218
0.0913779240350628
0.074380443632238
0.15711173315926
0.0985239542118129
0.121209253359013
0.103233919906636
0.0931584236618032
0.117236634451024
0.128215457286466
0.140799188407055
0.13888214303113
0.117360875263116
0.158418790822615
0.116531390993341
0.133258063518123
0.118161879218755
0.134164742999599
0.129306248037426
0.133151925145759
0.119055110898693
0.145555534052952
0.131433343677781
0.152952606393482
0.135244525651667
0.146747974550952
0.134695878591731
0.186896424832115
0.146376989376454
0.157569616017638
0.129790545774766
0.159706136582374
0.180774106163701
0.237084022288416
0.159013996211582
0.184880377339637
0.158907661869766
0.186441144562149
0.167415814121068
0.180017588377386
0.166603827150641
0.183478496650277
0.188891283508699
0.214793349792959
0.193333397321581
0.223265254379827
0.172720961032127
0.22860517783777
0.193226315956856
0.200441257789662
0.234636985303612
0.240649607736017
0.17046647391352
0.25365502921917
0.226286386157139
0.224954705445065
0.228001601616193
0.24581208062382
0.225594498775326
0.238283273194471
0.223994112090086
0.244531344637768
0.241505295135404
0.268120609392029
0.233279004614331
0.260715013913617
0.238781709753286
0.263435045141602
0.267623059475761
0.27803060593099
0.246302887187571
0.288510828313839
0.258397950890398
0.294229243466539
0.251294600476307
0.310339757044437
0.280935322177876
0.301445820087887
0.307559509937462
0.319664374183892
0.279235470548038
0.314853957848547
0.30611732914964
0.32083402363474
0.323594132478235
0.358315212511128
0.304668842433956
0.338788757056801
0.322829194422102
0.33312923016796
0.313204747347857
0.347442309324387
0.337787524599684
0.359634943845711
0.319738277475541
0.375287093081255
0.324954245688757
0.383469796520914
0.371375065834931
0.389913340265312
0.391959324224799
0.390838235135808
0.366531674392223
0.412730581094162
0.389592014128922
0.382994342163278
0.409045070118298
0.406162391709435
0.404512099191383
0.440512019854645
0.415376413480362
0.434607260840499
0.41644847329223
0.455640978498385
0.403825808509156
0.465856542220552
0.410184145369774
0.458930746729755
0.457074942294112
0.473493986185272
0.43617985940395
0.489891782072148
0.447211020847428
0.48967268299098
0.454113342405639
0.479082436122898
0.457892045747257
0.513613408913698
0.473171438052219
0.54488897902834
0.459712072737349
0.531036963834899
0.509089731509629
0.554961835509041
0.523085746045255
0.530860617679685
0.492339884140947
0.549934461414828
0.553138498661413
0.584013824685208
0.551260141373449
0.591009534198007
0.527894979399985
0.567552388312666
0.527807979799011
0.57356799509474
0.587933926969258
0.626994516604955
0.584669430911703
0.614646769667899
0.576759017861707
0.623168533960189
0.621138218193141
0.611275856768947
0.574430681084485
0.640312298513107
0.599700573975451
0.675140146256649
0.623126355669937
0.630621932665276
0.635209847018708
0.643993491946253
0.62346099836601
0.671700422229181
0.650755245364915
0.731854821022658
0.653170083634766
0.68077186745503
0.705589043451304
0.716455314649561
0.683150534185587
0.745135954389509
0.693344023617985
0.733920057905451
0.73268531529618
0.748107509103303
0.670054759736526
0.724441390224381
0.724858717869292
0.757661030926641
0.693456118275812
0.787622714898755
0.747171302233517
0.79086792296744
0.744534592441294
0.78171737373725
0.739558255122696
0.847292579812922
0.797395488774399
0.847265376696805
0.752049698411001
0.798893067112725
0.724872787004505
0.798501992787665
0.783148795729095
0.863990321703262
0.804557139018388
0.868973614088673
0.822315070266505
0.851445268581969
0.799289552082213
0.901254294513131
0.807215188380217
0.857754314790579
0.807093490957019
0.946268387861303
0.86715430921299
0.911308426429089
0.851316861504931
0.93411440859156
0.901030175977874
0.954845723508808
0.891889847594838
0.898703686761423
0.867891571296277
0.999099447238205
0.921215880226308
0.948801744895204
0.827090784857589
1.0492208230807
0.867422821239696
0.980915091597686
0.979346654803106
0.953247135068824
0.939070967830074
0.997555132661364
0.983738823696843
1.14142637482128
0.978314052689184
0.983795893748549
0.992435513588656
1.08910105169394
0.909821646791599
0.958079301191077
1.00489075902079
1.10893409421229
0.962697328948468
1.13477217308144
1.01114022370921
1.04154684884926
0.957139105119096
1.02178635577102
1.07332063575028
1.09501850572533
0.954063824821212
1.06630376056378
1.03778334165968
1.10521131802348
1.07473446955266
1.11449128868475
1.08477519220711
1.10556940577484
1.05694497313407
1.10466455489301
1.14778407921679
1.18705542722124
1.02059477206806
1.31434688427892
1.16302026257969
1.14742549460087
1.01765861530573
1.10796498178681
1.155208453268
1.18452833974
1.06140935424001
1.21416890702242
1.15731038805212
1.21035005399074
1.04767632613847
1.20219522984254
1.1488499551388
1.3141939111147
1.12227722537169
1.13753434079847
1.10488636972793
1.23045084560405
1.111307009887
1.20815310606584
1.20029709496528
1.23200620815901
1.14944328125014
1.36975606496557
1.19952158303558
1.13115598040301
1.13360108040844
1.38628162905097
1.21851499084674
1.23757250076284
1.17670924827997
1.37345875369104
1.17990541229325
1.24474947674933
1.18108948621559
1.25420281552183
1.22590951763238
1.4086696573427
1.28624628611008
1.28784391078288
1.18511315816094
1.27687593216255
1.29178022978956
1.36773838010604
1.16738406023517
1.14979821929642
1.31134069977004
1.30518058426683
1.30479441882535
1.33172958482208
1.22469175272813
1.33546025913587
1.25856549986087
1.25843825559992
1.25518400719046
1.3208724322108
1.25491426684073
1.43584068418178
1.23139530717747
1.28228054321146
1.28689076102588
1.52112052017387
1.29640199090885
1.27405938144848
1.27777959071517
1.28315892877088
1.26709921098522
1.21804752492511
1.36478334312615
1.47506121524442
1.2739380377619
1.35517864825713
1.27906722879529
1.2900973126505
1.32948619265517
1.29118222896973
1.20115564911073
1.34818482120193
1.29882352897283
1.52520018165712
1.36280133498185
1.35401203736879
1.52498542975766
1.46881906307912
1.3303235623493
1.40763738288231
1.27914431746044
1.39815216106882
1.32746507330682
1.36745652577998
1.30157439339055
1.36914938957562
1.35804519761242
1.3786523213364
1.30894731785488
1.34145069791939
1.34450731070138
1.40473066400766
1.35479978089845
1.32698910511366
1.30400221218227
1.37835279699785
1.275396806677
1.32516767400798
1.32693938066407
1.38297278911391
1.2965757606368
1.36335220570715
1.35238802134708
1.42225971341129
1.47594733196549
1.38301898303757
1.28033688429971
1.39485008159613
1.35538594616251
1.33622929847966
1.27692481627532
1.39305225523179
1.39418101948108
1.30913375254281
1.26438425423749
1.33421855772174
1.28895255461775
1.36636344510594
1.31245281408717
1.34165422011247
1.31364616722764
1.40508758011058
1.52797585741652
1.46729024525172
1.32909548429953
1.40464330559477
1.38541223168588
1.35445999886461
1.27653511383256
1.33138367960493
1.38024252654956
1.26755677036256
1.31208715175617
1.37546448706092
1.27032214223263
1.35018917396613
1.31583653121742
1.36541710292618
1.33940954666319
1.34470512838962
1.34394799770816
1.2364342869197
1.34366289047502
1.43764044779131
1.22246490025693
1.24594900235591
1.28098622984856
1.3591375983632
1.42726115186653
1.33638804735036
1.39849376703167
1.38053678772854
1.28220713492409
1.40001460722908
1.40270560214119
1.33080426477663
1.35263229434198
1.3594794730266
1.27362650089292
1.35730196249789
1.42950623733527
1.28986992865614
1.31454603399907
1.42542633663552
1.36544211701816
1.44495456077582
1.2950039405398
1.16180676690694
1.26358573384616
1.25491709634101
1.18071896303388
1.28753200931551
1.26943262776415
1.28331558765829
1.31799300767094
1.28792512262244
1.3334050980456
1.28943102138093
1.21968112051903
1.27231761527694
1.3050460940886
1.21445396361311
1.23648870421801
1.31333480929696
1.31351453663121
1.31768497557038
1.3241353991964
1.26205884956421
1.27140337523294
1.26126521924134
1.20117717920263
1.25553217599946
1.32336827132515
1.20997798827479
1.23814225522443
1.24630107053769
1.17745984832889
1.21421967006425
1.21522038050653
1.18435911493207
1.29714269953066
1.29383761607992
1.24189604923625
1.27376548265845
1.13326435078567
1.15923377760967
1.26940316899922
1.20197977523496
1.30048948987259
1.27847180983697
1.17132797177249
1.17950260665299
1.1417153057819
1.13213077682536
1.21357966460127
1.19071269208328
1.15889804424303
1.19834598535069
1.21539366186142
1.11159870676944
1.11517531007765
1.17445045225291
1.12959123148472
1.13552554534099
1.16108340659421
1.13426734433944
1.14306720593881
1.14648533807408
1.16441774192405
1.11955474291278
1.08335856052998
1.08677261050674
1.16832257421109
1.12278232659719
1.0482285927338
1.06038502860928
1.1025299460211
1.11095991323953
1.10150024714918
1.05904239123536
1.06382161318315
1.06126175570372
1.08871226876275
1.06393028865154
1.07878675531784
1.04934839493897
1.04059059920559
1.08900755736342
1.085105277515
1.01753090065146
1.03625827024163
1.03648825698048
1.08268830342379
1.05374881147831
1.01916195454495
1.00715711847374
0.998500892128771
1.0144450036006
1.03693636021294
1.01330749507093
1.02641226538859
0.974240421564857
0.97056450636052
0.973527535246435
1.00435934945951
0.986694834896649
1.00291351369565
0.98498595041684
0.960154469371402
0.961370670312452
0.959683865304059
0.922840409519173
0.964529118765251
0.940411744487556
0.941496318878834
0.950358834557067
0.931147664352473
0.910546662377501
0.954218886241084
0.899158336435175
0.916528041973266
0.8977439231171
0.907954367547058
0.916887822655282
0.919304977313948
0.896659746014197
0.885266381547384
0.87816557038716
0.880090890127489
0.868911321894947
0.877768531672487
0.860235267825629
0.88187804249684
0.832768934439437
0.842235827750864
0.856546375901877
0.864362714576236
0.840238445462389
0.820666753892245
0.823645889173751
0.856461490907407
0.821644095052118
0.814463387954124
0.816562234736942
0.839296256987161
0.80726822317492
0.826501336066558
0.801473048654783
0.789913592911822
0.799401106825761
0.80326881233322
0.776413362270346
0.768793326519227
0.76493315919012
0.769636586954464
0.759262168357953
0.771689807672504
0.757889198146943
0.763894290645086
0.782469411117208
0.787759583415877
0.746685378039598
0.768854847208759
0.737686651041935
0.742075269922622
0.746280227184466
0.737373159534515
0.713235131966656
0.715159873721958
0.700144746566054
0.716928068884689
0.712125044305077
0.729118899977589
0.712280069020037
0.700652672046381
0.691223736885447
0.705801130544116
0.697866931992441
0.695824980053342
0.671562998871951
0.705475504494647
0.690911778475185
0.697009713608637
0.683661844426987
0.692111277403714
0.666526591778874
0.65875430830009
0.662823192120857
0.68209275064507
0.655446678234178
0.658628490373706
0.641022054778187
0.656720245056277
0.642944818112088
0.646109949414455
0.635959441860158
0.635250309012703
0.614159960310358
0.634527965234554
0.621865711215584
0.647573282411872
0.627321370507252
0.639059671297095
0.613591785768558
0.618340271593565
0.59606076280439
0.600604802276146
0.600680455670903
0.600157179364983
0.584964560512055
0.59395050240092
0.58947441155461
0.595629842707147
0.580855086214382
0.590345167303836
0.571896205268169
0.587382921861831
0.594921774122998
0.596524183373848
0.563803372886327
0.574733317217019
0.550721343146631
0.562366594002259
0.559666294587276
0.572414908015579
0.539789482761003
0.555382487542424
0.539376275672529
0.543874220413513
0.543996655618056
0.552165797941069
0.539007188675646
0.550651738984781
0.526071502652707
0.538037102696828
0.519634141039404
0.526161087019834
0.520398125641904
0.532700531451876
0.509701116653137
0.522316803106815
0.504755979110627
0.511885614093574
0.505004407260113
0.501352948158228
0.496269334904551
0.498112425047845
0.486674579504433
0.504969373834077
0.502979049864574
0.500489387801017
0.487909994876791
0.498802679248131
0.487812483782477
0.492743809145336
0.479851156372709
0.480894914496725
0.478677615087675
0.487534208205746
0.476149542014
0.468276530765309
0.467265631370341
0.463062269142608
0.455261364849474
0.468337943701311
0.462009583762798
0.47158254581257
0.455425425259069
0.47300666320863
0.449891306951144
0.464551701111447
0.449328237972355
0.456936569573951
0.45093998796185
0.461192970171898
0.443145145507669
0.456694190016646
0.444620605125944
0.446256698689093
0.427145829473264
0.450772970971873
0.441766036399708
0.442972461385271
0.434214597441118
0.443593593425935
0.432049794209411
0.445203031499106
0.428486892945151
0.439492514524599
0.442175772845458
0.445547457377946
0.437968837764171
0.439121567954477
0.4329040272653
0.444044844170135
0.434872915176063
0.440254909363744
0.426963208994865
0.448678754366383
0.444487102366387
0.460524259554402
0.428939047630261
0.44487999617633
0.451171307526538
0.453181720203623
0.438020557797954
0.447284494773912
0.446136938293347
0.461302014171458
0.458950537505841
0.468935322150176
0.450011191572843
0.474904128937289
0.452431005358897
0.468807010704194
0.45316815876966
0.478271650266144
0.481267998019525
0.487969698711926
0.477136308849379
0.494502392277068
0.468807839598306
0.483459996508771
0.478159595811331
0.505118091366978
0.479495496612179
0.484933905058777
0.48983844968433
0.513308358103533
0.493327538111702
0.518471502910908
0.486874489451196
0.505294033477215
0.50337810430299
0.529752604905338
0.506689723949034
0.539529404350635
0.506557559769916
0.533828941916416
0.528319936580551
0.533976984526939
0.529030697182544
0.549982871522242
0.520672494253196
0.55929726972321
0.543927773880982
0.566364927418692
0.550709215420027
0.571484340443229
0.564608443541478
0.578628439364787
0.575097936484896
0.577227187690958
0.575826974796342
0.584957222982043
0.583329676715835
0.592515348176635
0.597019976766933
0.598597974061053
0.572544713915094
0.612815823648761
0.595209726778375
0.631691230391069
0.576937210158789
0.601032196577494
0.585165954721915
0.607756666809783
0.590665580857516
0.603491320103707
0.5983345334974
0.601225392017586
0.582941063654376
0.59511624606391
0.581795598645009
0.605493218631429
0.58234900764822
0.605927613194466
0.578476101789669
0.612883895722814
0.558814236346559
0.587259540687335
0.570146415891609
0.58349611280387
0.575191739056041
0.593589732288546
0.572027252275183
0.59109321196801
0.572169957788543
0.60324421398435
0.573100483857158
0.597928704117164
0.57825374042146
0.591276064452864
0.576191322916687
0.590336830598588
0.566368198735389
0.585436625372338
0.564330906829158
0.601812939860451
0.578086184827409
0.593708161726898
0.562142155429147
0.599791400857844
0.584513468388207
0.593532021593823
0.574132985019969
0.595196452951655
0.564285930642486
0.593103847168708
0.573515119502475
0.583937448945699
0.573111755363047
0.591216857061808
0.567147509654397
0.586974547575063
0.56538456854337
0.590867957665813
0.567359053552189
0.584891675011064
0.566179410155528
0.579338523980334
0.550398447081099
0.565512424315481
0.556031433480518
0.565129251515275
0.553375255176044
0.551031639998661
0.529914295387627
0.554254434515971
0.550387667458556
0.553547483417963
0.530642534343342
0.538732006892093
0.508918467801248
0.533704810719081
0.513439617896706
0.53317983984767
0.515181910539928
0.528220977808155
0.508560777624979
0.51939875631404
0.491808792986453
0.50087143984129
0.484985389403133
0.496455232422409
0.463566092060551
0.490977028274733
0.468119030039492
0.472915393096702
0.464273339563628
0.472378748865636
0.464742739998372
0.474006454666196
0.460543326443247
0.4495564643775
0.443082704760514
0.453718054426361
0.432862875190524
0.44799962442955
0.440498647864029
0.440665032747422
0.424143371132967
0.437056496820665
0.424610306080975
0.439659840688006
0.421242700710421
0.430443255242144
0.410092262944317
0.427776601668992
0.404775032353688
0.420888401902184
0.407718558971353
0.421465292466405
0.395387801394356
0.411789957596313
0.392457972289291
0.409110780289928
0.400420668599464
0.406999420231612
0.388632021081891
0.393326880435129
0.382063859951018
0.399471748377027
0.38037696473925
0.393448944662635
0.384850456445836
0.400825630344262
0.385188145791844
0.390975208749274
0.36902684459326
0.390027290867572
0.368126069485048
0.379642224219141
0.37607805644016
0.375820729009415
0.367769881282658
0.375587543476189
0.363569995972333
0.37039259191572
0.362003601814831
0.371794479174439
0.365824973348194
0.365578085109016
0.356791391905475
0.36715671842238
0.354068300593374
0.371107560769536
0.34937079174378
0.359877395165909
0.348780861464263
0.359080847516959
0.3467969616641
0.354992030410419
0.355008757603903
0.352644328738155
0.347980340288118
0.356106831056559
0.340596152686371
0.343877991317211
0.33557047093715
0.351199858080344
0.340483881254048
0.351617942918129
0.343443202071374
0.346579937955269
0.338503862411812
0.347654965815226
0.333118314489323
0.341094253453496
0.332398079470265
0.346344008812939
0.335336243583036
0.326950939236674
0.322929700792213
0.337439370574041
0.320735496738371
0.3308189574631
0.330320195403153
0.335948373029856
0.322327915518635
0.328889989684644
0.322367501368745
0.332107946010185
0.320837613565812
0.327893119741957
0.319606018825927
0.329938245950403
0.312806268669628
0.324295561278572
0.313448635174297
0.31960147460307
0.315722972607083
0.32772240627684
0.313630229372559
0.31887282962242
0.317308473393806
0.325212467824814
0.315980792393375
0.320408144974518
0.310970676988637
0.324920070027082
0.309260312892185
0.314383266960297
0.316492595418075
0.318099705529773
0.312821600816614
0.31462721494769
0.305781342869993
0.312575671272539
0.309435587394894
0.311223871361467
0.305234692274962
0.31452179277335
0.301914512945728
0.307049559071485
0.30204426706319
0.315065263067207
0.299805842723631
0.314125256999336
0.303775211663124
0.308078121981711
0.300936881893062
0.308986525418622
0.298125847846183
0.311436363582533
0.295688001450359
0.305605800316387
0.292829623166184
0.311237859314916
0.299075289157462
0.310049528891298
0.300169193334608
0.304793645076452
0.293881658504936
0.304906486479434
0.295455666908136
0.305793789553178
0.28896382863685
0.302256609393282
0.289034535897595
0.300540833961094
0.293370003111474
0.304387791580481
0.288861007280705
0.296242688292656
0.285358887928788
0.296547991171187
0.284434058181238
0.291824413167224
0.282190518683359
0.286692668647776
0.28640251346399
0.287439690550223
0.281964045424622
0.291819093739073
0.280665128290544
0.284695330843263
0.280702237273482
0.292028137312572
0.279730906285611
0.277807896823603
0.276806214380769
0.296231968208349
0.274037607491037
0.282824260774361
0.27666515146396
0.281832813220894
0.269896492595168
0.281118057533083
0.263824379901943
0.281866028333896
0.271910431056267
0.274779241849273
0.269032760678755
0.279488816168226
0.266666133334539
0.276538561081305
0.26616031611472
0.279263869053029
0.267766927414817
0.274320541409018
0.264052208510032
0.272077134993291
0.260560503211022
0.265279794300072
0.261414594298987
0.272225960730994
0.254091944214672
0.264552284305307
0.258519071581439
0.258088155141585
0.250067069323184
0.254273843005179
0.24914486308659
0.255435788571452
0.252522431977719
0.255398371576371
0.249559828076589
0.255160564570729
0.245947029841337
0.254674606721822
0.247899038750243
0.250078500376266
0.247941943228253
0.253851101231395
0.240444463544535
0.248528997413132
0.237217761868085
0.248629507850768
0.237369542582912
0.243513496021463
0.232996592314488
0.240062848541769
0.232057321809552
0.239644597041272
0.231727373576563
0.236520497882488
0.233426426325665
0.242169637764223
0.227145435718661
0.236103019198555
0.227783961704491
0.237589904366263
0.22350510267726
0.233038972178448
0.224999923747826
0.233687966288188
0.225985754006726
0.231956660342882
0.225156462617816
0.225560726743385
0.218585476506442
0.229092033816803
0.219843110997933
0.225712112944316
0.218367477550575
0.225262098244948
0.21809448491984
0.222678802240525
0.216587652402866
0.221987083845595
0.209878272201002
0.222134358494984
0.212205655462933
0.220881661239154
0.210139688398797
0.217809184262345
0.210048699413873
0.213894969535225
0.208838120269173
0.211678542493973
0.204752790648434
0.212041975175113
0.210957026635859
0.21050750639733
0.205669538187926
0.211513130558018
0.204997876394525
0.215114592387231
0.20157005381321
0.205805594436072
0.199562501784816
0.211968272135088
0.198486669960908
0.204786554491228
0.198171776680516
0.202840182522733
0.196031554612825
0.203949537822735
0.198233447929167
0.202464980194518
0.196448432352099
0.199284668648036
0.194062072527294
0.199878281337508
0.193354833643488
0.201639496943786
0.192422053867334
0.202097015900708
0.191921311603989
0.199699735691648
0.19167457652366
0.192296523925305
0.189583572092106
0.196774689008724
0.192433819499989
0.193553492960191
0.188339768431143
0.190416115946002
0.189027783036055
0.197060444208547
0.190257111226535
0.198306242811508
0.185883935803037
0.193208850687916
0.186350208037814
0.190611291644317
0.183231054965068
0.188125102317681
0.185607205929323
0.187966702500034
0.183465516706439
0.189532637792736
0.185740424190525
0.186548264289544
0.18243088014833
0.18945861850315
0.183774514193861
0.188915563629292
0.182810786161422
0.188153936473311
0.182292161540579
0.190144953897471
0.178502340478633
0.183848177639609
0.17614317337133
0.182114665747881
0.177135615109912
0.181290246789611
0.17521111684868
0.181566322896128
0.175683694462029
0.182943329406771
0.175079224073999
0.182632894922975
0.172027453774654
0.180223445836405
0.174592989457627
0.17504247933367
0.174853124558003
0.175182697428667
0.174112078764225
0.178387996918017
0.173240813118083
0.174980166544546
0.171052423182903
0.177205773612044
0.17265857833336
0.17487839874601
0.166271579603992
0.170535680102992
0.17171037382714
0.170221746690712
0.165382274132873
0.173471178709353
0.165987547756902
0.171385818359208
0.168599118822826
0.172173422077929
0.165340702089683
0.168058514337152
0.165171645791361
0.165112259205795
0.166138166405713
0.173482108969186
0.163918306211395
0.169406606755294
0.162128885557735
0.166915926844972
0.163436946687648
0.169342891930822
0.162718707912147
0.163351165267806
0.15980456822564
0.168044243127422
0.161695336650379
0.163246826567005
0.160082654453976
0.16434399707361
0.161378751529418
0.164391716664878
0.158671613774888
0.161511407296186
0.162249516773339
0.162623224686474
0.157122429865453
0.161682070921093
0.155555138119216
0.161094373554352
0.153698071822543
0.157936909375431
0.152347025417385
0.155017686546711
0.152219943244677
0.155248098337642
0.151461122528907
0.153380970180087
0.149957931684238
0.155262646335384
0.148122973292356
0.153676572138494
0.148524789811588
0.151170068109212
0.147970139721791
0.148814701665354
0.146688156927706
0.144447064157944
0.14584743900685
0.149201255399327
0.145133793203616
0.144091113632564
0.144226119132563
0.148422670712676
0.143050924994245
0.145459030449225
0.139357925512407
0.148552285445768
0.143347632230927
0.144077520644746
0.13828773616855
0.142297251173071
0.139411667123087
0.141418949632831
0.137983804818381
0.143107340062197
0.134880134527527
0.135604884385875
0.13292934141461
0.135567431152648
0.136837964347837
0.141197927604425
0.135548274162802
0.132327816405284
0.134186866903446
0.135082273007169
0.1299922086341
0.133542676885636
0.131510182278268
0.132774710835041
0.134048921079518
0.135556304372795
0.127470491607052
0.130983655921848
0.127684856314823
0.12847950349798
0.124568091994852
0.129076827236977
0.129078070849922
0.131283772342593
0.124083631717749
0.128557400906373
0.123827429719004
0.130086515961027
0.124838979967768
0.129033200578927
0.127346917465109
0.124838312777791
0.121710679241441
0.121306678752767
0.121393413501662
0.124809847939786
0.121745103818303
0.122892516926801
0.121810776525224
0.117177636956143
0.116168003606148
0.119992525141072
0.11748416600171
0.117906065302018
0.119410064851909
0.117265120987979
0.118578013880382
0.119107187484959
0.114048123567424
0.119083848121453
0.1169734765576
0.112806028712554
0.115417024368536
0.114834864056207
0.11060907684608
0.116123614332872
0.11372479186573
0.111146561286419
0.111274431560152
0.117401036206004
0.113174162105084
0.111206987524565
0.114166403723686
0.11403517386459
0.112396802610546
0.116081920386599
0.113082702839869
0.110775101026628
0.11083925098031
0.115032130692447
0.113933323061931
0.114229941569738
0.11005354088502
0.109769274619537
0.114014119408047
0.116335246661424
0.111191425529944
0.112568021571568
0.111095483505179
0.114326224828279
0.1091010407897
0.111792074587615
0.108312373613537
0.105345210930157
0.110173835530453
0.118571973371003
0.119461064826294
0.114141825440601
0.112662495418747
0.106886613956338
0.113746599954381
0.121613235826993
0.113699573574005
0.110445864941998
0.116638060978848
0.115620726056306
0.117762068865558
0.117159990548813
0.109942017267509
0.114946759379882
0.116225456994462
0.115254112781694
0.113487868359814
0.10780192808667
0.119039631327815
0.113007218922883
0.111904352905203
0.108633115075562
0.107950786005818
0.100024899791121
0.110257709843308
0.106252810816151
0.10969665062054
0.106295232823609
0.112070958195608
0.0956540534299633
0.11784127027456
0.104408586619766
0.118309409581104
0.0947735312585844
0.118858104720805
0.0926673664015639
0.120958178105539
0.101090371691603
0.126837094180438
0.0955180360992503
0.123212124581672
0.086151470627364
0.123808615808385
0.0885689016880481
0.13196582444896
0.0887688903180112
0.123707568125087
0.0754543773919829
0.13629700159334
0.0916903361339713
0.122375092001968
0.0780565310790168
0.124999933893277
0.0902179446992032
0.112144593774843
0.0925500769266417
0.109239129375611
0.105048672070334
0.0932626067535039
0.114016575468694
0.0900634670267803
0.11269094397621
0.0880478406319338
0.114800425576021
0.0856467281288449
0.109102149115857
0.0897458867005144
0.10322549765096
0.0950101479067722
0.101041017359172
0.0984774804528993
0.101911101731716
0.0956624696714277
0.0940136630926232
0.0966665012994016
0.09711790844962
0.0913966615366164
0.0996117438475911
0.091433359312309
0.0972788466894393
0.0899531646331187
0.0973681469806123
0.0935744659783198
0.0981410736100591
0.0958754070502003
0.0949129076236602
0.0890497249662193
0.0937053199586802
0.0959655392709105
0.0991768877021263
0.0936561191983703
0.0956757114757287
0.08941160997032
0.0953803091653786
0.0921634106047019
0.0994588809814847
0.0930562300305713
0.0968601556842795
0.0912067921846791
0.0942138713401659
0.0958708318058009
0.0955378385586182
0.0921790204418842
0.0960881695398736
0.0924869464294303
0.0960725382926174
0.0928220384737299
0.0948531581021819
0.0950128507948923
0.0985508000062501
0.0919236745675016
0.0950479034085347
0.0930667325522439
0.0968557656224082
0.0900316736131262
0.0946014258637699
0.0943575597581591
0.0951884108934811
0.0937564664762517
0.0923445067311492
0.0904511852703551
0.094024618003232
0.0954736157134351
0.0995197156783537
0.0914333576243982
0.0948452614289622
0.0919707306506343
0.0946371693500208
0.0936587173570232
0.0966061121176449
0.0926707842649797
0.093616526574991
0.0919028768303036
0.0954428439473878
0.0924782998989656
0.0941626262352663
0.0901715362396098
0.0943911444358625
0.0935761493188945
0.0947261471623101
0.0922376370342488
0.0954691370786361
0.0949142777993219
0.0967260795331114
0.090322356894098
0.0936436035509375
0.0929549522731034
0.0961440383401926
0.0908881156570288
0.0947819612676723
0.0926385240596182
0.0956250446566126
0.0924171872326159
0.0953327818392994
0.0928566036640072
0.0939220333937379
0.0941662015378883
0.0964733485227215
0.0916995180273993
0.0966230982849395
0.0950581504931497
0.0964784097177173
0.0969388537506294
0.0995475090458304
0.0956097763161497
0.0951669294786516
0.0927002475282458
0.0944735151799818
0.0956324681160088
0.0949710482259296
0.0925506775024659
0.09768548411952
0.0953381801376501
0.0978132133939024
0.0969595470079941
0.0988938877962874
0.0965689602705979
0.095233822430318
0.0948668666486415
0.0967204809198684
0.0956897266629878
0.0958936362258787
0.0961328276803897
0.0965359372629952
0.0967276016976557
0.100242902905137
0.0979316580991697
0.0970860337184239
0.0965260350026228
0.100802700867748
0.0991704464395728
0.097413351795193
0.0983394386193659
0.0990712856427317
0.0979610829299135
0.097267176210792
0.097866441901414
0.10128679231068
0.0982774313420995
0.0973441108047323
0.0934227626700177
0.0998072675237149
0.0990303934608643
0.100394266348981
0.0985819474555561
0.100724373212422
0.0989046500192316
0.0975994616123676
0.100326548613253
0.0980198016183618
0.0993039986249435
0.101852781925788
0.0972216241555467
0.0990159498787426
0.100867395699824
0.101379740834699
0.10060923767058
0.101945220690827
0.100672490599414
0.101848606137274
0.102309338882663
0.10074131446685
0.101721038605948
0.102714373323923
0.101443296111478
0.103793063132473
0.105963672658707
0.103215823877324
0.100868370630002
0.105869389945179
0.102472777515109
0.103261989144151
0.101898808700985
0.101160280749552
0.10233624014982
0.101944167965693
0.100407711215549
0.102472947036792
0.101883965981854
0.105158248942421
0.102557143073606
0.100570389125533
0.098698011384061
0.0982596622876774
0.0991479975406492
0.0995692703226102
0.0996978366018873
0.101145061569847
0.102556926727892
0.102780644386067
0.100583934402124
0.0990175633556546
0.0996783821207904
0.0997580171513898
0.0980560654653087
0.0997121852561773
0.100279606131267
0.0982480604781443
0.0969814945955349
0.0993420862234742
0.0981411871688719
0.0987712718051312
0.102097724374964
0.100585921965053
0.0959271106472784
0.0957698860655594
0.0970158935009319
0.0986067764011387
0.0978025066410771
0.0961647882403192
0.0980987883409901
0.0957650088846801
0.0960133886077546
0.0982299191397861
0.0956350967109359
0.0993372662209781
0.0985998841333873
0.094603443979029
0.0950662503369941
0.0947709746679014
0.0947524419253805
0.0944781373905578
0.0975437655250624
0.0960960151562965
0.095538387549321
0.0936719475475174
0.0968010760222379
0.0956232432885472
0.0953974513249865
0.0944761241513992
0.0954099146538786
0.0965519299220778
0.0968897049933785
0.0959881420932644
0.0920714081993541
0.0956201973469169
0.09408976467341
0.0927248081090045
0.0934698246225385
0.0921106517495086
0.0921644767039061
0.095315470006482
0.0924080246453899
0.0945956574465652
0.0958266379506433
0.093023104145593
0.0937201388330785
0.094590128771461
0.0919450794412939
0.0956814303957163
0.0959120011943454
0.0932221209127082
0.0924189900609972
0.094866603009061
0.0934020530669957
0.093426246301414
0.0941274462064917
0.0939955796663424
0.0943108314533526
0.0920790839939128
0.0928734816803876
0.0952551627882505
0.0923561702803365
0.092295203653788
0.0916685354993493
0.0918507682595828
0.0966188558305652
0.0934414599427702
0.0942999130592153
0.0925836334044057
0.0932795260276946
0.0902019131947181
0.0909497930425529
0.092462599776615
0.0918462194008082
0.0915962273768008
0.0929216101262391
0.0907454396554538
0.0939664637836294
0.092908909402679
0.0926625756421948
0.0917142421509223
0.0920111872474014
0.0899062019622187
0.0908241458538194
0.0870755175824703
0.0902601655287463
0.0929210664927247
0.0897462803328076
0.0898445814177735
0.0871812738425237
0.0931379542500243
0.0918273423730589
0.0900586641438142
0.091222554263373
0.0907522016478756
0.0876153457613611
0.087209151052259
0.0874170652368644
0.0879617408437265
0.0897627586354513
0.0886725118859083
0.0849425045646095
0.0849200593420229
0.0864523154780203
0.0857095455113022
0.0864031372817749
0.0838235090793317
0.087269756971063
0.0838882840524919
0.0843717457827657
0.0867023778912508
0.0833985142758694
0.0843581842573427
0.0837433750041195
0.0863338215116888
0.0844248962451397
0.0813527083607948
0.0891418084365878
0.083322342758113
0.0874766294816197
0.0804147211554054
0.0833144948648339
0.0820373294808424
0.0809839165600662
0.0815748162016493
0.0818935607218872
0.0769100884331254
0.0829837848982507
0.0812199908982423
0.0822256655886729
0.0793741066380925
0.0792879592747099
0.0777873270446201
0.0827788862342978
0.0770531652712156
0.0777139633899203
0.0805984121075886
0.0792014087633973
0.0743112174277579
0.0794504829123503
0.0761973673990021
0.0773711326231945
0.0742273542463828
0.0800375319883454
0.0758487736809306
0.078785905381549
0.0747985450099364
0.0795402165826924
0.0791485255740357
0.076940065745804
0.0764993660727433
0.074051356528483
0.075123247589607
0.0772348762926741
0.0758465844970933
0.0760711089779893
0.0769881942733057
0.0738119739241937
0.0754213052471383
0.0751556176019371
0.0750005840641354
0.0755205383967223
0.0740719541093222
0.0745390822216409
0.0716903777698148
0.075394998300521
0.0726519433296035
0.0749585659680386
0.0698138662941304
0.0700744050779565
0.0790983676812673
0.077292529236359
0.0726966136303396
0.0703534370050763
0.0749024312972647
0.0719373751491812
0.0735958238901307
0.0736088841099797
0.0729456628554478
0.073057163960468
0.0738300311298775
0.0712075355906436
0.0707654016615149
0.0706385623820974
0.0694036735120512
0.0727674120301585
0.0715632652469881
0.0715657269820875
0.0701174527842844
0.0674913828496802
0.0716993706548252
0.0695850904734314
0.0719486838016414
0.0652696055409227
0.0735360719255698
0.0652693297659421
0.0701215566512221
0.0789384079240684
0.0714096784422441
0.0715051179842528
0.0672103868599794
0.0731689427424802
0.0650062654546465
0.070938027359929
0.0675315870625595
0.0709378695133571
0.0667659349798382
0.0702483241237332
0.0643723329161596
0.0677165657232204
0.0650111228352369
0.0680590991255782
0.0657326165621824
0.0722638309586238
0.0645619560060934
0.0711067521142262
0.0630365499622313
0.0729277165238005
0.0707140998941389
0.0675334583797763
0.0700713308303395
0.0722194900456516
0.0527975194931568
0.08655358385698
0.0676841796619512
0.0765581211474975
0.0610512177968828
0.0737193784655576
0.0609879384165705
0.0732420386843076
0.0626713486666537
0.0711235465183469
0.0676546679603154
0.0690357110883655
0.0689482809128836
0.0664134271832073
0.0651049967477815
0.0646465932465968
0.0653317041399161
0.0655915501636064
0.0668000587739475
0.0649776050406742
0.0677044496916881
0.0696283158990871
0.0616737051708988
0.071850778758493
0.0623817714157227
0.0686944379029473
0.068783835830531
0.0716077653723248
0.0634745192394332
0.0706815987418201
0.0605763742650273
0.0681637747460184
0.0823148577029583
0.0675063003346902
0.0698147712018483
0.063344375148576
0.0699752285683644
0.0682207342211637
0.0658110006328582
0.0634905023299517
0.0671776849436033
0.0645772919954872
0.0665877968094296
0.0634568151489816
0.0664667217048126
0.067089139997905
0.065984459412022
0.0675427303318697
0.0668559347060047
0.068729058461373
0.0635779254682121
0.0710015470959462
0.0575796765845907
0.0712551963352016
0.0778944476405505
0.0724012084272373
0.0732923202852815
0.0750782673498416
0.0694621967653775
0.0693244052864597
0.0657636435539021
0.0677443657659665
0.068052019445219
0.0667598485715001
0.0681333548906808
0.0673904302738512
0.068060262384418
0.0646147799426658
0.0709854808174106
0.0635484962839006
0.0678633522385378
0.0626332241120616
0.0677376935150155
0.0616049337140199
0.0736107667553912
0.0586237683454396
0.0755412337095917
0.0633930959380206
0.0794758845867669
0.0369154444168202
0.0866284311117661
0.0797847895254549
0.0693657396537007
0.0773046196175238
0.0638880970677569
0.0746880603766565
0.0636338530088105
0.0686874694505379
0.0720726611787492
0.0712283854908567
0.0658675538222831
0.0704358996160123
0.0697856472952229
0.0747480027476949
0.0582056678807958
0.0608980907056008
0.093315268657667
0.0674992083439446
0.077979839738147
0.0660062250872244
0.0626157146283373
0.0910631092626857
0.0645054981163073
0.0782049869683526
0.0677193846789704
0.075590096555046
0.0711315304551575
0.0754719155656863
0.0677507898510079
0.0754418608416264
0.0715014790939331
0.066562595669906
0.0722771150267092
0.0674201128490767
0.0741340006467347
0.0681762652092316
0.0742528508430704
0.0858431482086601
0.0684562292976058
0.0790633292894262
0.0738981428759667
0.0723973954297138
0.072551791141319
0.0793980608070558
0.0686817310873782
0.0750935697276636
0.082735724027189
0.0673736061401728
0.0832899267129353
0.0823966319391613
0.072734011390494
0.081741698953687
0.0706100676011675
0.0914233531380333
0.0639348811471648
0.0720555704618314
0.0949528510021217
0.0684853713823134
0.101376026984661
0.0671081371519813
0.090714189319636
0.0679114120055784
0.0906362160343935
0.0575233177429702
0.102925287874095
0.0726352382014277
0.0921007175483724
0.0690572031154394
0.0857691483774433
0.078985845177782
0.090480996894205
0.0848060468951964
0.084030172389579
0.0753625072418093
0.0888022453038786
0.0886786215945125
0.059844574242623
0.105310565610393
0.0906230383911626
0.103246262255832
0.091132340795244
0.0664966569030227
0.124004789627769
0.0816582690063081
0.0983084798951046
0.0802287116568709
0.0960528001642435
0.083985113266188
0.0721796331570256
0.115377799893841
0.0938035782929599
0.0882453544184013
0.102062255031649
0.0720002906578926
0.107658241715749
0.09615138771737
0.102012533170576
0.0892091660551321
0.110304329487492
0.0641959961832941
0.129184707461853
0.104117593452561
0.0997275461007041
0.124125039092056
0.103538447197365
0.119002925053738
0.10822680633148
0.113931156395114
0.107628935025527
0.130161637947163
0.122692182993015
0.114305929012967
0.116621067794435
0.155328782363025
0.117406580441467
0.151597989144962
0.128139004926756
0.127528499289004
0.129296580746934
0.190678211238007
0.166640573124929
0.160968351629355
0.132113934433378
0.175910493041773
0.149888233458622
0.156998716911005
0.146000945370482
0.150709329879385
0.150089323419848
0.144975952852357
0.16239369144314
0.148627515224811
0.149869722878809
0.155042511054675
0.134719274214579
0.153657755033276
0.152110391563666
0.196238822580472
0.134057786189309
0.187592034403115
0.154178721568709
0.165941718716909
0.156658589737802
0.152881750325898
0.162382030528974
0.159873088971204
0.165716950780787
0.149378178992943
0.177202184063179
0.171391797582811
0.154061951020905
0.204618183849099
0.157245274518288
0.184413052626003
0.0690471471843508
0.373708891264661
0.184914772213101
0.212812195121982
0.188801352038477
0.160289477343927
0.261958333711022
0.219252204201324
0.216704845255349
0.228442255209854
0.220122702269023
0.229756971137417
0.240879838901632
0.240202288956158
0.253717620016265
0.266127348799619
0.242193885345915
0.259229418277907
0.302824927949125
0.31386830040791
0.314857176246108
0.287063281917774
0.311388152080072
0.335464064974818
0.310369202696222
0.333097644605301
0.330725318509484
0.294789955075713
0.415074383422313
0.347223386559674
0.376047831681279
0.347919668203108
0.416753839521515
0.3520706908476
0.415181855356182
0.427223744416492
0.411263673177083
0.42491818454284
0.413683450216548
0.44264817731355
0.410344691373908
0.480496390977333
0.46377769979818
0.462601649672633
0.471049964166361
0.465948063245102
0.478872063038161
0.489406120713126
0.498181888383921
0.472972513164932
0.532941123538014
0.448030078730655
0.586185664129559
0.54966756671913
0.4960278860816
0.52573313433785
0.477610086378436
0.546290437434735
0.48867607704903
0.555602865863245
0.540545693471143
0.510124614707511
0.52610136300609
0.510608339097353
0.523524249729587
0.507378709291554
0.53172789615689
0.503784072079892
0.529495288806446
0.522950776964562
0.470417729483721
0.60969133553373
0.512908159630734
0.538085574296868
0.516880488098351
0.535133392150354
0.504967725063578
0.526973883256747
0.487386322084616
0.539841855290346
0.499713302907344
0.539533849231939
0.48378782261831
0.523660979870099
0.528338268535565
0.483522069852545
0.494884428605974
0.485214161120814
0.489940707887293
0.472913804405424
0.416712998822761
0.546038047535026
0.471258164904994
0.488855858325522
0.46391185264547
0.469557567653252
0.451873344080168
0.462310672606005
0.451671132179984
0.473519347991618
0.446490599433627
0.470441327091672
0.442649669234193
0.459814849980155
0.448176676216336
0.454746994333219
0.455796091298677
0.459436940961061
0.443766218455282
0.447943529163161
0.44829734376984
0.456159990923686
0.440448697040733
0.447155807729385
0.447700350470887
0.451514559281343
0.434077774695489
0.441591552749924
0.443044611350647
0.443848977661289
0.432169350622098
0.438352522113098
0.432627028176215
0.43353171995569
0.440641660567011
0.431390690684048
0.437663279153618
0.433439990785542
0.435670274955954
0.426621550387002
0.438012851987995
0.424124808677177
0.430394912032779
0.38871144015053
0.45195881975833
0.458758710290789
0.402255064622301
0.437786657155363
0.390235007400238
0.431478527072237
0.385355961774028
0.424992930823507
0.420385112780437
0.397780686237316
0.402330448747674
0.397257284612773
0.386826215438464
0.421294474267156
0.371596847987163
0.398698929891012
0.35240855054416
0.359581809322926
0.447725764852383
0.314785638514834
0.457434625413549
0.385687455944198
0.372374216096298
0.330536140933795
0.416398575902099
0.352994106312817
0.365923027427037
0.353757724729658
0.362379783582996
0.382562162939753
0.341412966869119
0.365741298186419
0.337073753576249
0.331322193422785
0.377519446843756
0.351250992222351
0.325084687613452
0.382632801280084
0.332211965761429
0.349085475427163
0.365452636702087
0.365349669915133
0.330527523062977
0.329603691628711
0.329876473301188
0.30178067889344
0.358082481918622
0.331203113102971
0.317766908229525
0.322477478080828
0.296267182314014
0.323109780988137
0.301461738245605
0.32627181455449
0.260902501390095
0.34808478713749
0.291525414960619
0.285661710476636
0.305128484233313
0.293669066869001
0.340695953216426
0.301700292798403
0.289574253552803
0.274655783669147
0.337668885993558
0.286815049512199
0.298769025125677
0.286546517933288
0.259630446432537
0.30425395539481
0.277753426549603
0.265001000771116
0.288279417216282
0.258616352654792
0.299057856884797
0.294909706778892
0.303213461572367
0.286938771087176
0.261951657149766
0.269579931065116
0.262887916364866
0.275492358480137
0.262329029319631
0.244338946827681
0.303761003879128
0.22945989274276
0.313648863173912
0.28535783566757
0.273668947249656
0.279822835201073
0.280798108491639
0.276005544241351
0.294134786193363
0.303210258122072
0.310553839514216
0.26878240801878
0.321110458655773
0.294739054004171
0.310383033296462
0.302515002418675
0.316923074633318
0.306760170056625
0.328358497510563
0.3315951301537
0.334504801084422
0.334689139497145
0.354746618699705
0.320981368788881
0.400464434244053
0.344531436559655
0.366998665915543
0.396499314034376
0.399080193333927
0.424452497956987
0.387385725196969
0.416291034787925
0.414080120341795
0.418839002287366
0.426399146670542
0.40682925456468
0.468627433644386
0.442228027221374
0.451124528978988
0.455627555949648
0.456931154372849
0.454756969799621
0.459817036846109
0.491929791998412
0.444729305630181
0.548609369589683
0.466005838990491
0.499526302843173
0.482684256407339
0.490347016670592
0.495118562771975
0.485199606298686
0.504270250027848
0.481438154276577
0.515636167919663
0.512464191264613
0.496486889962624
0.518738440175284
0.505986468333006
0.515717693892297
0.51223796031171
0.512701342847345
0.517138076219359
0.521801701825594
0.535280141241345
0.496198868472776
0.568040864418519
0.57268243538148
0.527227410950712
0.563864102784343
0.53992298855445
0.565190457944085
0.550572162219876
0.562492759301839
0.574593413969782
0.570411502492773
0.57715245518976
0.578845106484351
0.581978302014122
0.57820893824854
0.60542395830119
0.601225895130934
0.588995161170303
0.613723247790596
0.549321169965276
0.672980685903976
0.595358876626434
0.632214074545189
0.613714771880915
0.615563062785044
0.609061260631688
0.622590876667158
0.610708583944815
0.623692010960606
0.615253365316374
0.62137459077953
0.628258019042405
0.624597046694315
0.624815471094604
0.6169082397881
0.630879736831592
0.633712198988835
0.619483924148828
0.626447251381921
0.623080545851187
0.627388855844748
0.618053984909159
0.650075944734339
0.617700000617144
0.634174850314878
0.624515561471939
0.6336733784778
0.635304129218893
0.627464487581163
0.624098670877759
0.636495721943825
0.617844124358866
0.637994867848304
0.610173985359993
0.660833432706925
0.642081362139565
0.641800436835568
0.637834526362844
0.656605312683018
0.654404194627085
0.650975768106428
0.648964442243457
0.662279467792435
0.664655466477423
0.669893683361485
0.662363050503809
0.658408783295358
0.663561140742075
0.664260974642572
0.676213864819656
0.666865073565614
0.657552007436239
0.665256912840601
0.644129510543058
0.665798057198416
0.652452192743665
0.647438450935138
0.637775491769426
0.640829683688347
0.624801688019675
0.63844616441004
0.634774020080501
0.61807233850565
0.630515543709823
0.595110578421384
0.608865560698443
0.598566609966409
0.598969939700176
0.593267762221328
0.589510970237619
0.589789839875522
0.589681205237129
0.589791989030267
0.58296218098957
0.575551525252728
0.574140004696928
0.581461124478997
0.580648951080034
0.576388936963563
0.573145756698233
0.578079006354224
0.572853515605187
0.569656996688289
0.576386086825587
0.58072043133239
0.586315222612246
0.568733422398353
0.582463380104844
0.571021584903854
0.580839725245539
0.562708151514517
0.567353940215255
0.57057426171519
0.574248414476072
0.568907936372448
0.561685261080102
0.567007640086659
0.568353917127205
0.568847199050839
0.566542024437001
0.568804008769406
0.56520424931644
0.565167744139886
0.566344438630587
0.569812087516486
0.564757740511568
0.566755827512512
0.561731145295887
0.568987785504824
0.566831143794022
0.570955362043213
0.564160433501985
0.565337683520555
0.566483612307992
0.569261057475286
0.568237416124085
0.563706274402959
0.569426312543417
0.569279565379692
0.566372890562723
0.567043813309099
0.562321498878298
0.561735663552483
0.557135304957081
0.561312893543717
0.554331173180053
0.556550447880682
0.551077816625375
0.542208371264216
0.534792470184886
0.537518349061452
0.532466862437177
0.532748124798807
0.526788130189299
0.518388127982734
0.51841380346132
0.515360126818807
0.510388540804155
0.505541510003332
0.502322625052527
0.50396776847689
0.502648253430182
0.501466777578925
0.495788445727374
0.496710347062591
0.493816891729747
0.496708346967758
0.495309665754117
0.491962313509497
0.490920215465013
0.497252903368806
0.495151394429462
0.494642288485318
0.498275756033354
0.499508080309813
0.504294945995134
0.503150167398427
0.498987974359608
0.507033709374819
0.506564815334293
0.502645774661578
0.508346009063643
0.510874661946441
0.51688688960276
0.518458383868714
0.518170269611681
0.522089816229473
0.520821459010161
0.526836822583704
0.524581713424805
0.525171940002675
0.528728882558487
0.533707878547816
0.530293378987232
0.531352543243736
0.533911062220506
0.521411137365151
0.524968364813114
0.528141020693036
0.520431392865234
0.524257028318875
0.527614402595597
0.523775495552571
0.521583842412456
0.518732840721504
0.518834883407407
0.511197026748434
0.514853770294148
0.513774238841547
0.509653561737452
0.507757217764779
0.507437250043806
0.504405248645099
0.504021032016624
0.501940246764259
0.504859897126715
0.500956148200615
0.496688501121567
0.499497819124167
0.494040356501187
0.494020958728664
0.496225791474967
0.488345060889398
0.484577232965291
0.489193393151343
0.482743691476635
0.487969666227761
0.486796670099739
0.487234952619143
0.48533928174293
0.480935756728951
0.481937302561554
0.477880314053312
0.474230631188893
0.473350105114026
0.474265971685217
0.468117531207202
0.460939310263419
0.461523999742255
0.457024472138166
0.455586053666788
0.454584245064642
0.45013923495364
0.445513704855938
0.44504305510347
0.439924802399091
0.43486049164878
0.436183073436181
0.435719232264162
0.43188654433493
0.429975098448949
0.430575983882747
0.432358692748316
0.42625343280275
0.42517350959929
0.428414393009302
0.4247389144046
0.419565606221415
0.421089738729394
0.419004934399972
0.413404221201883
0.408699869749293
0.406398206085882
0.400917112747237
0.394590607421415
0.393111236107945
0.389095904701222
0.383470988754834
0.380787248131364
0.381497577140772
0.381089634673145
0.38079336694393
0.383212514747271
0.386732544424957
0.393454139417903
0.396200926517117
0.406913260002309
0.419029517196959
0.430667777396008
0.442571142048588
0.45757793078311
0.472029715774637
0.485985772329683
0.502517970496194
0.518405062653349
0.545021090269881
0.559049105344066
0.573710348667311
0.593191597632478
0.605504510893613
0.623872820086271
0.638650766152916
0.654137185085043
0.66745725348962
0.683174390170152
0.695434290987827
0.707506240111921
0.72246383412321
0.740233528061748
0.744118506916401
0.752960480458889
0.767743837905832
0.776356019879207
0.77825693456149
0.792240533624799
0.801787910500889
0.804517099818462
0.80804169130674
0.814383664823827
0.815807090782569
0.819307278400208
0.818078146528448
0.826774477467039
0.821997366564225
0.814668679660663
0.825892183659038
0.819727010340851
0.821840540191582
0.827369489322564
0.835061924442892
0.834104104959957
0.833552400743107
0.842346894528645
0.838246261368471
0.863260493194345
0.860748157077724
0.860969280591682
0.865315669768063
0.877758873365892
0.876902036608031
0.886438311824546
0.902287967499594
0.916496224094334
0.908324680002024
0.930319869726928
0.936203551759949
0.954481999552925
0.960461024461303
0.982619920108066
0.978679777977502
0.991296677262795
1.01331923967999
1.03417873049393
1.02653079322956
1.02549532341629
1.04881617896691
1.04525472818105
1.03540399362876
1.05172303612642
1.03588189462628
1.03192034410291
1.02219766365228
1.02294965251528
1.0268021615457
1.02815193152036
1.01270474371255
1.03460251514959
1.02795183707263
1.03201729426523
1.05339318206739
1.05787686994589
1.07167136470623
1.0788612163217
1.09417723509716
1.11418459121157
1.12515613538865
1.1434083596534
1.18064703361304
1.18398840093704
1.19951680352182
1.21160711135637
1.21034213288937
1.26043296500208
1.24555375354061
1.27595420040378
1.26304091884702
1.31417769198631
1.31996118533139
1.3379286272651
1.38206762932817
1.39918920481919
1.3799408038722
1.40728050494432
1.43142073648132
1.48493433991947
1.48423921608081
1.4932281191838
1.52615819298804
1.54832995582318
1.62004907391369
1.63795192464995
1.64327503846652
1.73561731278146
1.59426884068749
1.693796281427
1.68287532254737
1.70750704728049
1.69549933251739
1.72670801395982
1.67520602115129
1.68796445980513
1.7038903021123
1.76558082332973
1.71888835288866
1.71740217881457
1.66190909170198
1.73954546495868
1.67515612387176
1.66449610867982
1.67932486032522
1.66526318530435
1.75317281058451
1.73937774539647
1.66847543396932
1.72387203193041
1.80495230714262
1.75764094853432
1.8236352063306
1.94338230099495
1.79707266000769
1.88175142962315
1.76308795424726
2.01034039944345
1.88888222561389
2.16380689877462
1.86062310573307
1.89925679020137
1.87642477954773
1.96803834581297
1.96591026856178
2.31206067365579
2.02188833422371
2.00289942805949
1.8948583876359
2.13701642768391
2.09246481164877
2.2011605893432
1.9019026180354
2.05738442368157
1.96195289985619
1.84187441567869
1.93970458445477
2.1594251360576
1.95232491019157
1.94914513531511
1.98463001872624
2.11586092968299
1.9171882237563
2.03387958952067
2.06968634849633
3.12390996151727
2.06148885940992
2.15343317958425
1.95196302952137
1.99736228120516
2.01116260331165
1.93935617545046
1.8338593453846
1.92661906243691
1.86260846947658
1.90871714288961
1.8527632982365
1.72163006796574
1.66853139532346
1.64038857483058
1.59988679727806
1.58887623824389
1.54148779633285
1.50788037192013
1.50913149018472
1.47315490177135
1.48812779896901
1.46965765663749
1.40215037553843
1.41324163355272
1.38222872152668
1.45539871697667
1.39507061678909
1.39340838442595
1.31575776359859
1.38107260467929
1.35075885465013
1.30193195476614
1.29025106913932
1.28236882446697
1.22088502224774
1.2251575984528
1.20069504136931
1.17323005085355
1.10545447438626
1.11284403214187
1.08553078538253
1.06389040628596
1.02328089229835
0.975523601313735
0.921118431004954
0.879782789888486
0.84793453350217
0.819108805516808
0.772346915986369
0.747758533461126
0.713422678440719
0.687703409148652
0.659183891461702
0.647424143356357
0.619955674178324
0.602748276352795
0.58002903194123
0.581787829665592
0.557637691679232
0.542443814371909
0.542410828450484
0.538697851522547
0.520266221796646
0.515937658657316
0.513560704553628
0.510242155959339
0.512169362810329
0.500272300271784
0.500388114890716
0.49809490363415
0.496149658813782
0.513924688045554
0.499667580866079
0.519522283698106
0.514746835636793
0.506819715484008
0.513130911095763
0.51659590037925
0.507632608400809
0.507232229469596
0.494680368804286
0.493674973765203
0.497339651230936
0.490552840144307
0.48667994655094
0.47593204140653
0.476350803481179
0.47784079560605
0.471181317425478
0.480386365273753
0.468436388540186
0.466095481416234
0.458088757109497
0.46420427157534
0.473771082775369
0.4786956625306
0.477052190280482
0.474652937044501
0.478617646136948
0.480877031012235
0.487767789161709
0.490098895438161
0.498316672689372
0.490710358929481
0.503629640162405
0.508743709293986
0.509196244789964
0.507337783135602
0.512216468353392
0.50549687374903
0.518807837999159
0.515995580344065
0.51540103961188
0.515699619904152
0.5018179650149
0.518737323700208
0.516629254476255
0.528136408952815
0.523290671846025
0.525750943297541
0.526475360208306
0.54028833579519
0.541881271272063
0.555358786308649
0.56271522392777
0.569958493085365
0.590055025368216
0.609980833359734
0.612504415470832
0.643802637484286
0.654828280378276
0.669220870391049
0.671250958052453
0.673060467466741
0.671909677339755
0.693210707289624
0.671440879874667
0.664043693016795
0.661656325003172
0.655021451519473
0.629115858146903
0.646934449957583
0.610156960611054
0.628024779181065
0.617724378607155
0.601761444506073
0.612411079604629
0.609215615887534
0.614501265841463
0.607753565124416
0.606421900261356
0.617953562122998
0.608325401428857
0.62215488071739
0.601163240198161
0.597828952891117
0.589083599493309
0.606531951687083
0.581867423102295
0.576410972808436
0.580518454336417
0.562045357206853
0.55713384309644
0.576009866040353
0.546965496390674
0.550502810341316
0.548729040578629
0.555529429975328
0.5510540399551
0.531392192627016
0.514749805951155
0.536480279840117
0.51684680068245
0.527708544681298
0.527063731578176
0.52664141702313
0.521995169540754
0.52553341178294
0.525199671390754
0.509579991772033
0.507561231534871
0.510916533893852
0.491873682942313
0.513888364929282
0.494446095573235
0.491400926754053
0.490254852386197
0.517929985643285
0.489550559081728
0.480146900607963
0.493818528011973
0.477904042342157
0.461750292393559
0.4803792526268
0.481016704820439
0.473706649129805
0.453735458050104
0.482718297639319
0.459216305634835
0.470773199185032
0.457205002911513
0.484801742671436
0.465753422838401
0.459095770718558
0.454188237024332
0.474159319275835
0.465877720408159
0.470729890506845
0.448962762815683
0.475086593653856
0.482376445368087
0.492690469046049
0.448909614013586
0.488775384077338
0.479947527332865
0.487674943404814
0.476396411102679
0.494889310241968
0.484736568495893
0.508255048769523
0.497972937239639
0.508441908432006
0.504268138155683
0.52110451391007
0.486822630178063
0.499917816340035
0.499639927794461
0.525055901680889
0.518425293804344
0.560663054377233
0.528592878013968
0.538102322467528
0.54001084160143
0.574861646546887
0.585910744686921
0.579040301978722
0.581150307875878
0.61825987921563
0.603684561393466
0.669241968588146
0.65058809545012
0.696993691502825
0.678035730358536
0.730569456544536
0.665405526157054
0.725614819997178
0.703771991467079
0.809081589517226
0.811248253821412
0.797878479343051
0.795757455611479
0.820104734777707
0.836130438718669
0.846171595660586
0.79053807384251
0.841149145406456
0.778257987687893
0.781284889754796
0.765671801227757
0.815559640085101
0.798148696463247
0.79292150583884
0.808904730061167
0.83166560238463
0.768376965942183
0.847544367207088
0.768508247458998
0.82701053785133
0.824413258242062
0.821875878300039
0.739074007400943
0.791354453440964
0.726568504969344
0.740357802878784
0.7214606051378
0.718739820229324
0.720418708636908
0.759121917542765
0.693755919824756
0.687338736592318
0.669673663477151
0.747987358295407
0.686090210310192
0.763475409767838
0.703727586290902
0.731101479193656
0.707872855826537
0.733814141150304
0.660559242580156
0.696329666959637
0.70229300062446
0.730701859131751
0.689281235730172
0.71690296044567
0.680473143231786
0.769100800330323
0.690027590998899
0.796691206930361
0.667432273745507
0.765754687363342
0.734448965980092
0.70831566301333
0.736516738146672
0.796089959901276
0.698594692792166
0.755718409451397
0.677951579229668
0.748751350657432
0.759187011188802
0.77422504960924
0.705518858751017
0.725679209823582
0.704514008578853
0.758165108919027
0.652041194794647
0.758015853545404
0.761371392393743
0.74603330927349
0.791768443038473
0.887125820075282
0.794867071398872
0.869275920532667
0.768815083181203
1.04664413972635
0.895568999560564
0.907625276480804
0.746400161525999
0.986022448732895
0.807410167770833
1.02115059762699
0.922107448061693
0.960815768632875
0.893232045117361
0.883339958207246
0.918478576693101
1.12159409247096
0.994620267910507
0.974848467951224
0.961235970572691
1.09895075582532
0.84908752061253
1.04353414228649
0.935988452730684
0.830753268687849
0.812392060209201
0.99387386684926
0.855933203254718
0.93986038570884
0.806524129977447
0.8965198852368
0.969608504396635
0.92852344569988
0.807155934123217
0.941657110137121
1.04543251727998
0.994962817066118
0.787463315393826
0.812799065675077
0.852032173746035
1.15359736344866
0.848222706515008
0.991439428522787
0.983201556304211
1.12388448884318
0.792423382921365
1.24100388099403
1.08202696305271
0.981462610415156
0.719968284685439
1.33727453159557
0.899716507867813
1.62477253058457
0.585778817370906
1.57038980910169
0.861854154096941
0.762767039756058
0.500575869057717
0.704791522427703
0.585498101756859
0.80711243683433
0.790439384561796
1.00189423566492
0.794009075174481
1.21416798018977
1.34758536675099
1.51277964454654
0.924547505977603
1.87998245084132
0.803583245089298
1.57156887917616
0.813924474007982
1.59618265698947
0.912222529709327
5
1.22311567028176
