3596
4000.36533379555
650.420452594757
1
2
2
0.0549071951450198
0.0468674432287273
0.054967022327351
0.0480558537879703
0.0650867339543202
0.0498040695443455
0.0686111910093745
0.0472746292372927
0.0635067571675898
0.0457804862489807
0.0581676833882044
0.0579722950884733
0.0690060715609366
0.0383380890664161
0.0673922721630465
0.0487414127689885
0.0696740338854889
0.0398724523190486
0.0540737144774393
0.046059787021608
0.0698579428111643
0.0654486135017821
0.0789188619798034
0.043024398944764
0.0606483388075982
0.0540649949986235
0.0538012957965795
0.0368149962245992
0.0725667421730601
0.0460921028729773
0.0615014967866126
0.0442909701955574
0.0719264175799425
0.0461749969063722
0.0673829055632794
0.0495552710056317
0.0617536968181257
0.0441961200197757
0.0677094740291829
0.0433780540628578
0.0692349751071579
0.0452930509519478
0.0503674602914531
0.0499244842002371
0.0641718348039156
0.0477687826946393
0.0515988914981604
0.0485312026887138
0.0583862956438622
0.0514623659099398
0.0755341010256394
0.037638824651047
0.0712900978040405
0.0445632111768351
0.0561177024510584
0.058308149427725
0.0595585240965419
0.0529427271701914
0.0570685030333657
0.0232526020424393
0.0735112375122653
0.0548631502218355
0.054908251568135
0.0483297831828685
0.0698627373523422
0.0493214443777165
0.0577408541676553
0.0440499481955359
0.0509755173538493
0.0345367218453714
0.0455672923651377
0.0589640199075926
0.0739035787130515
0.0481042622748553
0.0639785095483978
0.0364545197912974
0.062139755348559
0.0462757562626946
0.0505233099206165
0.0466810310321754
0.0646926161221592
0.0486507154024162
0.0539866165193636
0.034614557505751
0.0570026337185016
0.0558759011609134
0.0525248326675593
0.0266999455065159
0.084989656976035
0.0517534233102512
0.0589367779620182
0.0360569944081058
0.0635290719845497
0.0439099458221702
0.0516183874766878
0.0394148568311419
0.0526045405429745
0.0390246949761005
0.0570642954681766
0.0384826898342743
0.0552737698447502
0.0232247166597776
0.0883186633869424
0.0305786202960504
0.108218859756817
0.054661048677013
0.0407587765795919
0.0704245967369662
0.0870183966023537
0.044563138655528
0.0468681916042331
0.0386742189328956
0.0593798931434837
0.0420334447558943
0.031052644615
0.0364201415265648
0.0936260032339178
0.0517475014311887
0.0517493815824644
0.0303641358200701
0.0214718567326358
0.0381678688241789
0.0920955958945977
0.0417786585736221
0.0759498401240095
0.0380358519597923
0.0325932071656341
0.0595190587372177
0.0909962520438569
0.0434850710845932
0.0542563714109136
0.0368227361563866
0.0419340869867669
0.0177218030519986
0.0752781130326062
0.0434900890650225
0.0513355899384201
0.0166978313529476
0.0739724982343045
0.0776824524324753
0.0756630742264676
0.0380985398368956
0.036387203058302
0.0201026324072047
0.100013449899909
0.0521523217678189
0.0426319070876375
0.0462108724966454
0.0674990861234341
0.0311176435473891
0.0502170241122329
0.0178806889620815
0.0725396737870551
0.0426054622222242
0.000508795969393863
0.0542812057782844
0.116004127571356
0.0553979639045162
0.109251015620567
0.0420229708807974
0.0635442618608201
0.0445668619179745
0.0535930055379083
0.0277949031111666
0.0522073695332735
0.0229394110647953
0.0492554349553054
0.0665789702322388
0.04686519149732
0.0241317118018535
0.0794709726159883
0.0286662799236526
0.0433079852141412
0.113765743196519
0.0696146677262309
0.0186097173187266
0.0828725289211689
0.0595571134382803
0.0386713253230818
0.0333367748659654
0.0896251390480689
0.0493831969406967
0.0439939502793003
0.0286093117838789
0.0398214606893336
0.042505608346478
0.0664885745174374
0.0402790306627471
0.0512114526897087
-0.00518798884558992
0.0485086505266508
0.0836926189522745
0.0935680328434183
0.0425481402297752
0.056107766606206
-0.0175551259809343
0.0951743625805514
0.0633147485736796
0.0578782205212688
0.0380955775924392
0.0528793278724303
0.029090775618677
0.0434768023943299
0.0404875255182177
0.0427842223751214
-0.00432058201504956
0.0989494442808495
0.0631610321732179
0.0512520875861081
0.0316466288490263
0.0452993556787306
0.000928438115868996
0.125534561310033
0.0746885116800546
0.0576175180209781
0.0430705960156857
0.0333674821496306
0.0330989706365684
0.0742366163739227
0.0369940652313806
0.0591146936113917
0.0349117408955374
0.0640932693907283
0.0372764659882634
0.0540317470328312
0.0461364918167051
0.0532922771719571
0.0433287465574829
0.0442092617804973
0.0414707260305679
0.075995665373922
0.0339695364635031
0.0481251975416275
0.0388623796238836
0.0487540684274425
0.0404310171428443
0.0830726712169578
0.0453632589493191
0.063753681379074
0.0397760729986331
0.0501681012521495
0.0376105258496035
0.0524747163417402
0.039921479049864
0.0380903024923435
0.0241663287297471
0.0934154503504112
0.0447677218716748
0.0552939099214831
0.0130210685350246
0.0692477430717532
0.0600389907533602
0.0691651493021566
0.0373775698882171
0.0631124364585986
0.0202513960179325
0.0522289108427765
0.0717221657015213
0.062843468766719
0.0203843510470639
0.069860327499934
0.0445482126494479
0.0612584564052398
0.0168420402681507
0.0289791433109064
0.10142918155212
0.0683402257423099
0.00345824532369656
0.125316030308192
0.0598352565628526
0.0838187229540386
0.0298915364068157
-0.00841885769718287
0.101435663046454
0.117618857134269
0.048314781997847
0.0587930044901778
0.0581923026596175
0.0526744978509522
0.0424136304702474
0.0547307892118104
0.0431242122163878
0.0687264409342228
0.080595337863
0.133958199908406
0.0141316352931182
0.0791054915318745
0.0569256039851485
0.0609528364814071
0.0431018526790725
0.0636526547208373
0.0367196210401696
0.0822094800507952
0.0527504932438398
0.0782132797119525
0.0419199237713526
0.0786150930951546
0.0733355754395243
0.078906884277416
0.0343858742438608
0.0690126159829123
0.0589168543860438
0.0647769681540416
0.0595344925217728
0.0507161510861109
0.0477849478059903
0.0419123327097756
0.0160092598606096
0.135391980852457
0.0605349936338406
0.0535302275039147
0.0883545110925774
0.0729273468678118
0.0508536047743948
0.0678770745684935
0.0555290599628056
0.06731447827463
0.0374588235557314
0.0529188338160952
0.0809809155984321
0.0762966533033301
0.0631679187082196
0.0674117576160762
0.0589063798735111
0.0607444165282366
0.0623291229246194
0.0663105522642481
0.0531134776672379
0.0716688286447396
0.0422996820562538
0.0940957616120899
0.0728434983093709
0.0427289537621961
0.0815383940367393
0.0972846052500088
0.0655832331747543
0.0760880383826461
0.0605161382710502
0.0809789894142382
0.0668483194202427
0.0844620185996988
0.0591938591597947
0.0733643858046816
0.0898152021332271
0.0950788209492537
0.0425940744770223
0.0668977261905721
0.0880216642910084
0.151893287919056
0.0993356251807093
0.0920074264896544
0.0417053338409824
0.120823443057271
0.0904732115777325
0.11667003258573
0.108350446769812
0.103460155090048
0.0878270969396566
0.0993231231662844
0.0833264669675081
0.106289712091427
0.0900073912508338
0.101985408033955
0.10116846303711
0.1023837687973
0.102742216988182
0.10908283526657
0.0884740525562116
0.156329022890615
0.113894104493346
0.117112728720326
0.102189707123718
0.100836198773828
0.124144356830232
0.139471773812109
0.145911579217221
0.141950996117368
0.118729365442357
0.168980554042141
0.119673861342837
0.142658905889033
0.120606110934254
0.141993979765068
0.134228137131054
0.154689791753208
0.127527862364546
0.148455128702094
0.130717010551284
0.165119870865511
0.138827983938958
0.153127115261429
0.135059473250412
0.189799933162516
0.151188081121843
0.175314946913124
0.136730945962357
0.181169199823329
0.196754900707094
0.224675309859106
0.17468138381774
0.188741046400761
0.177346315056801
0.196314258168305
0.181840080651523
0.184472243900311
0.176077909391908
0.189216237046942
0.196887372422746
0.218695165801826
0.199879874546773
0.231551360812043
0.189615592273493
0.24454490434933
0.200012186749365
0.223167322134014
0.240018295834794
0.241656485549597
0.186865301432856
0.275333062358765
0.228515958635805
0.247602386924365
0.240092665377578
0.247441109412997
0.239724994838951
0.258641421096962
0.240313433011098
0.265397973881822
0.262035129302302
0.277828061496195
0.263871752766875
0.284597511838653
0.253196435884367
0.27368774912646
0.275006831770064
0.284916653060479
0.277955857200391
0.316554304036043
0.276961267482745
0.301688131107159
0.259559252642034
0.307461558746031
0.300851842126655
0.330727384157124
0.319444216451601
0.340795903028408
0.287264603390039
0.332338843762673
0.329436556354324
0.36273137669369
0.327454673616881
0.349995783871195
0.321258943515768
0.352897832160671
0.334090117641993
0.371934883885911
0.348870665255763
0.369634230406791
0.360059611590917
0.403248402798125
0.383754917978392
0.419896574308767
0.33994308370957
0.431328084450988
0.391320571976919
0.439037659257961
0.422174850385565
0.421389310502173
0.366615646944799
0.413279961921275
0.414629815277945
0.420468699532255
0.430586244121225
0.449228776418791
0.419392589833096
0.448847217449923
0.449985849953506
0.470273115492049
0.444445626210679
0.48656618270103
0.464658484299474
0.511278018432264
0.482398130980032
0.480867837454678
0.467973165309283
0.509005195443397
0.501584521233479
0.51099002634844
0.483849395164247
0.549394457992816
0.499117744344061
0.540160031333918
0.473011862177565
0.547344548022649
0.501074089185295
0.562119177376646
0.503669113685619
0.542205578531132
0.543519886736619
0.61258483794905
0.557604280150291
0.597127192008572
0.539127844644871
0.623483397145182
0.582468813428184
0.619326794085748
0.588648557093097
0.647192020376704
0.595012736529663
0.626934566105152
0.583449676756042
0.629607023860763
0.628440683287498
0.640606253615746
0.632293480056521
0.679479533186199
0.611198515252483
0.67048799596993
0.637869129470659
0.692807883445116
0.664774995778629
0.716388329546953
0.631491491698342
0.674619143906328
0.676758704561187
0.735431444619796
0.691514287437757
0.758427285913119
0.658901207539817
0.73887567491219
0.650018963059013
0.759527172275792
0.691150143674159
0.799328709166932
0.723494831879852
0.780063242840325
0.780525523739526
0.748470059263676
0.741517027964823
0.79018805772094
0.763299381017879
0.806232034512031
0.786931434356661
0.834156377302204
0.781236509149193
0.843514573135258
0.806126944031297
0.929515016544555
0.877674875462604
0.93208839095382
0.813250679406418
0.886976558975019
0.828414521726446
0.930976661700873
0.817249221035651
0.944073293573474
0.840887160756321
0.89437409075923
0.841944789967776
0.974253204965094
0.885278455870403
0.988024647058265
0.845659661062421
0.948863972656264
0.922227263319968
0.917476690451004
0.855881259664477
0.937124754689398
0.884334258079771
0.995226370307993
0.866778702829069
0.946387245906475
0.920114321164949
1.16905225080316
0.977497807336204
1.00391885268184
0.990722850315008
1.07956881676067
0.985966027924993
0.956959828251626
0.955010883136731
1.1440312414281
0.996591440157215
1.07496669580189
1.017113024375
1.00257407411625
1.01043706807035
1.11272391393804
1.07567669254517
1.15370407505017
1.05322500447677
1.10451935317231
1.015018438316
1.15326830103728
1.02492165874081
1.09323268552127
1.10097069510833
1.20183519198314
1.13495040784097
1.09428482218025
0.999565472614575
1.17817879226947
1.03215270559999
1.06541146836323
1.07478046769864
1.05251597563364
1.03504945292628
1.28335287515477
1.10183244445544
1.20552441583554
1.08040798152005
1.19785266336305
1.19654541706419
1.23944245809749
1.14715820150024
1.16753947540582
1.14383253882204
1.33127233738165
1.15702417534248
1.4434668720054
1.30475175427716
1.2154002926068
1.30795645007406
1.5004173809139
1.16290053976528
1.2069638473941
1.19552349641234
1.25810178375872
1.06260597805639
1.31416796438044
1.26069545523383
1.32920389077584
1.261115035658
1.34888802653393
1.18850013648149
1.3357673374189
1.40475969913949
1.36350488229517
1.2169453016646
1.50311023121647
1.29919023989616
1.2648888063239
1.16563517847203
1.39947043951415
1.16603027195932
1.28621026689647
1.23292459594414
1.43772997280457
1.29840424007921
1.35221170111651
1.41327541988748
1.35204097531404
1.42438592303651
1.58372579550691
1.34321228880508
1.54147932398036
1.44145845016681
1.38776728812532
1.29209809720147
1.67593113466223
1.33513186977653
1.31600936498693
1.29255758290826
1.43124569807156
1.27767693754598
1.44031921753894
1.51316394540928
1.45308414472019
1.25866500753894
1.50631041086826
1.41153171970211
1.90749640199292
1.37556484479547
1.43136871475384
1.38501239998175
1.35704376178554
1.4226630554992
1.50841383317888
1.60340727645984
1.53918493430419
1.42550251135303
1.53574398517932
1.36402947442202
1.37430970913357
1.27723648180478
1.32470088502223
1.43264968331532
1.35529967392436
1.3584916391232
1.52935696763834
1.49622694448906
1.47566185230584
1.43737966980933
1.47434394461852
1.46346524008512
1.57884207172698
1.45621119195634
1.39975960544439
1.31452552586539
1.68480892759658
1.45639884273058
1.43150450043856
1.39807158721589
1.5028052285606
1.55395679635298
1.6675231087322
1.44417250997494
1.38938054588858
1.51160955822564
1.59028333327435
1.41616919129102
1.42577192902191
1.36941629572647
1.61168621911077
1.45173223976145
1.43926973745441
1.38808599117381
1.52980623399384
1.46585716301521
1.47373777753802
1.5413370436654
1.6077610295628
1.47102774456062
1.61078712287465
1.48723786296865
1.44678623447081
1.35846405021471
1.39596728603434
1.69928380643212
1.65585582318514
1.40819404666883
1.47401628569969
1.44900354732606
1.66021720562635
1.54016392573098
1.55529169449203
1.38852483635537
1.62625633203154
1.49820879224682
1.60113724640688
1.53075737777931
1.38181489765306
1.54476989581924
1.63723954816969
1.50451405658436
1.68879532463545
1.58797481899137
1.46203331625359
1.49005736096222
1.5962804446332
1.44803967188307
1.50348764469361
1.46077465522004
1.55052047707136
1.46593341727564
1.43976487318433
1.54351594746642
1.52978138765423
1.39190485034662
1.5088828295103
1.50905848335273
1.41208680982092
1.47519322585044
1.55319289140014
1.47907880956278
1.74302240638881
1.47845061780211
1.37767104865298
1.54932653884847
1.54275175292571
1.42274322711059
1.553486409032
1.42295141287043
1.44810988427636
1.45153903017126
1.38466196708982
1.50201690264484
1.45497810705752
1.33659414542088
1.59498295047401
1.52773988141267
1.39050002269556
1.49441407154832
1.58245411538388
1.60377068185821
1.6255616071415
1.44141519806816
1.48122329655031
1.44865459430416
1.50664547161973
1.44303643069155
1.42223739861927
1.42456389643446
1.47665118746467
1.40631039480279
1.43515893176254
1.50519801672688
1.44069918025993
1.42232304102373
1.43202232330204
1.43754262621662
1.49319517736083
1.50935833055172
1.4214852928683
1.43280259713796
1.55624602644362
1.43537422050466
1.39065183947383
1.43270717392703
1.31926148897411
1.45876334164314
1.43116384538274
1.37319207344009
1.48901064067934
1.47528826303037
1.46140833251014
1.40176805782326
1.41832131005544
1.60696601020418
1.57478624322912
1.45490536992482
1.32163725301094
1.31035345555227
1.315502420622
1.34450316128537
1.39292118266316
1.30844572896983
1.37122852058508
1.48467515752992
1.38737342042858
1.35679241628616
1.39749797326977
1.3875022106781
1.30998645135904
1.34382267519773
1.32367185873222
1.30592855322762
1.46992070634782
1.42099917419221
1.31426410072414
1.32639675689831
1.28887918356833
1.3501819361686
1.34402703687756
1.3111126999951
1.28781532381448
1.31449752717503
1.35772657354106
1.30080581287176
1.26818123585481
1.29451382010789
1.27648747151414
1.30705945387722
1.26619798533442
1.30635786221297
1.26342536920272
1.25944716258378
1.26483965358933
1.30239918031305
1.26273649606863
1.26977282841315
1.24768539684668
1.29862469864092
1.2955409581239
1.21858540028688
1.23481779313643
1.25010485954979
1.18396917266127
1.20336829678472
1.17331933490595
1.20777082955189
1.15632657451308
1.17120418792845
1.27738662899085
1.17443104715784
1.11849217804853
1.15723643310253
1.13299741739378
1.21012074297318
1.18114465384281
1.2231579143476
1.15223625279503
1.1121389454588
1.14434857085427
1.0917157100491
1.0977435463158
1.14163333925748
1.0738949297354
1.14384896013698
1.19871502169799
1.1667959737809
1.12616005316018
1.12157815617252
1.10772277151305
1.07042219126785
1.018848543706
1.05000276530573
1.07031990073714
1.12681477367319
1.08123581152904
1.09684084064961
1.03521649492958
1.06265686470597
1.06557748740961
1.05035284304373
1.04654341344419
1.02956722000704
1.01964386225553
1.023700626697
1.00961685454815
1.02313865509025
1.03267890020602
1.04486490928722
0.983044633089298
0.966140289409409
0.973838575211741
0.972327645745819
0.98566605234889
1.01424193047723
0.966565668314996
0.96810407365897
0.992049150595892
0.984556287779386
0.942580064144508
0.929921243981934
0.921212715499047
0.964936808161368
0.940844934438598
0.974491166570312
0.913312736749554
0.924332604948109
0.935919438598739
0.918353999504278
0.908571197473579
0.9336517126937
0.914842193483525
0.894202121983806
0.864225056077317
0.879905200659492
0.89903867628395
0.910120923880116
0.857806224649443
0.878435132489177
0.846574971300461
0.848608309907017
0.846015069202953
0.858233752872525
0.828806880243955
0.859611238934829
0.831280279144466
0.860116341206346
0.823901409670761
0.832199757315379
0.811317292789514
0.822319212182795
0.805060675719345
0.806288667902034
0.813238585674518
0.808671970609939
0.78009887049302
0.780234497006732
0.782553873467088
0.803172791693467
0.786948166216565
0.792976356144411
0.774917730913326
0.806281135460954
0.759915586394362
0.764921473888947
0.770680799510921
0.76713318056731
0.754336790697551
0.783001630093308
0.740814481911512
0.744993241207571
0.72042605640422
0.735384879205363
0.730504214726642
0.734299179528679
0.718568147098038
0.732848492755746
0.733199768948775
0.726606660781037
0.698146195657501
0.716807490457668
0.708540262962062
0.721732581068768
0.683156199044935
0.714371920215024
0.676379476367886
0.671844469264175
0.672075647488882
0.668544623129833
0.671502564800362
0.689985650158293
0.660367461848261
0.702670604344167
0.647204642143511
0.651782628480271
0.664177276067775
0.67396710864772
0.659715237171024
0.652195085585062
0.634924224395076
0.640317130169979
0.643268632358442
0.652314195158839
0.625388100550617
0.628981417153179
0.634048576584498
0.647236110380396
0.616110141566308
0.608622321300766
0.607199421309243
0.618048147565034
0.607209160435462
0.622160939501142
0.594132838616989
0.598932644599864
0.601316911522946
0.613443765769011
0.596373807853997
0.595304568123646
0.571471789086515
0.577216118921524
0.576101463877758
0.589920293930002
0.565805261074794
0.573066827078145
0.561231008547449
0.572498052950599
0.56563162062911
0.566045010256892
0.561246616595128
0.553486346537901
0.551509187921375
0.568699456123906
0.53392156312983
0.537675409221318
0.53005112056882
0.549020112590051
0.547879943708426
0.554557057929353
0.539587134460044
0.531243492834763
0.523014815625929
0.532407543018167
0.50803600695851
0.518989017931939
0.515934162793609
0.533363090455729
0.505962370067806
0.516440118907414
0.503159035317439
0.517100879106026
0.504000343325736
0.504924895029322
0.498693475059573
0.505929202545239
0.489593814181749
0.509450813518546
0.488009093439228
0.494641808352081
0.487051939145017
0.495871774423211
0.482972360736012
0.48958291426735
0.473861404177436
0.487997673286235
0.478428938710719
0.493226828706595
0.485197427489674
0.484564582035488
0.474634617972322
0.479990842890571
0.473105206477619
0.479268410632986
0.461263172975637
0.485709231387272
0.481416964289028
0.485287219358423
0.464130103569686
0.483315784349857
0.471264009741523
0.491440771836467
0.470817585170278
0.497121173589582
0.473111502590305
0.479932819632583
0.450982625627358
0.466121792275664
0.466674162559186
0.481306210856348
0.479675067896656
0.500577953735241
0.490184363243094
0.496096374692142
0.487518109454216
0.500089434977106
0.479497762621052
0.500101477434567
0.480773109190557
0.505198653830647
0.498178639774549
0.513086526739386
0.500799892635583
0.510310062184691
0.507658401320765
0.521809590789358
0.514226843581989
0.536849102168236
0.516770606350806
0.533745448596679
0.527735386883422
0.538295004995516
0.527174954114172
0.541572585923594
0.523004347455791
0.553145158183268
0.538100357307823
0.550551107495432
0.541421192144223
0.564136700928038
0.536738052620281
0.566059247636048
0.546736591567996
0.564838819790118
0.556059634750371
0.574688051627721
0.583656382484124
0.591733602882922
0.562581849044851
0.595383015905653
0.590305537528901
0.597019979954232
0.591089750258027
0.618638833590407
0.593858063328017
0.62198778348087
0.6109882452805
0.637016589661509
0.602781239468449
0.631859620740155
0.607507689943024
0.641628883897633
0.639076877038365
0.642140896619222
0.633733740456553
0.650866904551059
0.61989809194438
0.654273511573013
0.646482354085368
0.664721394984919
0.615759799237262
0.661933409412773
0.643528334208588
0.674568274778507
0.640441089119856
0.659451250737606
0.62867927007698
0.666238009949344
0.64050004946594
0.65012040100413
0.626680844844053
0.635099545670011
0.624192621667812
0.659837818538809
0.632176417311148
0.662266851499178
0.620372402286201
0.643987624244017
0.618673683336767
0.628229227412389
0.639835461699802
0.656398394266949
0.627227728046769
0.64917225030599
0.627082571519142
0.650101330370392
0.629342443400678
0.664016857772316
0.636360139153085
0.651432293810811
0.642250587558947
0.661520033495274
0.632109660453221
0.651587229868802
0.632067101212905
0.644758197445841
0.627999345297203
0.645731679122327
0.6162428320587
0.65242854189194
0.628919252564514
0.646750068761312
0.639087323456622
0.651888140696731
0.655769577576222
0.660497256911759
0.625781509657401
0.625819033416051
0.638527527911534
0.658283875128156
0.631393641345919
0.635599080106307
0.619490614871113
0.631943658641708
0.606073217321019
0.634408590882104
0.617618351495061
0.630749607006134
0.611289121860231
0.613562372528304
0.60796681384313
0.627776472475639
0.586822164026407
0.614939733880952
0.58889695266735
0.60452317736595
0.590912985593256
0.59457947510368
0.569152363916336
0.595553783849937
0.559769354463021
0.565617892422997
0.556107748112073
0.58158196399139
0.562123496233446
0.565452820613438
0.544466846917276
0.558861671514293
0.54108598933485
0.551112277542102
0.52998432820327
0.538507795582884
0.519763255611125
0.541059565197204
0.504478407840418
0.512753531184046
0.49585597944342
0.513702378680298
0.499025227532754
0.506097848413792
0.491015327776333
0.498844511743395
0.478331728240535
0.50034444651561
0.47110392054254
0.491445525367943
0.477022088935106
0.487724462256683
0.461296232286633
0.477032179109251
0.450978972809038
0.469388019305199
0.47145727041596
0.466788509083448
0.459616575654097
0.460847213125485
0.435372865078191
0.447816633694114
0.442983946865164
0.465747952959476
0.434879800125498
0.445761173778554
0.423189095053021
0.461116892953646
0.43949287413183
0.434259972253376
0.423172334238039
0.431454746588438
0.418733167794654
0.43558140249243
0.416837040466664
0.431700778514727
0.421382194669142
0.420119482021711
0.414483836029194
0.426546942716652
0.412253920329633
0.42014467557679
0.393263707349799
0.40699660734728
0.406128878465469
0.420390141397713
0.396835124622118
0.401778986952936
0.3917369305821
0.40885231477592
0.391271264110126
0.40003613264012
0.377914415908943
0.391054106896724
0.391542739896204
0.397146197469924
0.389606416148501
0.393546385811901
0.376616124002871
0.393033751371236
0.38014385806723
0.386303588566397
0.389661892762642
0.37937861452057
0.35735426783259
0.364707988306657
0.375321947459896
0.38641204984265
0.365211325337373
0.379832331035987
0.366568912858243
0.387721358222253
0.364125149680622
0.379860931964012
0.355622586435928
0.367363877147768
0.354889804154043
0.36674235589066
0.35870524086877
0.36848794142955
0.365989712510296
0.364168241099042
0.349472836032614
0.356202912299492
0.349978390480781
0.357979335276995
0.347760667076294
0.359227529123223
0.351865279012202
0.359957182096953
0.344850847735419
0.35434533493069
0.338364671214371
0.344704568443537
0.342693247998704
0.35349760097582
0.343735698701647
0.353603544130527
0.344934263588378
0.349113753291108
0.345326358649671
0.345370145827901
0.334839669378399
0.347368535934549
0.33154451506147
0.35256496633387
0.343169471427224
0.344628039803922
0.340218578131641
0.339384879766251
0.331038657771625
0.343582039384336
0.327308720007974
0.340463568748665
0.332298979411845
0.33577187379083
0.325289933519497
0.335442596245309
0.32710726102921
0.334107144345239
0.324468953656403
0.344645283364715
0.323413473699944
0.330674380820916
0.322295550764562
0.337741271365843
0.325343630415764
0.336427952252991
0.318578712903846
0.334325000370439
0.311715098421678
0.332421591912274
0.322783893196429
0.327926151785506
0.314312849471031
0.337048099233325
0.31619186056272
0.325976390881843
0.315117537524187
0.328812969542205
0.324880716061737
0.32717473542576
0.309800958224354
0.32547077325739
0.312142575794577
0.320154004909961
0.315719294813159
0.318114061160225
0.316527813278181
0.318443914347422
0.307767061755501
0.315351330807844
0.303866254452372
0.318134933471188
0.309894700718513
0.315082812120003
0.303304052153634
0.308239988779236
0.300571678464225
0.310563008727623
0.296524407830253
0.306586140406829
0.300134721498124
0.305579642666504
0.302699845114801
0.303786836740052
0.291180477638792
0.305541662093825
0.293773609709939
0.30703035391871
0.292730654001597
0.300472472183762
0.292642525261619
0.303399978163563
0.292818900369066
0.297477751725027
0.287244389137312
0.295353418754618
0.289347751853237
0.296089343107541
0.280125702608454
0.299387459949523
0.288342139148627
0.297453279133597
0.277679744920589
0.29208787116533
0.279392753532218
0.287185166447245
0.279867031140485
0.291034193163446
0.275113311465417
0.289080055206053
0.274721025492405
0.283949526029192
0.2727254557874
0.288763709268526
0.273746913889956
0.281262988432221
0.26785558970856
0.272500588005926
0.266850396659363
0.27217861937403
0.261871583123949
0.276857297960862
0.264464257416753
0.26969359515391
0.256104632804719
0.266648109953501
0.26711631749895
0.26731046896053
0.256564189023042
0.269210262063208
0.26231232965889
0.253270444989005
0.249665322412499
0.260262822699649
0.249271813033775
0.255429813812398
0.24901141527961
0.255228353215701
0.245957245091286
0.255861702115883
0.245601383197716
0.252539134443812
0.240734267272255
0.25094347455811
0.242506365273304
0.247142119995446
0.238835163524737
0.25196481396949
0.24830206958087
0.240567157936201
0.233924075174419
0.246483602504111
0.227490815838416
0.239535783089481
0.232361576997398
0.241272242119649
0.229076481356749
0.238906642040477
0.236031696460838
0.234106215580107
0.226192148180312
0.229893064935637
0.225241492556316
0.229284493250401
0.225412807858619
0.23167872770106
0.223643566667599
0.229769383514159
0.228152229648131
0.225227847803684
0.21744783244642
0.225277910289279
0.218372834119258
0.227183640313218
0.21146150236839
0.222772633508087
0.218358859252345
0.222603624997668
0.210340680173156
0.21488030727581
0.215786967106557
0.222361480883308
0.211816321089406
0.217637020196113
0.208108334853923
0.21625324912445
0.206942243991303
0.208764944461441
0.206346000816588
0.211221371550029
0.201228622323774
0.207404753171762
0.202814010403548
0.220817209190008
0.202640106351692
0.198312259707064
0.186445395781606
0.209208531087836
0.205404880583889
0.208109256793837
0.196522560721455
0.204751029975468
0.1951756196161
0.198985320076217
0.19736146286613
0.202505638116204
0.195386784307541
0.200468384341114
0.190125793004186
0.20506116802098
0.19641769983218
0.196580389114546
0.190572378994136
0.194892013259167
0.194384256406141
0.198755789240695
0.190558288101258
0.195013700850214
0.189713596631669
0.197878183219594
0.191954747631211
0.196181340271277
0.19116675106357
0.197400589835753
0.187242031178521
0.190912331815995
0.189501838537652
0.191696657753774
0.186598664064107
0.189145612624078
0.186807032882371
0.192654150379878
0.185045928463278
0.189720173675798
0.184708559243132
0.191493770087121
0.182156012276929
0.18674248295547
0.186437569939844
0.188813288859378
0.177288164652971
0.184413833839449
0.179408018746783
0.18527184145838
0.180072859699588
0.185521479400508
0.178174568953827
0.180321584502509
0.175795480322666
0.182771562651037
0.177692559748176
0.180777842953662
0.175023363634257
0.179560960496596
0.174910620794076
0.181043268660091
0.174436399466585
0.180100397084108
0.178759131862065
0.176149991838408
0.170257197648161
0.178071422561863
0.171767231688162
0.176123858803277
0.171609957514573
0.171127204669814
0.168000758682978
0.173008158396717
0.167510837159439
0.175173759411819
0.17300302360114
0.170593049437192
0.165608723934382
0.16969780105374
0.165746269361085
0.170611453885778
0.167170765482137
0.167436950298697
0.168988660043043
0.171079870724929
0.166289372190061
0.167549365567864
0.16270860225197
0.172537446320536
0.163617798441585
0.167818681460722
0.163178365080237
0.16888811995006
0.162411906239468
0.166360562232424
0.162413598516881
0.16292115029902
0.159300043719483
0.166869234389437
0.160967476811405
0.16066778288779
0.160502894282944
0.164994107437652
0.161263610570851
0.160410512489751
0.15794363542742
0.160052838336542
0.159067156683346
0.156764064291457
0.157738258010085
0.160958637420712
0.153067106555891
0.161595309075265
0.153192891030324
0.151110738654699
0.149016880723901
0.15788872227289
0.151108753631952
0.152047310147205
0.149753702080616
0.155810423054299
0.14987397117204
0.150641265374413
0.144289327852908
0.150522693942567
0.14774861239745
0.149666617165643
0.14294092026251
0.145677494376427
0.144750261010824
0.146021855872826
0.144417255258526
0.145679548788819
0.141098016209288
0.14257376138354
0.141836136620199
0.138967853400366
0.138736823914577
0.143583155452183
0.136336468025251
0.142949051218287
0.134617181802611
0.140144654819487
0.135245468944208
0.136748992869986
0.136224800294537
0.14049189508815
0.137247211410842
0.136858931616296
0.129915078376532
0.133657450037465
0.13243076403467
0.13516182933801
0.133561986131068
0.13660253436157
0.131156652479944
0.13270557056843
0.12897446204242
0.127652121604194
0.130483770991977
0.127075445166289
0.124828298729511
0.129130149834117
0.126455452337618
0.127285693083311
0.120762726246373
0.125053842007438
0.126456397146422
0.125870522889013
0.119957286434527
0.125978446804135
0.121637098765596
0.126423352157697
0.123000705156865
0.124632384400625
0.12087346481658
0.123611874315404
0.120075397925288
0.120124626170335
0.119194895694481
0.121541853398589
0.114457266078073
0.118664365115284
0.116715259476558
0.118549655220738
0.115595645581152
0.114713679259262
0.115705560349298
0.11666807702999
0.113294006174677
0.111299346202976
0.110972948489925
0.113449232228599
0.114199979409109
0.113437225949969
0.109156804496017
0.111956247173602
0.109791152916976
0.112257080974869
0.112308484375551
0.10988154521002
0.111037258467661
0.108804584531114
0.105867391708457
0.109598218912997
0.106180342694437
0.107062736042729
0.106609893352032
0.109679820577465
0.106087658885003
0.105632501974004
0.110577143815338
0.115408098439174
0.104795042942488
0.0990606800522958
0.101143616107515
0.104320660628202
0.106040825206725
0.111124306374362
0.110350595617461
0.107030621747215
0.104429373999918
0.104866130953031
0.110189151500869
0.10987930711832
0.101702499231779
0.100406463191228
0.106155529983045
0.113041667428677
0.106942979619861
0.104331429812625
0.102060953957823
0.099453807363969
0.109182199264296
0.112536004491863
0.111708948898925
0.109740651784418
0.104373699657168
0.102519809456435
0.10864611743567
0.116927270714293
0.112104252726524
0.106141431272955
0.113449059693417
0.114243529916821
0.110891106468739
0.113751974010233
0.10464505064859
0.112397894228543
0.110842186637605
0.108690393676908
0.109175505849476
0.100614483932123
0.112748109620496
0.104894928042963
0.104916327344075
0.103224322895489
0.0997272092416727
0.0933128371577323
0.104309565318637
0.0987157510157846
0.104045451919241
0.101197623909715
0.107183396684771
0.0961150537914176
0.111734617128931
0.094866960858093
0.115018843529606
0.0891556104986277
0.109892841319165
0.0869300945654665
0.114431468733212
0.0925366073920115
0.120765397840758
0.0903217305783428
0.115368190619293
0.0779715423390299
0.120421286965767
0.0812020078363931
0.125659727085922
0.0800335108739228
0.112859625583525
0.0715837845236482
0.130226378794351
0.0846530587711568
0.1165737326084
0.0726574630845834
0.122631912786443
0.088407511664495
0.108815059045925
0.0887251645137749
0.103925316912363
0.0989789981858274
0.0876046297023909
0.107772867554248
0.0864714785728643
0.109671511112211
0.0821545452821497
0.105593828882922
0.0810901437509804
0.105743003692864
0.0840783363412486
0.100978991967885
0.0891985814383143
0.0957045640063345
0.0951053135170117
0.0928645285039446
0.0885829941976377
0.0914743370843382
0.0889748141811816
0.0917574634630367
0.0899681792664891
0.0951803904368864
0.0858056031612437
0.0916563642908212
0.0879031247331548
0.0937082909925462
0.0859783859367762
0.0903384974604466
0.0880456358926531
0.0915531046150292
0.0875070119489226
0.0887607651537324
0.0891282350012137
0.0938494381080783
0.0893963561702063
0.0918130402144745
0.0861138968607539
0.0909629252281286
0.0871468248695982
0.0929966418536045
0.0857037563241765
0.0884086406947126
0.0873471813013338
0.0892179629308245
0.0870449917232154
0.0889195857647838
0.0865233352908601
0.0908688668721277
0.0865035742397115
0.0902714537563016
0.0873727331878288
0.0903276076936752
0.0908371015132083
0.0949497035591624
0.0871591327216263
0.0893991379175056
0.0858938694667072
0.0896940632970524
0.0847173964400672
0.0903573775544013
0.0874121611646208
0.0899855494972794
0.0890207175131799
0.0891892163798352
0.0864674576209571
0.0894063742471567
0.0914395079146042
0.0928532714225349
0.0892840923616611
0.0904077202532578
0.0862192271007835
0.0875460010646739
0.0874399286258537
0.0898795638877518
0.0867468419831055
0.0913480367609971
0.0847484897512542
0.0889292382541617
0.0880722418661249
0.0890461933916471
0.0861412291869358
0.0876907928820994
0.0883288831699687
0.0898560127908834
0.0859361615799325
0.0903258791538585
0.088100045526113
0.0881828847614389
0.0835465957416944
0.0897350159366041
0.0886689295027369
0.0945213042677688
0.0887380599902767
0.0907785255809065
0.0913435429600253
0.0912926526376563
0.0869729125141968
0.0909033779107765
0.0881341376891107
0.0888745616435574
0.0879114096090047
0.0913138258512284
0.0878674741813054
0.0907273383229834
0.0883010863472155
0.0907199763275728
0.0903935322596257
0.092813927750189
0.0905592466801524
0.0912743432000653
0.0882230052192284
0.0916688579997805
0.0911718923402242
0.0908201642395509
0.0890815283813884
0.0926455838419808
0.0889648607358255
0.0922207801425412
0.0941489205735197
0.0947131454420409
0.0898436899011525
0.0917696419165696
0.090501026419672
0.0920120822163347
0.0912619176892951
0.0928362639113572
0.092904511232183
0.0926519910867774
0.0894950976580452
0.0960991287210088
0.0930646628815204
0.0924818837779628
0.0923739632250302
0.0932169263526139
0.0944781573979653
0.0939280417168303
0.0853520580787336
0.0872882826695734
0.09014673503712
0.0931828486225874
0.0923255669589834
0.0955131729315043
0.0945679185017138
0.0943034320623262
0.0885098494432502
0.093214451751268
0.0953703860682538
0.0947904678747197
0.0923432455450785
0.0946961057732892
0.0952670854874348
0.0954290916812952
0.098718499750487
0.09549044567467
0.0942531805880645
0.0956112974023488
0.0922473491146144
0.0919878781715627
0.0977667902213862
0.0972162032113385
0.0944266433773925
0.0975403729597569
0.0985149381666005
0.0979296459584277
0.0980510121381918
0.0986166643362271
0.0946852267891586
0.0980201986769033
0.0970182996947337
0.100643378953881
0.0977434684744051
0.095972177057528
0.0950795786497569
0.100911307909276
0.0996297874662944
0.0975579994447149
0.0947878304985397
0.096270817949748
0.0963097675130477
0.095085352210136
0.0977587633091919
0.0991127696766409
0.0972600251003037
0.0993083694468969
0.0969509694495645
0.0996426891833033
0.0965364344666505
0.0962674531926425
0.0961513530555208
0.0948762347122649
0.0960258742814333
0.0966882832745484
0.0988425759954886
0.0969717607071998
0.0966369206254552
0.0947228588983114
0.0961280516690756
0.096221811178136
0.0950005835570809
0.094293958948556
0.0960543565445348
0.0953661819196354
0.0917317551227865
0.0938617254983579
0.0942738139717566
0.094858515276219
0.0949404862169229
0.0969812831969851
0.0933675288383073
0.0946688709679728
0.0935935956891313
0.0933907073015778
0.0937066340899307
0.09295362521134
0.0933287248406161
0.0937856826260465
0.0921496389335425
0.0902709963855583
0.0924324028030915
0.0971806952031121
0.0944446075191641
0.0913751803743743
0.0887945021162317
0.0902719934082981
0.0904009923994341
0.0943638857507915
0.0943624779105183
0.091043751676207
0.0911133836568639
0.0906473127309565
0.0890305704066145
0.0902974588087578
0.0912401615730258
0.0932613593464654
0.093227884519017
0.0916195843772034
0.0901606337008457
0.0918363740358866
0.0916492507331318
0.0916482355503599
0.0859692420022116
0.0895763559632513
0.0905744325548974
0.0884054723639738
0.09074403422289
0.090895131685745
0.0897865688967327
0.0897802297479351
0.0926531359564281
0.0913352663243595
0.0896653559925103
0.0897001890663162
0.0895203799113649
0.0918354422196564
0.090832567109765
0.0905481927389356
0.0906135112599561
0.0910913217748004
0.0885956801950703
0.0904638513914568
0.0904205362627022
0.0891480963485248
0.091338881682998
0.0901205025108412
0.0879234334691726
0.089263411966153
0.0908688283174426
0.0912059916306138
0.0907410535503576
0.0879058737283274
0.0919807763738999
0.088228602081336
0.0909519249563956
0.0913002741289263
0.0878572821599229
0.0871910901600626
0.0867322318282937
0.0877023109999075
0.0862803109186139
0.0867458348875788
0.0891967990872092
0.088871163766955
0.0881362871069034
0.0890364473898249
0.0900146382692792
0.0874195195365348
0.089204207561744
0.088593662530202
0.087748208089126
0.0868563650064442
0.0878154086276425
0.0896183927628566
0.087769845306842
0.0866975101265801
0.0849958434316097
0.0890700490624169
0.0868500476350147
0.0862892604095711
0.0863532353447305
0.0865144097839544
0.0842208354376293
0.0845966580152239
0.0847426580294986
0.0857581192685539
0.0880786293302306
0.0841759253332303
0.0836333470268972
0.0838824982371239
0.0850408173231699
0.0854733690730934
0.0835886045045752
0.0815754324343684
0.0820998992568212
0.0816601951419994
0.0826174146405823
0.0832290515045722
0.0824826654017141
0.0824296920891376
0.0790269014927981
0.0813434482082976
0.0808903604446473
0.07862872060808
0.083841975045388
0.0801298933518032
0.0822117952847525
0.0780423923593302
0.0805555622319634
0.0751515069636622
0.0777120726695028
0.0797794654083497
0.0799263186041889
0.0751214433894707
0.0807611048681117
0.0781809710493435
0.0778882816098047
0.0762210857273562
0.0789062810716468
0.0763717410023022
0.0770892575974497
0.0736639407481406
0.0785995258233738
0.073646678338275
0.0791661984959185
0.0704111623299425
0.0785111373160341
0.0719652808075867
0.0770814825929764
0.0724152275603751
0.0772662432191911
0.0759551989797106
0.0749646578799997
0.0686374808728783
0.0746482690525491
0.0757076857291586
0.0734281571910087
0.0753531408724696
0.0699171478478189
0.0728742123613634
0.073265668447081
0.071820914704037
0.0738125568078561
0.0726289241069416
0.0710976215133801
0.0727804540966733
0.074934578826626
0.0711128199930588
0.0710982565690589
0.0702211779392686
0.0713030055330158
0.071079051857569
0.069393395782617
0.0705017625661336
0.0745721374999591
0.0702968451911132
0.0698077970316895
0.0774953878520452
0.0733574285392559
0.0712447123355137
0.0687485893234321
0.0716912317838965
0.0697439438557069
0.0720922291808289
0.0729928093688803
0.0715442166639093
0.0698333342954564
0.0708032352116285
0.0744318139040054
0.0690814488546379
0.0677338853953558
0.0673053631966907
0.0699131502545794
0.0697411172741383
0.0681066353324269
0.0690254178388775
0.0667808903741913
0.0676505848222559
0.0673485903655768
0.0664193672303888
0.0631321312514044
0.0721986231837823
0.0610795638100297
0.064278117046643
0.0765881010087601
0.0700880757030275
0.0691618686336419
0.0644380004602299
0.0692292925142906
0.0632254792708143
0.0676483514836025
0.0645546764554065
0.0678418534510046
0.0659343552742572
0.0665870212031835
0.0650900075667848
0.0688688563909574
0.063402095164037
0.0679948206588839
0.0632017088197562
0.065058181656267
0.066640882518239
0.0680698483150715
0.0625419227831131
0.0690037525729724
0.0722329559435653
0.069169101249712
0.068120145768322
0.0673435668301724
0.0531754254742178
0.0804523404966764
0.0644207291739837
0.0739319525639485
0.0593389638911452
0.0691297615632882
0.0612947319705993
0.0702268599731988
0.0577842186304791
0.0705330578674453
0.0676902299850417
0.0648868745905424
0.0653679660833809
0.0651262127696079
0.0642697296297858
0.0644135575275811
0.0640971182949403
0.0648495506201109
0.0642034046695751
0.0676150458584213
0.0648527322489427
0.0692517547414609
0.0613817041291596
0.0657688136842165
0.058872595619045
0.0631036614556564
0.0680301633994751
0.0695084312693224
0.0617546093667248
0.0708274704558361
0.0585352631754443
0.0672483302472866
0.0787195469399637
0.0653326930343577
0.0690075925447577
0.0611908749198327
0.0662859053700672
0.0657663056319602
0.0631985140502559
0.0601030527669995
0.0678766191475429
0.0621661641116108
0.0655039198578876
0.0619497936349404
0.0651692573770869
0.0650211485842511
0.0655398333344741
0.0645113925362096
0.0641918571428811
0.0661822245355708
0.0627894331103216
0.0708737153151228
0.0557393322931605
0.0698771816330113
0.0735543276483883
0.0709558428253384
0.0685582543830695
0.0685250031924037
0.0629124346680574
0.0655193476967364
0.0649079084697084
0.0598461831745566
0.0644209652645419
0.0646354925575971
0.0678013734527365
0.0642438781637084
0.0655197831747758
0.062244658793649
0.0665178334835321
0.0598776077760823
0.0647549224898791
0.0602047983557322
0.0665544112831927
0.0604558378931718
0.0699499756329652
0.0541349890129892
0.0762292087354494
0.062543941294803
0.0766107363993688
0.036798857010119
0.0919399788358687
0.0752167478911071
0.0675435197571458
0.0739627617594085
0.0631959376242524
0.068331267697295
0.0617703597538444
0.0668061847722261
0.0732519186828286
0.0693080126909562
0.0644342969648346
0.065493997904753
0.0685067098501167
0.0719239858106073
0.0558269986603381
0.0593693300433728
0.0883825231623295
0.0679507960215177
0.0762464181401417
0.0626015840571412
0.0588754721198519
0.0902752424807516
0.0628577407625929
0.0768568351086003
0.0656920593439486
0.0718256665841133
0.0662315343723422
0.0749816082906733
0.0604462468900383
0.0729150469678404
0.069591375825833
0.0668957219348902
0.0699348250032235
0.064827227499924
0.0727090094782974
0.0684282142563035
0.0723973619256538
0.0837629670589714
0.0656832127025787
0.0747089011199388
0.0709560198217512
0.0729432568836498
0.0700772072720681
0.0784103402034071
0.0636538098001053
0.0739619566985889
0.0814540684965294
0.0646861563287716
0.0789156159945803
0.0804270556661138
0.068540978878866
0.0788370124315433
0.0678086968399768
0.0894908559204938
0.0612841778123152
0.0696815596866482
0.0935179615184459
0.0662672015353537
0.101528039267917
0.0677705487809346
0.0886757138184789
0.0652902190261843
0.0869531995282138
0.0541568532303096
0.0988411683617253
0.0683698626346051
0.0911639821690233
0.0669517666987517
0.0854344952251941
0.0778734488831499
0.0846265428921728
0.0820647161794723
0.0815625038036804
0.0710223294562059
0.0891421010522207
0.0864363396750675
0.0549676373455062
0.102929927209006
0.0858542988020945
0.1021877228993
0.0912891644562543
0.0621223662475977
0.123342423231311
0.0815165860656661
0.0966556450747699
0.0804365834515479
0.0932063234122166
0.084054772022786
0.0673851933444754
0.111370471863399
0.0930721942951223
0.0839263435123296
0.0999427399698744
0.068772781604859
0.109390364360833
0.0971640838762814
0.0980009997253476
0.088681103385897
0.106612179793399
0.0606246914506508
0.12873816789524
0.103421504495268
0.0957060747342229
0.119312062808026
0.0998027920922671
0.114408510616927
0.102618025180159
0.108632021069749
0.101226610020397
0.120854956308079
0.110399671967113
0.099224793171121
0.104609962916636
0.142796055129805
0.0962995502722135
0.132169753477231
0.106414471544257
0.101028987701101
0.104342411137892
0.160928041017704
0.136679168164311
0.133593334138524
0.105623200726455
0.150745646986826
0.121730347035949
0.136215581480757
0.126044279241288
0.129466139069093
0.132289399267506
0.126721417222334
0.14408532652121
0.134422178152595
0.1396679871689
0.14628733182452
0.126079155469249
0.144047192032937
0.151716514440298
0.193441703832461
0.132281024701217
0.191301112753721
0.157640206850613
0.166002266617599
0.15515178946981
0.155916877818766
0.168214827702384
0.163070437412766
0.165913043169097
0.149470959621102
0.186252012653718
0.177301752016465
0.158074448537274
0.214760944299147
0.164311873954408
0.195143795504582
0.0878044759149041
0.387533072035413
0.19865200298236
0.228365658929072
0.198172986405484
0.183320008112839
0.281232169504599
0.231691511826795
0.230104377977817
0.243207360735688
0.235671796440895
0.249068013441378
0.264690741008498
0.263047138112255
0.279193545545715
0.292396322372
0.265354389629792
0.277092380851837
0.342858830388484
0.338581740043666
0.343863721485237
0.320032392345446
0.341894105160129
0.364793435370485
0.344495896318171
0.37024202393553
0.369552085113313
0.332693301928969
0.462657773209668
0.389794737555801
0.422407030110265
0.393165426980272
0.475131079688024
0.398515466426884
0.486452501800727
0.486559608177612
0.462562356393364
0.482956834942555
0.470952143963945
0.500559029066672
0.461199337690526
0.538328213571577
0.513498110287747
0.516247696931016
0.532373511434311
0.532721687109982
0.539983332876679
0.542865396628423
0.553531956647126
0.537338623239012
0.582210609551261
0.522140870480289
0.656119001696283
0.608834938288464
0.561219618901902
0.597416729599174
0.550180036174898
0.623226725013831
0.566022562223088
0.611867745398666
0.603162492568514
0.575109506593517
0.598790878804605
0.588868661115112
0.596246974251409
0.584073268419298
0.606094523125492
0.561790350618735
0.588678591653622
0.585327408808631
0.547241359667924
0.691906132987675
0.574929147109003
0.602359771241705
0.572899471962173
0.58498462523506
0.580181637291363
0.589849035886403
0.557612835375583
0.627474996266113
0.548785239368954
0.587219921226611
0.542846877439164
0.582795096768173
0.594918635792057
0.552834787801578
0.554837395835995
0.551780059913591
0.534790167718506
0.536977580957278
0.514092305369867
0.623031964719504
0.521336966933423
0.554050989857496
0.524853742182335
0.522010721374694
0.512394199421237
0.520228920757846
0.50824882169196
0.524210367947413
0.499121788815272
0.522077438485096
0.508390289475488
0.515017940083803
0.500418129102292
0.511620521597126
0.500132674730436
0.505387388902549
0.509713490724179
0.495242354494601
0.497290093394151
0.50460758074887
0.497803599215702
0.505387583296958
0.489157014674524
0.504907358039631
0.49960313042862
0.499684989016378
0.492152258733049
0.503455208846726
0.494932091859689
0.492167752414771
0.485609277210089
0.490604102494521
0.49051336018288
0.491085661857832
0.491921648738333
0.489191193718108
0.486725907648279
0.484448355489052
0.490098501282465
0.476830077685551
0.478675647041734
0.44613358405637
0.505010291631008
0.522514172914879
0.454047476702788
0.48207570494548
0.444745705944307
0.482589304035977
0.428383654327802
0.48660593487413
0.473809322125201
0.447789964680349
0.448700335052247
0.443364308401505
0.443759499433251
0.466783598786286
0.419062694201073
0.450620878768275
0.410532071198374
0.438432851545297
0.49224338392583
0.362906065382172
0.525779971534483
0.430538422657331
0.418101148808907
0.390319468759422
0.475041043704448
0.404522210048983
0.416467914012398
0.406617162558841
0.414839313236885
0.429770383938208
0.39463280461134
0.4135783247863
0.390231617554648
0.402863442482411
0.432988591836224
0.39470218892658
0.379754237983171
0.436320217561276
0.380912994529107
0.399996374245832
0.43752340589793
0.414755062044638
0.37153585128438
0.376074616702724
0.375486473043616
0.343365177211998
0.408148143308305
0.373383077211735
0.361238762330485
0.369082827264361
0.338897359542423
0.360581175945102
0.341251244945375
0.373504216686794
0.298571158764963
0.38151290623477
0.333683689096589
0.330804233908079
0.347626539438873
0.329918128917066
0.381379736449173
0.338136753598971
0.319185266852131
0.297425641586319
0.37571544441027
0.325885260581267
0.336344692946827
0.323078977290624
0.291033036979092
0.343055265006267
0.310434565374015
0.297163758763819
0.317912915654606
0.29150334399872
0.330693521643345
0.308928370037613
0.333495351954822
0.314644309291528
0.289203500033915
0.300855564345769
0.296425459781604
0.305519638915136
0.287911036641336
0.272699209771115
0.333909840585585
0.256498125463364
0.338033187478723
0.313404940973209
0.300431321311235
0.303218557306425
0.30881417833407
0.304388137361769
0.328208569131788
0.333654866944091
0.339691859678487
0.300495515313698
0.354180430156537
0.324594308292746
0.341012196576431
0.325411213946084
0.34598110424549
0.33748185694478
0.356839705098112
0.359894829221816
0.367631125436311
0.371414507071523
0.386686081232306
0.349849694438103
0.435807624703597
0.378812491203534
0.412086147042135
0.431076222493192
0.435504618187363
0.470638675465768
0.430519248130185
0.455323742147816
0.454930605102504
0.462228038833959
0.469705489836304
0.452222266621015
0.515027195869147
0.484092320500078
0.48954704335913
0.497078566600417
0.501941628150679
0.49830664267284
0.516046243188605
0.539097250522739
0.483018071473772
0.58996964461757
0.520613419435631
0.55284853975523
0.523589631748835
0.534390652263312
0.554595963954777
0.543407469396066
0.550844290032479
0.533261469049744
0.563608839748303
0.568361499525984
0.556066101578467
0.576402948763172
0.564104996404336
0.568925493122909
0.567494035868812
0.573312008014126
0.581756591241569
0.576719993737559
0.591163592764708
0.552530096179529
0.631803555998344
0.627774590921988
0.587846080503869
0.628741329594202
0.602317655926255
0.626695962421574
0.610121706049249
0.627579100870624
0.650646470289085
0.63663125329539
0.641525342325785
0.643659825049611
0.648559753509084
0.649379503910314
0.677527557247269
0.674657813197584
0.654613131785924
0.680440098578594
0.598850101317704
0.756681478272805
0.666396543753215
0.697590388287021
0.689296720155105
0.689269983593208
0.688650067829702
0.691262274569361
0.692888851040733
0.705766212394949
0.692784882657332
0.698407022275969
0.702159874732078
0.690148525943588
0.703209173910452
0.69216929681752
0.706902389507623
0.710296671092045
0.687839318032667
0.707400604765923
0.698092137440361
0.69775823487652
0.695885673682916
0.726889060084187
0.699919491372842
0.702665148690468
0.666971539178262
0.715846196101886
0.735400632048268
0.710481994544375
0.695715310998821
0.70873729491279
0.686606774214714
0.70559088100284
0.674841424901524
0.737362691807571
0.717069433751032
0.723053017731985
0.713814568534554
0.717630148809221
0.724576067532521
0.724753566373623
0.716548578529848
0.732160985860022
0.726691710935719
0.727886539841894
0.738468014337814
0.738275863245242
0.744392407157044
0.735788162801048
0.740243811979319
0.734179861034848
0.725505343462258
0.742279579053445
0.721263910902598
0.725346952517573
0.708340507951609
0.713755445259012
0.704407365959395
0.699150516417471
0.693662110195556
0.714909468561412
0.695621756607504
0.677248201542285
0.696582881252807
0.664129946723081
0.673953759780768
0.665254212280653
0.667873377147091
0.65562782627201
0.652088903292463
0.653408346295102
0.655918282928044
0.640452331738808
0.643742649210653
0.648884278139963
0.639520652587411
0.632059933111721
0.630138054770132
0.63793224496644
0.632407233254602
0.643720580316257
0.63647895497145
0.620433325727294
0.627333061100095
0.635789203387037
0.647326944942793
0.629905686501059
0.637300673721791
0.630338067075566
0.645199078135045
0.624613461308462
0.627888273841916
0.626499551999238
0.629537740019233
0.628474234090606
0.626322068925185
0.630016163008261
0.622107139569039
0.624573365178278
0.625485788066238
0.621066324607123
0.622334293805382
0.627242497934871
0.623682417561037
0.625009087291668
0.622673087444471
0.624916988423128
0.623209506124639
0.632818017035382
0.620273787679416
0.620355344639031
0.622925441326153
0.622017690757158
0.619572475087645
0.625571619961567
0.62691179592676
0.624821582569527
0.623915559651552
0.621663318006811
0.620472701359125
0.616875732225537
0.616966613139744
0.622922817431182
0.607003336798742
0.616456952128468
0.615424562065937
0.611760122654382
0.603682547944091
0.598190725109758
0.593439137560273
0.593563699933903
0.585109431697689
0.583414986762666
0.579456858748307
0.570802180927589
0.565374302192496
0.557702091046337
0.554472826363138
0.556500723122047
0.554191279857474
0.550424753957796
0.544602614694385
0.547623410092349
0.545355419417844
0.545404614691692
0.548074765129467
0.544387255230422
0.545747479872859
0.543906438513574
0.537511203701053
0.538586488295041
0.536980438002566
0.544324526818922
0.544822889084895
0.540446573385171
0.54378593645008
0.547525003183938
0.549422190244554
0.550886543734057
0.552219374947938
0.552314651573408
0.56109626654449
0.558854774321193
0.558273974109723
0.561348058002636
0.563937919160083
0.575193240464586
0.567721719717624
0.568948999834103
0.572558500332279
0.572930191345171
0.575813067543147
0.575420486865907
0.574325966654207
0.57530307056526
0.570713647961193
0.577584472416419
0.575766174307072
0.575976364274391
0.572792413857655
0.568637999951179
0.565491689026494
0.56675783522838
0.570870779744029
0.566749878891534
0.569352158854967
0.563961184053367
0.560471471713874
0.556974748704881
0.557897083340445
0.556622743235118
0.555075937898457
0.551748710502709
0.548431855553605
0.547633763186701
0.541132518499595
0.541231892676807
0.545821655515165
0.543797208332611
0.540581682125741
0.54007073183564
0.538157812831796
0.533461584228783
0.536850936795714
0.53470957711027
0.531174869268209
0.531020730527168
0.532110689862587
0.525447590388538
0.523070579964077
0.521211714196212
0.517956315351759
0.519609084226792
0.517601261149244
0.517100104558291
0.506538524362571
0.504948778657456
0.508531947658911
0.497202237127492
0.497140057086746
0.495249728672335
0.489213799695188
0.489484844124937
0.483411633391744
0.484706766345022
0.479230970204516
0.472160222262556
0.469929388131336
0.46731271620198
0.469016777810592
0.466733194063065
0.463686354016536
0.470496063371245
0.466425181311269
0.460014301692798
0.463602232696435
0.464878733979265
0.458045969038389
0.457777342297665
0.450240274607108
0.459199639410246
0.4581049520301
0.443117543756247
0.432618391673289
0.427476231925587
0.425242764128997
0.417754050106895
0.415623043094944
0.412782386469889
0.41083778340069
0.409417417844708
0.406498948452932
0.412013244906273
0.416588550303851
0.422120479208365
0.424724029043313
0.438270448245453
0.45153052391389
0.464575151189752
0.479890450552638
0.491943552693678
0.510711148744785
0.52812821757016
0.546782988403546
0.572483100521346
0.591607721754377
0.603357922921564
0.617732970106981
0.640439395888032
0.661180964175483
0.679852492416297
0.700988487720105
0.72174029895442
0.739442078349962
0.745045958889322
0.768947715634806
0.79038313886401
0.799875618112894
0.800488183804255
0.831563351824883
0.836900679930239
0.844847114390675
0.85910910572937
0.866139137182606
0.880282726778502
0.89085212114121
0.903202861808531
0.902343567517668
0.906859905267523
0.908461387315123
0.906821168475683
0.915926150753583
0.926289091826625
0.918190239700372
0.921425678029993
0.917966501549626
0.918878109982805
0.921576432724241
0.930750839678969
0.926021294669796
0.92493851823252
0.925808770561648
0.935412796544485
0.938860172206857
0.942614418284057
0.959440727106157
0.975545231031549
0.965047333335048
0.987885395896943
0.984933503078685
0.990291140942053
0.989318430016392
1.0110018014212
1.00745873941273
1.03320911799644
1.05236190396868
1.05213052212947
1.07093512129753
1.09336972686873
1.09975187889791
1.11421062349107
1.14418526865667
1.12375970303975
1.12410132661576
1.17623746814881
1.1687217862304
1.16440308361744
1.15856503654184
1.16593759636969
1.16129872576956
1.18300028418975
1.16177787328057
1.15710890666229
1.15655764670148
1.15568172924792
1.14078998581859
1.15713284708197
1.1453306048534
1.16700464714898
1.14654027785279
1.19339228860127
1.21387046882293
1.21468083864718
1.24389544479523
1.26148011545152
1.29604748541214
1.29586272364511
1.28536477184151
1.34679762914924
1.38003526772582
1.39490927278007
1.37903737991594
1.38270152666946
1.40994818735085
1.43980150722597
1.4734003270199
1.54609046244046
1.5002213572743
1.5012600470554
1.55404215507535
1.57751308458965
1.57775631266565
1.65501683061105
1.65538662330619
1.60409525147758
1.65210611990997
1.68125050402196
1.74332378518806
1.80588753630916
1.74988295733276
1.74594065719839
1.89769906488282
1.94892158944855
1.8983227516483
2.00381602047772
1.81477078869517
1.94036532743232
1.89927101673622
1.93411842409815
1.95196507287333
1.95240028943904
2.03112544253479
2.03295112888448
1.80882520178222
1.95129118286917
1.83034433440739
1.81517397513321
1.87661114171335
1.92805056285256
1.92098427657681
2.0542933345755
1.98392501293379
1.95483447932074
1.87684073515153
2.069815063159
1.9902731812069
2.10757145513991
2.18925114199224
2.15380496104783
2.02407361000827
2.36313278555973
2.13438280274561
2.2495140253197
2.02685790165366
2.26205237201498
2.1263657725744
2.30505989351991
2.12871459708118
2.15946288984017
2.23080845388857
2.40645759483103
2.29929449800683
5
2.1574441302419
2.15232017853409
2.13557021388531
2.26751849774038
2.06379365868731
2.31022679372559
2.30600485854502
3.36848565580457
2.25857334905982
2.88560979384808
2.29845866228477
2.15618909648497
2.13850549155328
2.61811777449068
2.66148581647801
2.72876567842948
2.15275149022562
2.4222954109845
2.41616179202242
2.25287502722959
2.06698347150167
2.12811549645281
2.03838110029339
2.27411830894924
2.48774465253647
2.30168689738286
2.00940732826517
2.03025620271667
1.8381811820112
1.9852236718168
1.99070371694621
1.9120202330903
1.72051401866317
1.83629247478793
1.70431312466387
1.66561858428443
1.79665339250586
1.55506662449226
1.67047523921654
1.53013550938742
1.5473934409364
1.99304861479233
2.09122667487963
1.54465907836303
1.42806275391873
1.43177069658103
1.47751804115681
1.54230893072913
1.4034080826485
1.58402514526964
1.43999877650289
1.36388730313147
1.33257522026236
1.4093776660883
1.27251888837249
1.1984863333584
1.13476718350067
1.16217230285869
1.14736585908776
1.11634027063533
1.07643229418786
1.03081467604115
0.963631372133598
0.936264548112426
0.872355987149848
0.866895924759052
0.810299850544631
0.769125899263538
0.733863824219352
0.714698765473871
0.679908808964827
0.667509964723816
0.623539418864475
0.609491893954613
0.597862568860193
0.576624525249871
0.559207625382153
0.561417853194669
0.539700604513057
0.539389674249818
0.528324055495273
0.514635840990467
0.508545247824833
0.513675605971563
0.514263078542747
0.507129526190003
0.508012665374888
0.507785620682466
0.506058313031948
0.507261623866667
0.508925701553411
0.50734399201096
0.520080267322103
0.529671013417475
0.524846874257236
0.525002463851823
0.515365387831448
0.519961307460369
0.50385583779708
0.51394311863635
0.500864657685734
0.495277474931814
0.48948739233031
0.486129758081662
0.487360895305167
0.480073828400104
0.475273638886421
0.477279329412538
0.476275127187721
0.480869492417398
0.475031549311838
0.479885208988866
0.474624309440891
0.478210523682092
0.488976709465441
0.490617486029526
0.495323779808477
0.495579328117928
0.496826212805498
0.50590986198125
0.50676566180707
0.506963142215837
0.509739453121886
0.521435261408856
0.516717638549163
0.535959231128809
0.532490102317643
0.520686529768848
0.530369323899801
0.539289404884728
0.524109296897003
0.520511819383426
0.514842471568204
0.537531622488912
0.538694926726218
0.530758461909566
0.545222974276813
0.542589143047377
0.541781007415461
0.564331934760241
0.557215819668216
0.592069457561877
0.595151966905704
0.601347258955499
0.617694662876343
0.645452255690842
0.639573083914121
0.666302064649154
0.68618891107229
0.713358830500116
0.707316876745337
0.710426397101343
0.707895420825363
0.723953874249009
0.704330439871948
0.69586515943137
0.696773856021781
0.675763861660461
0.673813211586611
0.660716462260869
0.642677840755912
0.657181739017018
0.637865466050575
0.643868221907788
0.642740553680782
0.627193189748761
0.623245789443133
0.643481497237533
0.633123767017408
0.630067156932222
0.617496304442639
0.644759929698197
0.632831746608853
0.618504818310772
0.623781067967066
0.613435783592515
0.606362692343402
0.602411713654321
0.597892250976092
0.584043783805759
0.568269435794452
0.574796006117154
0.569598346965205
0.574927080850618
0.558628426619549
0.559639779390169
0.550458230657961
0.543501886342979
0.553505997299516
0.557735797955635
0.546688094254201
0.531902658008377
0.538611744743231
0.539019075984427
0.541672267705758
0.540910924607908
0.52481755968384
0.527660437079142
0.523670486660706
0.52105851136008
0.506144076847447
0.519728980927942
0.514590579143747
0.515353974820829
0.500004926059591
0.511961252590144
0.501132025957283
0.477533835751552
0.479353566263185
0.499581696125996
0.474239481070078
0.490790858564981
0.495019414355023
0.464236522983104
0.473370393588474
0.483709993246978
0.469136990164104
0.48605612027251
0.463986626003405
0.4714104978594
0.48720062396336
0.47308593838717
0.465562354930586
0.508297755863212
0.463992005443074
0.490302230362064
0.480698093264247
0.476797112056355
0.480838523958177
0.468212186056134
0.458443004478721
0.484322305531216
0.491356923013694
0.467130587110949
0.48661692625055
0.494793838622479
0.479490751896726
0.50671761911589
0.506827781268118
0.520582330261608
0.497164614783015
0.515965708725853
0.503812941325919
0.554749669865069
0.547018100524359
0.517543544804634
0.539287795648774
0.575261211974556
0.558105032620678
0.573331442731809
0.559443278270251
0.595943978170459
0.57746310496426
0.576649130544191
0.650465480079144
0.977003285995714
0.720108600509188
0.66322733982686
0.590127534241268
0.706901908421498
0.71936542061681
0.784042812363317
0.795218106951062
0.881346855258198
0.783874711148553
0.81791348941324
0.860112110557303
0.886709446683379
0.816226273530913
0.800811087811106
0.796851671581907
0.924042149016311
0.92554515314585
0.902018632869336
0.808196216757529
0.779036660212655
0.827388980243524
0.852352538502864
0.800373065474823
0.885704181738739
0.775676414587487
0.803921003476009
0.762258517691649
0.804798016851479
0.794404636939719
0.81643242588
0.712393134355435
0.749230135935751
0.773166778733726
0.844902438864803
0.802370653442151
0.772797744475804
0.73295678105798
0.771963475472719
0.7973617370273
0.698902076946045
0.765428092489958
0.791806478876419
0.712579329040004
0.758798283262776
0.705024343827693
0.843224051534675
0.711749982982389
0.720869058961381
0.628087010873147
0.812198805726341
0.710406812225213
0.770053620901811
0.790767536025098
0.720120611873018
0.699982245392484
0.745012318185491
0.785606455640728
0.801310439684164
0.726661097602096
0.790885314825095
0.720850373775783
0.712378131990319
0.683770462170405
0.741437290668061
0.725443558537518
0.819023138728914
0.76319409991046
0.810744621352392
0.795992856362151
0.800282373563325
0.742595516736122
0.778948225276018
0.82359979100413
0.812426688799322
0.739779682903365
0.763080330459669
0.740289364050558
0.804194749807928
0.70766597512331
0.776400153581146
0.808293142063052
0.76395559115671
0.736737223302699
0.886836666529997
0.830517098585523
0.801890589577207
0.931647458738895
1.0338027776939
0.920629011745188
1.17001096818692
0.842517186594011
1.02702330579495
0.904488316343564
0.912332297222654
0.934661755908437
1.1069413269527
0.807510933136823
1.10038148512094
1.09075192322344
1.14961392413573
1.0478574317596
1.19471385372146
0.816132513749147
0.948312885558981
0.897155304275495
0.961787972994519
0.997327361667338
1.29007884653901
0.945019643411309
0.824589989191405
0.836897620940518
1.03771762439942
0.998769539939471
1.24386043872249
0.851067497690544
1.31339443475923
0.7766374333321
1.18400532076122
0.793432041753492
0.880053480386352
0.835991136900413
0.880223487463496
1.04216614938418
1.54000040547782
1.11973695316843
1.61943400661316
0.658339663790954
1.33919924705474
0.817882342941014
0.902188118572081
0.856611045242117
1.04029999810233
0.798384604536876
0.581641488928168
0.889102259607108
5
0.716031384911693
1.16979371306656
0.787021625049443
0.99510319423408
0.967492227504733
0.94267172778382
0.941249088899326
1.29993062412376
0.861471644995927
1.46113984940714
5
5
0.863997374934127
0.90017775276021
0.878154678044324
1.02276808909205
0.600778031868875
3.24636433476079
0.449803728212734
1.46221161611165
1.33751563028492
