3596
4000.36533379555
650.420452594757
1
2
2
0.0487044025149502
0.0336180947912492
0.041257909566763
0.0295400047135386
0.045260171955776
0.0355023604936362
0.0470755103402974
0.0329794222159633
0.0403641684619492
0.0353351936356044
0.0457000862862495
0.0397634590554014
0.0495675327630268
0.0204306815123052
0.0431221799703505
0.0306928014501102
0.0402120459580333
0.018789968202411
0.0512690710311249
0.0268541521892006
0.0446646968627799
0.0359003332971184
0.0486547835602165
0.0286207889396979
0.0444174071224209
0.0373401783326934
0.0374798834227991
0.0243810912427171
0.0550652344288045
0.0300444146785162
0.0494383664526105
0.0364755859331336
0.0473380695919281
0.0306764556688363
0.0499853015189163
0.0323316382747225
0.0553675595018028
0.0286476388888869
0.0568015835532299
0.0335317407482184
0.0489870068893165
0.0361957697296069
0.05688375121458
0.0369988074522135
0.0451974484679948
0.0359605260665757
0.03785561514014
0.0328943622750761
0.0472901915596805
0.0365604803796213
0.0529395396934493
0.0201623141992588
0.0558282089023543
0.0385237246256549
0.0423739135359573
0.0375316150975182
0.047647376229128
0.0296261527210599
0.0388970722336627
0.00584686765947497
0.0532890830467051
0.0383119409489307
0.0424192902650975
0.0356637521229588
0.0503388543037385
0.0303308230671323
0.047497126735773
0.0336548638671216
0.0372933865782889
0.0225035684369431
0.0311155368771603
0.0382965027533018
0.0627867540372089
0.0318388520684152
0.0429671469456405
0.0319698375166028
0.047647643902994
0.0317707737215002
0.0320833170203497
0.0357841496828159
0.0562218456646011
0.0471076621626799
0.0384873095197761
0.0204967059622367
0.0420835545747489
0.0386219299843957
0.039128275183881
0.0160726454242844
0.0690522368185973
0.0383256749661185
0.0407108317892075
0.0228237429488246
0.0445866708824655
0.0325500061328123
0.0414438526851491
0.028028748472295
0.044154010966981
0.0328066258280717
0.034627969537944
0.013578172703452
0.0465857448192886
0.00910682393513935
0.0785409043097368
0.0138197782846667
0.0968349621377509
0.0433551358394712
0.0247575292512875
0.0517434169561471
0.0662842000711906
0.0351609260401875
0.0418376569576818
0.0323550160221206
0.045204413061791
0.0236351991364735
0.0194840433386969
0.0259179191306804
0.079261698845945
0.0371741124783789
0.047220537144368
0.0226582099746323
-0.00515956770684959
0.0187583227598428
0.088978319871877
0.0234096115331068
0.0509691172407758
0.0218999194112382
0.0143925183133067
0.0571858293185527
0.0830231577738686
0.0361651805701987
0.0402142811143387
0.0187174286116666
0.0285902202009995
-0.0122932307271767
0.0672449903091353
0.0408321401178651
0.0414017175171673
-0.00420013986868399
0.0584619542601657
0.0786333603271356
0.0627987948832624
0.028426726493416
0.0186991307251362
-0.000491914426181342
0.0797374443088875
0.038198854832758
0.0324562741263293
0.0399732379770501
0.0672473780957857
0.0274134452697696
0.0422344340956639
0.00624435955516241
0.0608301724721565
0.0289774933633839
-0.0229595273707999
0.0175019654986719
0.0992551113247088
0.0281600751258737
0.102588145212308
0.0347837494857861
0.0507543607703037
0.0365695662520943
0.0424292708063088
0.0186718115803595
0.0385283250040248
0.00662066461967613
0.0288209433926325
0.0485296327501398
0.0331765878609487
0.0101036142652104
0.0762482521024953
0.0270966388012304
0.0183983576899187
0.106915782618049
0.0623269627066479
-0.0014795739053136
0.0634030005949102
0.0444496888958357
0.0200601052513405
0.0115563317127738
0.0785113056478033
0.0370810912928795
0.0408432235194605
0.0195117250672563
0.0352149905393642
0.0419186471022823
0.0515344136022421
0.0264669980289475
0.0448941868755455
-0.0193952126759436
0.0267301364026916
0.076042053658717
0.0807037980855334
0.0317671726875657
0.0367640397230401
-0.0351536807752434
0.0703322167658895
0.0586967028634973
0.0553754508408428
0.0266580751178831
0.0344848880452122
0.0208332755491582
0.0373909492806551
0.0295749912550876
0.0330073883094854
-0.0267508472470441
0.0858853879611008
0.0534484525462798
0.035291641834964
0.0156508926640024
0.0294444833042602
-0.0124583385986119
0.0985734284163601
0.0708961655510577
0.0442319630519559
0.0281916415998946
0.0165044834432819
0.0164337541296385
0.0633476599697805
0.0312429983531506
0.0397503140784778
0.0237396377827099
0.0496203335679073
0.0260481819951945
0.0395515703838127
0.025221331221153
0.0416265885443904
0.0195642402676523
0.0335531296190605
0.033203126779791
0.0532364126084354
0.0311289263945868
0.0512111382180578
0.0233537654397728
0.0276841290342807
0.0114710028892712
0.068053806491458
0.0352998190829571
0.0445061740015335
0.0215938580925764
0.0331275392158294
0.0243906653423406
0.0328937119784115
0.0204817515623216
0.0326470194355004
-0.00859163342256841
0.0848413671434333
0.0397067071992032
0.0444274266039467
0.000725750017364583
0.0665717690341027
0.0450343743575849
0.0506082356036589
0.0256003038388778
0.0445231861868269
0.00723829724292941
0.0193656010714289
0.0475255793954713
0.0469972610976802
0.0154859701924428
0.0601361349442699
0.0377174352736527
0.0434442363721141
0.000311973726574314
-0.0025893727054826
0.0973613625951467
0.0532834374746438
-0.0107332610416834
0.120017217547595
0.042591899342745
0.0669283391622222
0.00976377329912308
-0.0416912038908453
0.100146494194818
0.111772345695682
0.0258836240246816
0.043837265789903
0.0411545480405821
0.0357166707926807
0.0231626298494867
0.0338040448190163
0.0163057969920045
0.0406358504899927
0.048865253266043
0.125566087962989
-0.00166939490272193
0.0624921335807532
0.0608794021268581
0.048322288392152
0.0261081593674788
0.0388075759419274
0.0136198677053141
0.0579063393186484
0.0403646325564992
0.0697827796145126
0.0346173820386093
0.0449022772860278
0.0608678731843444
0.0575366992768663
0.0266352769728923
0.0519045056221858
0.0393154911249495
0.036943736394235
0.0372026766689653
0.0317753770296212
0.037000739352208
0.0234687582988827
-0.0159245369274579
0.10803725240206
0.0448553341291021
0.0353984612383285
0.0614908606556579
0.0610244716114688
0.0312611522950568
0.0458837856947007
0.0294860559862638
0.0442920498436262
0.00720999244847106
0.0245589250621417
0.0643654089864748
0.0591250115486717
0.0397758341791701
0.0492709453637136
0.0277609291764025
0.0444112878477209
0.0409790752110643
0.0362085185208617
0.0341044976409925
0.0560401315897316
0.0147868189488196
0.0623883769672016
0.0570642672516588
0.0144784984679846
0.0536266066214785
0.0896090757414618
0.0476287139008753
0.0544637843477476
0.0347485324592908
0.0542421289831074
0.0367257434419376
0.0499215148416491
0.0294515930375245
0.0411055993089334
0.0560548132514155
0.0655323343836531
0.011582837937196
0.0135679464154389
0.080840225209529
0.131702887900645
0.0638275692759201
0.0568958194690945
-0.00460128719753912
0.0797098160828234
0.0650276134892796
0.0699459165468952
0.0660198217507668
0.0633901775374447
0.0496207921497416
0.0619471129195028
0.0389077818685979
0.059742631097201
0.0544794940944667
0.0579782593611632
0.0466317678124676
0.0577792625128747
0.0606259979777809
0.0444197148750133
0.0307650233244743
0.105094676252799
0.0663196579439702
0.068791154245737
0.0498415859726834
0.0435595582524046
0.0538514605835424
0.0760461948697291
0.0915406097898846
0.0894743616304529
0.0624406934865375
0.11566420752984
0.0616656616203274
0.0848472186235235
0.056185617018178
0.0797018875734114
0.073027158756855
0.0803010240086178
0.0701663032860156
0.0808305171132994
0.0693825883759272
0.0908389492256416
0.0659698133726432
0.0799232834298823
0.0628729053989196
0.10924482363113
0.0771029943333044
0.08946010723514
0.048905747827062
0.0777275175746376
0.0928213646492932
0.166030850619464
0.0917248330193619
0.11017490483214
0.0871516803596424
0.101230319234222
0.0857189608201239
0.0952203690895602
0.0875868931364442
0.0963596806694207
0.103672330243766
0.125702959868676
0.107211243322737
0.13223427269488
0.0851347968437111
0.122111539090327
0.105125410256372
0.106766015506528
0.137708562493322
0.140726460897756
0.0796824904497008
0.152057182832539
0.129936081144291
0.128029072884116
0.131238044590227
0.136159693862874
0.117048212702556
0.130856145704703
0.122343930679692
0.149590079210028
0.121854618807836
0.152898663220198
0.125910811902275
0.154999369493343
0.126894185948255
0.145330543899943
0.139265147906845
0.15362346847288
0.138245785517221
0.165622661463566
0.143033235242189
0.174984450001816
0.123450493460999
0.177083856291028
0.152398409796139
0.172973153064045
0.179318404026399
0.188298886732862
0.154579345263216
0.189710910453586
0.169701595637368
0.192518028091681
0.165182986238908
0.201515604595367
0.170798411082028
0.183636937390039
0.171331570408772
0.191094897831319
0.172690884024468
0.204423854180942
0.203073797895741
0.219002929155226
0.191420469341373
0.216838667035389
0.165923083103548
0.232247837869041
0.214408458176151
0.246851897242208
0.237758381027468
0.228008612703394
0.206709395223175
0.229311748653849
0.234355892127978
0.23873155542954
0.23358166803407
0.257387397156676
0.240757690599724
0.259027739637301
0.231156912896536
0.258926904607764
0.230559423373327
0.258930427492269
0.232945551252739
0.280231443072333
0.265106444749826
0.285665796351487
0.254967973150949
0.272693162150889
0.26430465486186
0.277977389175151
0.266541732040309
0.306949520956782
0.27682697359032
0.304667289159795
0.263759817138624
0.301105262034074
0.279975849521497
0.315080209832139
0.282568235260684
0.331993123690232
0.302476659232949
0.324015650394489
0.308522525833491
0.334351060556425
0.301033361069245
0.353139126893667
0.316154016657109
0.352824744033419
0.323130167907902
0.356310237194082
0.316585834801779
0.359205007280173
0.339184984805328
0.39137922083088
0.367634624925593
0.378042959360001
0.357090724155899
0.371045685335359
0.366163190243051
0.378556754143905
0.361535735195643
0.377509212557355
0.359994441686877
0.396363203480917
0.371139906525272
0.422692373440716
0.391924373087888
0.423982300194065
0.380860093480852
0.415502677626005
0.39292395139389
0.430482489215654
0.409251043371817
0.42766819647719
0.415561359209638
0.44098595434435
0.431476474967281
0.483357838821753
0.418776795849541
0.456132369546389
0.419376276597349
0.458258691798153
0.44214313822247
0.495421992955579
0.455518863279034
0.46757295019331
0.4523464329118
0.52498073391159
0.450706852667259
0.509106498325837
0.452953694998044
0.497709918024961
0.47176558079812
0.503089600790525
0.469019430672891
0.510515244602462
0.497418555011875
0.514382202584985
0.514373630396031
0.524111653711939
0.491042988198786
0.541064181142833
0.510211719247376
0.544154755870166
0.515135369430933
0.559621500373511
0.518547604762553
0.563352271072541
0.53024262455149
0.545173602996527
0.527501880396304
0.552866507119652
0.520027670913749
0.589411615819554
0.539635477421012
0.588206449341671
0.59658942539667
0.598135803775543
0.546722788528852
0.603708403927478
0.576308085622901
0.577574831670353
0.562903465836466
0.629732906120425
0.562211069914807
0.619368773816991
0.593021105441756
0.635907126200443
0.597770685776962
0.664825493049325
0.587990803151592
0.6411638230809
0.615515961686646
0.665511169247155
0.60400578435289
0.717223375966704
0.615039247701542
0.659414850836399
0.633291799972468
0.677761083318456
0.678211863246462
0.701113050492731
0.632944812781497
0.65558078697179
0.64004472591067
0.690409248383907
0.632610644092198
0.687032114782127
0.65919252912648
0.695133173708838
0.680176173349119
0.713943079281768
0.653417630457423
0.730331971853722
0.692747201309365
0.710749113952476
0.691008730700286
0.773620395025208
0.670397345192223
0.717787727623663
0.705522275526517
0.723076751881563
0.740452427713118
0.731985319854272
0.719937729204035
0.790829757312988
0.722114728857584
0.738929358202068
0.706182487666672
0.715511498219921
0.717667496902578
0.747753272496592
0.720274797928716
0.771033256562034
0.733609536306635
0.74291735924808
0.72545054174872
0.813620477220916
0.73614054837898
0.768782985766462
0.745654152422484
0.777655332925442
0.767332224616637
0.798133648596504
0.772686121402908
0.770359993516791
0.735850517699078
0.828177600993942
0.787546360194511
0.808310826255875
0.757769578453087
0.819414993609461
0.764617223954912
0.767731435542591
0.787871259446151
0.850853308173367
0.773537890256066
0.80232083580445
0.82599333708507
0.854276284904717
0.798030616293377
0.849983918006562
0.789891882703444
0.82231819208426
0.826146523698805
0.818338330336557
0.809332511571816
0.812922512003396
0.774895830096104
0.85029514801822
0.823502562650297
0.832885979641133
0.835100956211302
0.842912137975665
0.798321938392981
0.829786337090549
0.808604596016704
0.849779535634803
0.829041352351137
0.873553447976652
0.831941193035279
0.869936530635841
0.836048628267632
0.902782080595409
0.889529362608598
0.852523647519658
0.814631405170869
0.867940223363442
0.85012841216577
0.879321010006063
0.840123838719809
0.824323157267141
0.824209260958046
0.93514539948505
0.872130825756595
0.893520808930534
0.885934511353513
0.857048633910856
0.821787325385317
0.912207103851494
0.897857300118658
0.873704840667422
0.874729671404483
0.920733789701688
0.864031167710848
0.916595566508611
0.843848443577938
0.874897685142892
0.871802815525961
0.900152390807123
0.865333182440109
0.877487985997231
0.89522193115986
0.895612210069514
0.855056845247968
0.922659936849607
0.844298666241981
0.907448207887514
0.882091326788925
0.923356384589402
0.887810548842135
0.895118802119495
0.87925484680692
0.914911889995847
0.843514230490855
0.849711054621638
0.878520660630628
0.930428316108513
0.88331760671975
0.891141629390714
0.851313804701184
0.8802880138451
0.865267308494097
0.906729174223536
0.904215186234867
0.889207960542275
0.865208764848511
0.894586790508903
0.868646808608594
0.939754061162212
0.917044282011918
0.88501470886804
0.877797759607496
0.904522071546397
0.88729539133629
0.910250142587067
0.88575529606045
0.885524983934115
0.848862494566775
0.884644021055962
0.888162123485827
0.907183713159557
0.875689892294249
0.89879524918709
0.873535113324762
0.848099300909714
0.896313615541164
0.907546943605119
0.866895706846873
0.892065178764775
0.88874376180057
0.89704487900069
0.871067810121158
0.896379757503103
0.882616339376037
0.860650277022389
0.855634087959231
0.900676966367664
0.869674877710527
0.864511469178653
0.841295931301765
0.885809151212123
0.895867478929108
0.881922020764287
0.879508100787079
0.88214060918568
0.859270636361055
0.880778493888029
0.868789960608505
0.880974343249451
0.847667928555414
0.857763121410443
0.855702717460361
0.831573142994088
0.837504323753913
0.878360707510308
0.860845824301668
0.852644876763696
0.861283623684469
0.882830877833427
0.813038782379626
0.821716009757092
0.855357051561745
0.860909525626174
0.833548583916115
0.85511498169404
0.835876133303119
0.83685869507449
0.837589633159139
0.814852526745213
0.830226040991127
0.853627181267151
0.817906932987758
0.830227507691545
0.831204684537008
0.832050404251816
0.833285390922918
0.839123540813398
0.826686719268443
0.813986408573676
0.79426736095314
0.800074512262863
0.790152494203541
0.784117550680589
0.778394805760758
0.80062247342317
0.825778056387522
0.814622997483326
0.812985316816856
0.813743450553052
0.795238387853996
0.785240740472455
0.766103085627108
0.782401634394425
0.798120707649638
0.792059430702596
0.772913273169343
0.78275210713154
0.774708212854409
0.799790964638327
0.781214306837951
0.778609449974368
0.771828976321572
0.752812094625528
0.770481895195994
0.778285656752559
0.746239041688687
0.747390117157329
0.767255935113107
0.733561433595486
0.743722704204651
0.764633484660835
0.743461586076517
0.73534427318911
0.733968588693556
0.7120126830402
0.716349507901266
0.743098850854859
0.736693667853715
0.724681266346979
0.751552780837608
0.735902792351757
0.721015774569798
0.707763877341089
0.702277313669026
0.701429014583407
0.688084344979875
0.685165283556604
0.710514991123817
0.719565876031394
0.715656293807573
0.698387874170388
0.68987305903614
0.69976918428564
0.700516265959618
0.692288933075398
0.687536359741998
0.672400778067894
0.692214992070442
0.671736156713286
0.641879125961282
0.650777146303526
0.671971615668161
0.656575278661728
0.661691548154727
0.660865754934336
0.656406412756064
0.661535412419214
0.673094266454688
0.656058250139069
0.6372137938239
0.63423222573319
0.649931045436829
0.624531265078923
0.619893827397755
0.615991900030356
0.631682333157887
0.617868916229275
0.615896355585146
0.612017297974901
0.608573949784399
0.611734203508888
0.620431784638096
0.610857230942579
0.593331809834551
0.584321646681495
0.595760593112231
0.597017002310621
0.600695388629909
0.575950425136976
0.578856778502665
0.588130165753916
0.582685599732732
0.567253730471112
0.573479277244754
0.574326826582139
0.56540465130619
0.562009981806192
0.560359756686548
0.538727552576981
0.552233008354709
0.553578605503633
0.551371690554707
0.552995228297962
0.548282781438924
0.531188759524418
0.550464099912653
0.528206255062013
0.535149320033945
0.537468952655809
0.523038321173214
0.523007664700915
0.520337096133129
0.518278392722174
0.534327725650402
0.518126857386805
0.532452678801307
0.50718891959954
0.515252149795244
0.510509055002196
0.496612016656486
0.491471504376495
0.498846035768791
0.493260053389803
0.502201718205423
0.487858737827134
0.484535847503568
0.469215269223549
0.472959909319057
0.478009309594775
0.485231841219823
0.475833877115367
0.46932008122322
0.466657227674142
0.460842863154074
0.44901922589245
0.462102320309155
0.444565061911741
0.4488272459851
0.443429370033716
0.446853131846029
0.449006593412049
0.452629005095194
0.423712113821287
0.428781646458584
0.423834805398316
0.437606589830859
0.436655685331627
0.430699710347833
0.413968978396889
0.418040084607818
0.422722092766851
0.432188135421504
0.419499969161056
0.421029649447434
0.417088210067089
0.431374830592685
0.411080342060336
0.420474958925928
0.400373818484235
0.40563655108294
0.394683622581752
0.388167645694199
0.380591567583281
0.402182601970128
0.384196262787153
0.389007914049362
0.388081642472831
0.385228579244376
0.3835791764056
0.390701950297612
0.366948787679499
0.383354609634419
0.373387386422492
0.370138562106354
0.370993498090919
0.376220560843889
0.363049067627799
0.368777158930442
0.357550637270206
0.362902646410363
0.357108112761614
0.360465934049568
0.361085874568508
0.362814880954067
0.348078344608366
0.353458947576325
0.347428647077691
0.346973208163576
0.338335653784061
0.342963975844717
0.33868423789391
0.3405050327878
0.323298733572629
0.337788321457283
0.333907795598688
0.328305421263217
0.323634854917546
0.340566552378092
0.32895885750935
0.336884847291781
0.328764509228982
0.332044010769721
0.316564083731901
0.321887495518284
0.312279119042213
0.315254088917191
0.306355942321257
0.313265892773006
0.313911334526567
0.315656440789344
0.302489644423987
0.302160174858079
0.297883909926808
0.30059786303826
0.292924583271548
0.305899779508482
0.292910994335167
0.30013059695302
0.290490644552359
0.296880285159115
0.280520092183165
0.285338045342561
0.283558748477992
0.291037551653068
0.278174588110928
0.285490933482957
0.276353097395186
0.283376056030411
0.277633622597169
0.276143298260298
0.27556321517192
0.277281920635949
0.264423333096933
0.281176787420409
0.272953036736213
0.27622881536505
0.268447474365665
0.267478968171278
0.253204052793442
0.268180477864364
0.254638107670033
0.264483843870717
0.255749332095254
0.262230338862713
0.248378299333408
0.248953592512112
0.249730654631517
0.261780217248359
0.242538477734522
0.252156067230002
0.248991427621669
0.251257787778826
0.246228075184522
0.257643228837087
0.237666297149819
0.250077173640154
0.240570632172834
0.245326801642693
0.24061273976061
0.251537009720839
0.236032371926918
0.239361840275496
0.229989536351753
0.241040675118098
0.236236672314147
0.24287521294118
0.232462947448178
0.242472752678758
0.234490839913569
0.241022927070044
0.233301229632984
0.240764810665613
0.237319600173575
0.2435837223475
0.236481491644026
0.245680434894333
0.237786206939604
0.248266053445929
0.236397776884073
0.247056390301933
0.241560190173641
0.247950869031815
0.238125624202784
0.251032260598642
0.244419086611949
0.253210485084411
0.247654396883927
0.250988995515308
0.246478140688872
0.258686343294101
0.245457003584289
0.268387847589755
0.253066873693573
0.26908717230271
0.254699864558708
0.273412328496038
0.258856517094328
0.267305877664459
0.265103774311952
0.271840234525031
0.264477765687337
0.282836062782013
0.262453744869556
0.275257927241701
0.270909973629177
0.280682178314407
0.263745236306972
0.283312809129886
0.275483777912549
0.290427301433066
0.275965056860142
0.289810685429477
0.278049439201879
0.295518468695506
0.288722958429696
0.300912081141968
0.284952383267964
0.297182728987494
0.300632948484145
0.316133284241454
0.298146851630702
0.312306842342865
0.315196685281171
0.324659618108585
0.314185062874423
0.321391979812654
0.319901276429514
0.331494528378228
0.321624100188476
0.342684877815605
0.325551603322564
0.345589322660159
0.322921760186894
0.357648666950569
0.337294445080511
0.342732029663675
0.347645620282881
0.348467519925505
0.34843057690848
0.354431806859171
0.347170984582111
0.353634057705038
0.354637280117274
0.359806238425263
0.342680156276184
0.362357410446853
0.351686146760978
0.362910293606824
0.343214522739397
0.361957922254998
0.344400125439898
0.359441053541163
0.343387064376508
0.357415430409587
0.342256270102782
0.359006654063919
0.348152321586392
0.352062954612149
0.346092344382475
0.354254697755414
0.33952344663837
0.343130065070354
0.338167026754097
0.351755338900842
0.337789538838332
0.3500507767454
0.34628274204884
0.347489392811385
0.344990492099146
0.356603055542611
0.347096425606521
0.354258783522331
0.346997960294994
0.354872848824033
0.344076265712204
0.34774262168448
0.3418730026428
0.3555379897234
0.334116440794139
0.349391503775965
0.342697050058059
0.344949860675489
0.335696853264737
0.360007471858904
0.342804927103673
0.352265636912343
0.342433145456884
0.357295810177067
0.341733388160993
0.351306370616457
0.34335935521607
0.352579904229384
0.343860388129306
0.349622649940005
0.333183848789761
0.344788318025114
0.336221676018468
0.347865204682753
0.340406362333967
0.344411233425308
0.330441259595132
0.341955819427901
0.330061899866715
0.336308441046678
0.334188233489106
0.333947015357182
0.30894082517129
0.323731884179851
0.312362299662861
0.324757071786543
0.31501776425263
0.317107798789889
0.302326555289214
0.313377422869589
0.295994620549079
0.30264154198089
0.300332569947576
0.296321902295559
0.289817590312256
0.299701478854859
0.281185251470058
0.297061924852697
0.280917013733508
0.291750574428707
0.268775166334387
0.280217597895231
0.266081238895524
0.275900763972869
0.260100847086619
0.266513625650117
0.25430641589452
0.265465855450898
0.252648458456535
0.259196216193678
0.245497388334882
0.25616201432008
0.247429500021401
0.255524582056513
0.236095575313431
0.248227764240291
0.240294170126491
0.249045037372667
0.229643809830832
0.243330714766506
0.229997610433315
0.237339161202605
0.227571281504588
0.23909578263464
0.22693773883354
0.232380058339657
0.216273164297379
0.226159571891881
0.220085558491161
0.228171024300764
0.216170207411792
0.224335777892854
0.213164696417262
0.227271684385196
0.209658602968249
0.219435542048046
0.210617687602666
0.214873886086072
0.205690752748002
0.217939041982882
0.204044474186393
0.211022547684699
0.202082736475605
0.211919022581331
0.200424476696504
0.209742390172567
0.197481416053298
0.208239984248431
0.185627674432899
0.200067801499208
0.189147877073505
0.204908239828553
0.189430804908192
0.196318718119635
0.186693092316413
0.19699352596206
0.191692258565293
0.190826656223548
0.185504361373117
0.194913532348373
0.187414383130463
0.196090361669354
0.183283473028668
0.194678717531704
0.182992621579728
0.188509097997485
0.178759507133828
0.195363439828984
0.178144085895062
0.188028864567295
0.179467978153073
0.182064915502832
0.175864807302042
0.179562336558992
0.170428656980435
0.183229081752981
0.169634070574687
0.180932490852362
0.169265333831487
0.177957127154892
0.170694156409631
0.177537505447955
0.167299941936968
0.177487626524043
0.169464328142547
0.175581343977966
0.163835411670257
0.173049586167465
0.167627399965587
0.166004464047764
0.164750704223896
0.170049785296466
0.159102695605742
0.168261193530313
0.165636268529874
0.168756279564167
0.159884325258691
0.165815933189972
0.159331592271639
0.166051840994588
0.158167011363983
0.167690741212613
0.163019185727609
0.163381400430756
0.15507610577656
0.161972723314276
0.155717584074541
0.162341252247724
0.155119949695279
0.165263789210941
0.151588694298044
0.165025370824541
0.155601351370112
0.165520984209644
0.153504545408799
0.158956944197939
0.153002706386318
0.161307699209671
0.153742038278453
0.157224045141625
0.152426498594084
0.160608863072269
0.14951281238043
0.15655266796152
0.150292283759047
0.155490312561064
0.154367995383591
0.154224414931925
0.153155047138817
0.153845016079375
0.148893200454125
0.156100962411968
0.144843602940931
0.15737424331423
0.146159908920799
0.152092202897247
0.143947911021829
0.157995867233234
0.146962982235812
0.159031386773716
0.143997128252164
0.151570120322179
0.145081145636454
0.154724603683611
0.144053524855201
0.157097670006865
0.147479918955824
0.151552521879603
0.140291057063543
0.152379310195782
0.139320788432428
0.149842461523719
0.14350476014481
0.150635833355444
0.142016882767281
0.143643599586411
0.137373644242138
0.154906786086506
0.139807733506179
0.150389181543301
0.139360755936727
0.147698091507212
0.132319837536674
0.143734917675105
0.137340133325274
0.142202694164838
0.132736852076219
0.1422339879015
0.133930076633441
0.139326412938748
0.13466062162381
0.139882260134219
0.134125875696566
0.140084460563799
0.131319993755015
0.142975641556871
0.125727643518129
0.132281128816347
0.125838724845203
0.144852786060135
0.13353105705662
0.137242184011132
0.126848096717415
0.134740499902563
0.124112042373129
0.138312505885074
0.120741015651709
0.133949832630637
0.122506092965413
0.131215171144364
0.121656556428661
0.132591149145493
0.121738952389191
0.129475228125641
0.12359910215182
0.13194147852529
0.123584121463532
0.128877582882838
0.118626330694648
0.12685254717057
0.118441869964018
0.120904314938224
0.118834344772496
0.128932741391237
0.118010118667671
0.121419939013106
0.119367836759787
0.124613414344793
0.114168189252849
0.120355787109482
0.115813019590562
0.11903715903661
0.11663694251747
0.123532593186947
0.115351167209165
0.114504545424165
0.109221020078912
0.11854741016894
0.117601623400801
0.111152546402824
0.111579139415775
0.118772460153957
0.108800842227583
0.11377236830019
0.103508999139108
0.111287750978686
0.104987022617412
0.111240995769358
0.102205528752972
0.11075075924923
0.102117877803852
0.107344809225828
0.0995254920104562
0.111820311731679
0.100881036789041
0.109088803351362
0.10558077207128
0.103167278983632
0.0973511719201069
0.105434830803804
0.0956736407995998
0.108374678862849
0.0946653549246689
0.104963126764621
0.0976214610253027
0.105713036829755
0.0968929235300642
0.10073371359653
0.0953739201624288
0.0995064436153896
0.0939122469477051
0.10041902528359
0.0924305198069798
0.101565595695071
0.094670850823707
0.0978148759702996
0.0964851675435251
0.0967380267701634
0.0895771743320125
0.0997151900705788
0.093004126112499
0.097990094594447
0.0871977275052415
0.0947252955178442
0.0897392551911858
0.0931726789367608
0.0859503137234285
0.0913413567741789
0.0866450427221764
0.0941012935553281
0.0888689183687981
0.0920290824256438
0.084659693413584
0.0906712230506906
0.086214110154295
0.0907657966700293
0.0837479721368537
0.0904823400242113
0.0864931412446223
0.0917267316888804
0.0845735258560212
0.0868678471842437
0.0809809819114512
0.087043321470643
0.0793672888752882
0.089821546931033
0.0854520570481145
0.0837694173795735
0.0836707035556686
0.0874357191514414
0.0772306881107371
0.0827900372122082
0.077812847783862
0.08541934275487
0.0848090066278729
0.0845820123875761
0.0802398893025751
0.0859057948163024
0.0797206675788718
0.0806352083019859
0.0815406558101543
0.0825962959129142
0.0798660878620151
0.08529329168005
0.0778876194459919
0.0803656806020299
0.0781717933964016
0.0844421732706449
0.0799917339935917
0.0815503721752244
0.0802787099112232
0.0817413442233307
0.0738580026256711
0.0802283803254711
0.0759616032852273
0.0794065910302146
0.0763504976051206
0.0761914396027236
0.0780360471252923
0.0806995568440824
0.0761296308930927
0.0802911909257824
0.0755591866478164
0.0792187438203391
0.0767144067942427
0.0798734866729977
0.0740630071708931
0.0750297799713844
0.0721027117133413
0.0787555514414464
0.0706357674090097
0.0772116675457077
0.0728499531796072
0.0782740866221853
0.0740812831623415
0.0749654775783965
0.0694678277107113
0.0755230902307961
0.0725551695138918
0.0793133034491863
0.0710259353392498
0.0813311190640255
0.0694062639950873
0.0722843317134298
0.0691331722477782
0.0790850201556796
0.0736797306467555
0.073436714364803
0.0694700526588676
0.0738179783384388
0.0697520032532472
0.072990992617252
0.0678782129240045
0.0742735747335836
0.0666798974641095
0.0694951229590043
0.0687884762392131
0.0719922675422599
0.0664454822941802
0.0695050287569741
0.0628232910086191
0.0705628186619925
0.0660431288991007
0.0712632203191729
0.0664121970371176
0.067487905098653
0.0644055477964425
0.0702293565536858
0.0666446545327825
0.0680690871047041
0.0654050602408984
0.0732217566124262
0.0636591556306807
0.0708478946601897
0.0669882989062803
0.0689287298321876
0.0642706821498842
0.0692318028990549
0.0655063116416937
0.0687543171748189
0.0621010277186303
0.0685129612284465
0.0622724742609291
0.0674277983327683
0.0587367118874715
0.064707629311909
0.0671542170743865
0.0662326772875809
0.064693154829125
0.0654064830449354
0.0646150902309724
0.0651041620442934
0.0641759965200514
0.0681942710101069
0.059725970879852
0.0657026438913255
0.0589694581823537
0.0626039877539815
0.0597824496096283
0.0622177052377769
0.0610684749551001
0.0632167877472428
0.058708376409191
0.0623655837565585
0.0569431306889283
0.0630634869832577
0.0569978173259362
0.0615046612004164
0.057357627284546
0.0598650983255423
0.0561087320281247
0.0573302858023348
0.0573965860258126
0.0579243378106685
0.0574355860441477
0.0557336887100405
0.0541804424674805
0.0546547689687544
0.054941399974843
0.0587481997082199
0.0523471320983092
0.0554874273246024
0.0517602274672757
0.0581538270394976
0.0532444254942765
0.0583717173739244
0.0526270018243394
0.0549853743911041
0.0554346424643506
0.0576126981329044
0.0494866095721319
0.055383728053751
0.0510806429628783
0.0516262910552701
0.050284141911423
0.0532163283223328
0.0540731038941401
0.0543306309103175
0.0490306239794147
0.0504940579220843
0.0502901175839352
0.0513044496641737
0.0499509747395219
0.0512385916045065
0.04761926621999
0.0512204718862011
0.0491723513849272
0.0504257463538824
0.0453092313810792
0.0496096684165123
0.0459851676141989
0.0476883754997175
0.0443175139037883
0.0503567131967179
0.0477196748804038
0.0506510627930803
0.0458217310673081
0.0497608941849602
0.044458099169733
0.0487478042791343
0.0485631731994629
0.0506257277784569
0.045757780585491
0.0470102631206921
0.0426174426125561
0.0454321701439457
0.0442564699216748
0.0475695685087447
0.043531931666459
0.0454555453641134
0.0443938834318674
0.0448369597068094
0.0436419399118429
0.0441289883366751
0.0434469375528927
0.0435749300815801
0.0419607834230146
0.0438948044114456
0.0405300998642912
0.0444513073032036
0.0425354973141322
0.043766477550464
0.0428803419694977
0.0408635206838912
0.0413863167313425
0.0427850651989877
0.0406148245707788
0.043395330004903
0.040031724826534
0.0416939355391174
0.0392612917360937
0.0435041756242156
0.04042720011506
0.0411235469905142
0.0422686172533605
0.0413867742871361
0.0405426200488355
0.0417338813473884
0.0391787771029206
0.0386006297902625
0.0374224980366978
0.0440490008552061
0.0424169724194369
0.0423671868119997
0.040455299504609
0.0402412118149608
0.0454388868876401
0.0464368564668846
0.0430086039568648
0.0415964291647862
0.0410099601265663
0.0462114972263713
0.0407122511885197
0.0435929110454963
0.0409437755344452
0.0403483354567131
0.0426643311941032
0.0515230932696925
0.0524395290452983
0.0501709556256292
0.0475458479257156
0.0397418676339985
0.0456890708282452
0.0525104919936141
0.0482702643231537
0.048427188978549
0.0483061042545892
0.0501407694805392
0.0515229546663009
0.0519187136068867
0.0446896457130522
0.0541947687471483
0.0498943189557477
0.0466262759953225
0.0490650000667269
0.0454993062199671
0.0545422702605286
0.048127363402663
0.0503734035110221
0.046378297742609
0.0410434216103411
0.0349041072522704
0.0463796410390317
0.0431942386986501
0.0430350805973939
0.0444209503136031
0.0485427236285135
0.0375634506535281
0.0514222488183321
0.040190493132528
0.05776097328387
0.0333086048181934
0.0541623838865009
0.0308606373390735
0.0549626869966825
0.034516720698953
0.0619630381763114
0.035172491074393
0.0610720458987648
0.0238314445337897
0.0609306169699736
0.0276734431490946
0.0702481886055445
0.0245910696287174
0.0582389935082245
0.0129477884624361
0.0701887410590151
0.0296089172690488
0.0620935975160476
0.0124103847840539
0.0674473849827318
0.0265285350025378
0.0487544334346161
0.0281763817228031
0.0485652366937011
0.0379250734537521
0.0351938548814004
0.0521370249995863
0.029953505390647
0.0501228475964741
0.0275992770107844
0.0542311197932029
0.0228877322807611
0.0463084787354521
0.0280864142230852
0.0443203015905317
0.0343714165231303
0.0375062494164507
0.0350501925789968
0.0353226982736492
0.0334984061009576
0.0336287596657923
0.0337278881476277
0.0335828437241382
0.0300980336175567
0.038175777540456
0.0304614100757834
0.0357974599845932
0.0306004560034467
0.0384241766756907
0.0296351251061921
0.0342500764894097
0.0340000128538674
0.0351633317802237
0.0305896657968153
0.0325469066258516
0.0349961503088914
0.0356264135474568
0.0292974365144922
0.0341471299871214
0.0300006329039208
0.0353837501024771
0.0300573826635618
0.0361951540770139
0.0310762665581853
0.0351121101194009
0.0313058904830778
0.0336328683847968
0.0333518316693465
0.0336432399986836
0.0297925289162586
0.0320529214043736
0.0315067952410872
0.0336589758095149
0.0301040571459345
0.0331412974575033
0.0317530713271983
0.0358460172351369
0.0286316947590687
0.0331858103677056
0.0294483895667379
0.0344981328351177
0.0317106295372981
0.0344426816183097
0.0311050712377932
0.0345847028522479
0.0330445454549171
0.0296269921012023
0.0299441008652551
0.0343642382910918
0.032672730841368
0.035312803007055
0.0314250628925446
0.0330940003638217
0.0299272086628136
0.0338882889590401
0.0314798354749039
0.0322868432658624
0.0293487254733835
0.0301857150741997
0.0270735535091253
0.0309223691424208
0.0317899971186809
0.0319254587540416
0.0272776585903739
0.032203127008744
0.0301811609182779
0.0334924891766287
0.0290477244896795
0.0337414547415026
0.0322143019733969
0.0317461567879928
0.0283560812200033
0.0307700074216212
0.0281809574729757
0.035223295084475
0.0301804355170718
0.031723776639203
0.0304257926033753
0.0337570022503541
0.0289279916004814
0.0346968049383888
0.0329823109531686
0.0303759454257503
0.0305769080867619
0.0339589444702383
0.0295516088969052
0.0326377126964176
0.0300621701218776
0.0343112250519313
0.0310290359776408
0.0339573518760331
0.0308880123093237
0.0327028432443292
0.0305844462248231
0.0302241789854613
0.0295855769387721
0.0320548585675658
0.0313700126798586
0.0343561808433728
0.0307408280476523
0.0320286836118068
0.0326498335747864
0.034536631992594
0.0328245850241262
0.0337745139897546
0.0304814678598211
0.031665915232977
0.0312110847087803
0.0330123307087017
0.0328951389154923
0.0335062222004819
0.0299646716439872
0.0347788612488114
0.0321679879130689
0.0314435466735496
0.0332592840682853
0.0348499493017371
0.0326529823277529
0.0329172506934075
0.0316668913621049
0.0353269728465745
0.0316730259409943
0.0314537949065121
0.0303698853218151
0.034493872876205
0.0319511976006236
0.0328703739026278
0.029892147368467
0.0338065559463676
0.0329973424616576
0.0350766303413709
0.0324078997183956
0.0346085414291014
0.0333155444312737
0.0318119401192006
0.0348298215300285
0.0352040853239156
0.0338984601308228
0.034987197337963
0.0305129418738428
0.0333429597585101
0.03568007048067
0.0341894250459366
0.0339761940119341
0.0339842464803932
0.0317671411043795
0.0346788768545857
0.0344056749812455
0.0347560646504246
0.0333376341758994
0.0332442406607695
0.0319420392099557
0.0367506368424484
0.03527746503214
0.0345289120045748
0.033875713115728
0.0355786927285501
0.0321490755680807
0.0335269013080873
0.0338583725415937
0.034530263889879
0.033744835564017
0.0331477255727128
0.0345945874248138
0.0340691488516957
0.0331982228080668
0.0357667515564305
0.0336418931700884
0.034928471774925
0.0308759170126031
0.0327921020867824
0.0345691037063999
0.0335160311693899
0.029629177628535
0.0333887182201868
0.0333048398121822
0.0356054167424295
0.0328685413900555
0.0323223467969571
0.0340153934640435
0.0337663315346077
0.0313924317440055
0.0324985039353731
0.0323847826210342
0.0323676100652492
0.0313888703877491
0.0330742557131745
0.0336837281903027
0.0323258553758146
0.0323071868049497
0.03347826934325
0.030267236582389
0.0326796610853227
0.0311084482526975
0.0322890461406024
0.030524941754657
0.0290583306737218
0.0321709747631752
0.0333153128972371
0.0308034412811359
0.0326412526589905
0.031395444914488
0.0364046983670998
0.0315026834515814
0.0287551561007298
0.0302203582459351
0.0287113368226552
0.0307902202721636
0.0332453831441992
0.034004559074147
0.032488916885728
0.0317679395924096
0.0329491621421939
0.032017959591053
0.031634486597019
0.0311660152911393
0.0303786998079727
0.0344002847953912
0.0309605317310337
0.0342793477870503
0.0321359105693692
0.0298225596394202
0.031775396611814
0.0289742740408405
0.0301741597056645
0.0320355880165117
0.0300066101495083
0.0302318369473397
0.0327029570915598
0.0310110583020707
0.031649573369923
0.0318576687976439
0.0308720368248084
0.0310098393310772
0.0334642358897485
0.0323409070988582
0.0313577966836257
0.03282620754903
0.0320933205300497
0.0291517810587066
0.0342929149298215
0.0321546502316684
0.0307339980920943
0.0332748043406511
0.0314881200751962
0.031278458621024
0.0306435657342079
0.0271817391107166
0.0306270078676806
0.0299689188842753
0.0304947237625119
0.0313316035705084
0.029484329039047
0.0331789261581317
0.0330405853984791
0.0336250507393574
0.0320024459895006
0.0309282953258205
0.0293210532231002
0.0298656565982676
0.0291223574222144
0.0310812414117937
0.0289495053018203
0.0310749770211023
0.0305450820805256
0.0305871357399203
0.0312737107364993
0.0309293415716485
0.0310989771695505
0.0307875960012507
0.0314989326220221
0.0283314333070528
0.0283334829274133
0.0308417586235816
0.0326800096569324
0.0318161081285852
0.0308400066149563
0.0293262267065267
0.031337313887434
0.0306412444781062
0.0289430484053802
0.0309322396661876
0.0314176071429121
0.0296959860222954
0.0285511206521677
0.0292011124930358
0.0293990044773149
0.0317529149168908
0.02936752543731
0.0288540209965557
0.0282885468848882
0.0280918577980944
0.0287760531008691
0.0312208038449753
0.0293603825261393
0.0286145013498459
0.0289609545585684
0.0288674620703382
0.0297581920886649
0.0290531190804755
0.0293549200860661
0.026454275857603
0.0286920569767635
0.0294304299029517
0.0261695538802655
0.0344119718849174
0.0294105512438606
0.0307877899325307
0.0253691276983942
0.0270001307102416
0.0261705276205312
0.0278498485756165
0.0262063815651772
0.0277903635834012
0.0248650097975546
0.0280282672693515
0.0275066210743694
0.0287081869594453
0.0253009934790996
0.0272589288895974
0.0274365889090152
0.0249430535774818
0.0246781678106197
0.0286281240241912
0.0274597725401343
0.0293060481357042
0.0240542887715872
0.0290007898513111
0.0211610724559842
0.0275592034572387
0.0223583622026827
0.0281354744936785
0.0248402339725554
0.0291745557219498
0.0260136403079181
0.0278079517712153
0.0294397976568738
0.026834587100832
0.0243279783940665
0.0240167532292047
0.0261130922654437
0.0247192338838052
0.0231359461613679
0.0257092737703293
0.024998895873872
0.0236119388809087
0.0250692039483226
0.0236652665161225
0.0246510427860912
0.0265536041361484
0.026392100523072
0.0230186837191009
0.0235918755376543
0.0239363880967432
0.0232938240080517
0.0250233334790459
0.02128684919205
0.0236770127798632
0.028650507263232
0.0271846368948767
0.0261308747787
0.0242677634831301
0.0252259021721142
0.0234902170188123
0.0257527079715997
0.0249816050936506
0.025482397743237
0.0254325524704934
0.0243364185111381
0.023435367471612
0.0239087973388869
0.0239488003691638
0.0237207174107025
0.0245696865745395
0.0253377410250723
0.0245208055207909
0.0261366821082062
0.0204082655563418
0.0261128971044843
0.0228178411633667
0.0224932933428026
0.0189771605563794
0.0293881975122238
0.0178665092056046
0.0219388321339758
0.0330979335230745
0.0257959376545721
0.0258178992738104
0.019064955693716
0.0252428147446272
0.0187231749522973
0.0241433941197995
0.021823262339915
0.0240719316634756
0.0224887123470191
0.0227160571541233
0.0178503251484722
0.0239141354669599
0.0212267748377608
0.0256762642974958
0.0198652561590905
0.0246962287243883
0.0202964524685163
0.0266996620046879
0.0183602430070082
0.0254170169102949
0.0289257944698576
0.0253209218367384
0.0243027945911789
0.0238871861715113
0.00655903599485457
0.0405060035822167
0.0235745834323221
0.0318145335907826
0.0185170334647483
0.0288533620972879
0.0169153149120661
0.0279516944393985
0.0185176997578796
0.0242303894289594
0.023786147068193
0.0217809326498207
0.0259574001795398
0.02157020657827
0.0201374136127056
0.0215558013663362
0.0189806834558715
0.0226001153770075
0.0202830607899432
0.022642273284317
0.0198757621276058
0.0260179101834691
0.0189606326256804
0.027280476596008
0.0175207941680136
0.0208360180787842
0.0230188013831215
0.0249702430877396
0.0192410953179794
0.027494146234063
0.0142494915166747
0.0228357704872596
0.0374061068377137
0.0240909378870855
0.028916114896266
0.0205459049748059
0.0258464610977607
0.0218977012621607
0.0224109213193494
0.0194276354323304
0.0258566508021201
0.0216225320887631
0.0243064087201127
0.0207182218398678
0.0234927020392247
0.0229680116571162
0.0211512909453067
0.0249412957495067
0.0196627144216344
0.0231614878079424
0.0205677761634628
0.0285821638566788
0.0124846630458228
0.0227648540409141
0.031184635513939
0.0312961400605113
0.0279440676338521
0.0267574720635601
0.0224407695830575
0.0269457656129227
0.0238010060742227
0.0201873170707603
0.0214668146559024
0.0234169868204705
0.0251173584127481
0.0240419244989892
0.0237948459395852
0.0212007703640389
0.0223957561994225
0.0200673372532167
0.0244027230778863
0.0190441550918899
0.0243196618176833
0.0183386581097158
0.0283434120669883
0.0115553649299746
0.0343927396870136
0.019403009418719
0.0350067745010057
-0.00613882175870896
0.048223771355705
0.0377263889895667
0.0256680317200457
0.0314231833428253
0.0219237487012055
0.0282918591324235
0.01883351564817
0.0196010419146812
0.027646293616483
0.0229739982493655
0.0202887046480615
0.0207455355357428
0.0266019937805725
0.0315824721646639
0.0124202042159263
0.0136099807730575
0.0460388870844463
0.0257658107858071
0.0332060898516264
0.0209419691439796
0.0148747316950802
0.045983723693629
0.0198941631588811
0.0321656295958037
0.0211323963448028
0.0281744126470392
0.0235634665816015
0.0293050790272652
0.0172625494216876
0.0288400781056902
0.0254327135630721
0.0209201607476728
0.0247713367617876
0.0188739104121947
0.0264606486944587
0.0221088032583004
0.0278644538318454
0.0378355060885009
0.0209614109823455
0.0320615164147717
0.0276389427324984
0.0267304913351837
0.0263116663325028
0.0292152826247417
0.0190717668459136
0.0252110637002945
0.0351978354315314
0.0184455506212787
0.029248973982186
0.0374363355470099
0.0214838505120036
0.0294057612601503
0.0230601153385069
0.0433366125244446
0.012787656996422
0.0167643288083928
0.0451288450540506
0.0222503074379664
0.0552323672765927
0.0185261240860248
0.0399001177351943
0.0166785451231795
0.0380156207644623
0.00504750737230646
0.0504947933449556
0.0163763218305127
0.041791662930691
0.0154597800937808
0.0341164891287186
0.0315120807610014
0.0358825182516208
0.032366685185812
0.0309886715676363
0.0187185744544354
0.0379290477600326
0.0339577843146073
0.00125965145554062
0.0539223285412173
0.038082353846459
0.0531422789582935
0.0391248005873027
0.00671350447784944
0.0720109429067652
0.0288938631565058
0.041220882306496
0.0257049588915147
0.0385454449827315
0.0288375483606817
0.0100269134747425
0.0555007287773245
0.0384743063677659
0.0276627734672213
0.046032973541422
0.0102280716852307
0.0502009274994188
0.039162532826585
0.0416806395145708
0.0284801142501788
0.0503910452960872
-0.000636265063657319
0.0698489930616339
0.0414334518375266
0.0349164858838121
0.0563988001675025
0.0384106487432166
0.0512131759270822
0.0392428333829138
0.0433355708913171
0.0319570986214712
0.0536933144564122
0.0421693271299858
0.0306103994196059
0.0322040475894901
0.0738287084218819
0.0280380633879227
0.0630895621880387
0.0361592422059909
0.0247103894948597
0.0275275248924329
0.0921973498197537
0.0678409537085592
0.0582658648456438
0.0293384458113787
0.0682167249912887
0.045455575029235
0.0526555135876305
0.0468479928415569
0.0507418860990449
0.0509560905481936
0.0438100525491184
0.0605113556863031
0.0466226412411579
0.0533160147874072
0.0588833035750489
0.0368075540661958
0.0569112534808986
0.0607390634803724
0.102414139358955
0.0388782870977094
0.10042029827505
0.0663519522634091
0.0678977668924012
0.0561859627567097
0.0565002075981769
0.0684588077028831
0.0653188905256154
0.066871616165655
0.0488112795289884
0.0827409533203628
0.0724617488619157
0.0511766488111462
0.107608465723718
0.0531395989505915
0.0847881686485335
-0.0369899271253376
0.281010163034097
0.0793408822961554
0.103140250299323
0.076023199830806
0.0515171711746023
0.152120644808426
0.0987082957950646
0.0952544994233798
0.104269307522927
0.09519864657306
0.101052688689517
0.110254379228441
0.107111675075776
0.120906704059206
0.126607080860399
0.101815090549476
0.110274254921163
0.155844551062318
0.167225216436407
0.158810465965291
0.128732177490797
0.146810901034363
0.166418045959366
0.145194568323962
0.158753411957761
0.153291281146864
0.114135334025142
0.232952816705237
0.16020128195958
0.187900791470297
0.152146753820004
0.224792925219873
0.151317580648186
0.228875173681459
0.216730664981511
0.199918585017818
0.211943763254312
0.195596524370856
0.22058332673815
0.180084945641338
0.255150970214494
0.231995960469626
0.230686072481871
0.234789958346629
0.225300002407071
0.233604514217935
0.229170698434855
0.24604886155078
0.218460175717763
0.264467758374455
0.188001877397748
0.332645335715889
0.285834331640513
0.242128295508995
0.264448487728803
0.214622990112377
0.286906388463096
0.23122562963775
0.269428940182585
0.280691245349221
0.237989880300243
0.253394458805784
0.243720984243428
0.261514239388975
0.2374295974994
0.26148930255667
0.22866178760713
0.268330157993862
0.251099784982807
0.211297144712345
0.333248993365907
0.245703365889311
0.269598090908924
0.244315861927174
0.251994147821696
0.241908103717407
0.25798329144677
0.215684253136312
0.277559099787754
0.232138368470211
0.264085357045707
0.22165150602183
0.252323700405944
0.261420868378109
0.240798133641992
0.242211084839847
0.233952526162154
0.239577506957984
0.229195847668559
0.180701886140457
0.28874860413328
0.222926473424639
0.241182670882319
0.226557907360744
0.232043482315062
0.222477593063986
0.225558248840366
0.221969034051108
0.242638252960336
0.213875983879004
0.236671456034067
0.215078255771319
0.229203911753225
0.21830249135215
0.229959113866897
0.223826466122189
0.223635630175445
0.223104125077692
0.219368327465288
0.217849524627691
0.221789894843731
0.219739541091819
0.222783234795431
0.220884755386409
0.232089700749325
0.219770364707236
0.220173618649696
0.22000500853307
0.219164005883977
0.216371372979399
0.215103931271597
0.214585945897836
0.21513486690305
0.217100039619603
0.216412698747518
0.220950223748422
0.214100121013865
0.212343479369367
0.210875723074917
0.215441297762527
0.206078357336241
0.216803685079537
0.17642003289749
0.223867498246616
0.242314016629999
0.194743064397332
0.220153915813509
0.184594576418352
0.215292570265542
0.166022070212004
0.220562304956355
0.219507576511176
0.194919197983978
0.197762383554627
0.188362116383614
0.178796138727057
0.214891649766309
0.168426599667742
0.198139612171803
0.161762601460132
0.169802067272068
0.230260631194244
0.133870167130115
0.27296956048032
0.186606664710923
0.182687239759702
0.138223834523791
0.224385319226466
0.163690463271503
0.183406043534973
0.162802874062342
0.177839624627828
0.192141777459082
0.157328409353225
0.176676007639274
0.155638100908475
0.157571722781893
0.189382186594332
0.162338376452603
0.145958632893489
0.205563589868669
0.147318861484483
0.160388949566194
0.192100065426873
0.189011120512914
0.15701420707663
0.155404233178952
0.15607538273165
0.126933792463634
0.193073298437891
0.158165661803163
0.150912275471309
0.157448918190725
0.130389675877886
0.15794926857358
0.137016574144103
0.171070323692277
0.100250524978254
0.186002675581956
0.134740005004899
0.132439574375048
0.153643734388732
0.134483271564943
0.182519234235557
0.147665817462724
0.131912186347154
0.118225521042121
0.181391275830414
0.131564798943179
0.149867083386162
0.135563597403412
0.108921402754427
0.158395643134125
0.129014881719477
0.116431786898376
0.143129567890054
0.113804535234975
0.150403998752048
0.149060651256869
0.160990749832431
0.141700376867017
0.118030285366442
0.12937802808975
0.123133472489849
0.131141624433133
0.118674636751198
0.1033978659293
0.160995184841319
0.087984346036188
0.168975361658101
0.138878777547138
0.128058993373298
0.133436105712417
0.130727292512793
0.126329359129192
0.147153843316094
0.154609012372384
0.155532289345341
0.112312841060069
0.170703142370018
0.137962151882631
0.155620449089981
0.141377065009266
0.155902450389756
0.143444877151401
0.16654166700271
0.162215926522329
0.163997145483783
0.160128499991407
0.179860543548951
0.146865161810091
0.222149229056823
0.159928098702057
0.183584793322542
0.198406350077924
0.200536707651171
0.229424429697008
0.193927489813851
0.210881225744881
0.206020760066949
0.213939318306817
0.21666100280434
0.187337262912552
0.255711893714656
0.224518152174136
0.22582872689317
0.227851929204758
0.233219731813504
0.229510044433573
0.230351649103068
0.256953050777442
0.214033009630507
0.304171217732829
0.233443029284768
0.266706340742049
0.246414601975089
0.250387572392372
0.258302867007016
0.249776948779738
0.255178997363579
0.23763799441274
0.27027205189688
0.263632794665262
0.253416532751052
0.268265105972348
0.258641510888441
0.267749757837038
0.262069414872345
0.266742662471104
0.270217640891249
0.265753878977486
0.278940940582625
0.240089438810981
0.311421147172126
0.314157922842559
0.271833908393055
0.304108569701096
0.282648958621662
0.301699508653515
0.27919358432764
0.295643505856468
0.312490774970027
0.303982326760933
0.308052432502934
0.303164799953238
0.309502857965168
0.300949855430654
0.324227921707459
0.319713713380436
0.30247219811866
0.329425559097896
0.259341831876466
0.386552435551579
0.312622072323164
0.349411936589804
0.32551023197327
0.330890824378664
0.324224346742226
0.330242817925667
0.327195354627158
0.336788902668543
0.325455031938469
0.330100856454366
0.332310573062657
0.328428576844677
0.336818460509706
0.326729797227969
0.340194959708967
0.338395876905992
0.318070223780451
0.331837243854093
0.324149667712881
0.330117913062819
0.320392157556481
0.34624028123598
0.32307897395492
0.331999122653618
0.319288580840663
0.347647717379795
0.338747771570479
0.3317226254791
0.3263250629269
0.339973407655363
0.320674998041655
0.33814631891855
0.307519891019786
0.356528983203567
0.33617028846362
0.339466529907093
0.330413293789995
0.340237334606981
0.339031400603004
0.341468090504663
0.338774956823871
0.341314251314768
0.340073730597886
0.35232832226755
0.345008769023964
0.341027800510234
0.347033223149593
0.336181934215948
0.356098870085858
0.353298046535784
0.332714484194621
0.344180578465342
0.331997069581536
0.348973582455439
0.332176853967658
0.329762097387847
0.320539765798485
0.328404231119341
0.318430659395303
0.330682577831189
0.324052831693469
0.307919048828784
0.325120449386475
0.30122727589555
0.313684513883874
0.297666083507172
0.305519920251574
0.297735924165448
0.298525816347425
0.298289011856933
0.295257133414986
0.290525364680995
0.290034207518999
0.293877903400409
0.293869734338461
0.291197601887303
0.286463870196274
0.287826291245406
0.285802841033582
0.290630945041252
0.284078977264386
0.28262198724075
0.288810927354152
0.284651928139001
0.296055561023372
0.28358540965501
0.299779325558607
0.287090104864202
0.293690373377518
0.278201515752524
0.281788445862443
0.283146966520531
0.284339662590231
0.284013933649555
0.276857415304455
0.283040368811171
0.284970450179046
0.284416765916123
0.281116489906107
0.28142537320483
0.281569275408942
0.284447244420702
0.280719277880987
0.280590109680273
0.27901750887974
0.286578536834344
0.280070258585305
0.287027884407875
0.281629186958717
0.288355748534069
0.281776331871781
0.27942358340531
0.28170575077291
0.283369605418462
0.285632609776087
0.283202366644385
0.279368770055011
0.280080939021428
0.280883673225766
0.278320289408261
0.27678706590658
0.279224548956058
0.277656301892173
0.278291102583896
0.273287801039268
0.27298673343827
0.271839683066483
0.272743523435832
0.260453750970223
0.265560190999228
0.262064191392389
0.258641006881075
0.253544899251626
0.253401539104617
0.251487001145248
0.250896154471585
0.247761358149191
0.245434880758415
0.244542899522462
0.24300723637598
0.2427175244507
0.243037613056373
0.24128469700286
0.243880062566767
0.242995162203254
0.242444931241129
0.239150628397769
0.24141532660177
0.238826724874954
0.24065262455377
0.2388885934935
0.24228774027549
0.239882494552601
0.241548448449794
0.240344819815661
0.241889317922245
0.241181661084564
0.246420693047528
0.246504984327653
0.243997420525569
0.2482129122431
0.250605254148383
0.248332411618666
0.249084014771339
0.250256916872041
0.252832485346662
0.253349324949852
0.252437219716503
0.253933064114691
0.25897587405037
0.258647819181266
0.259911033858189
0.256305332065566
0.258399459632414
0.254382145427361
0.257072920671979
0.257995328751457
0.25520917262946
0.254048363381104
0.255377151418754
0.253539694129556
0.254254697502908
0.254648989641058
0.252179432039643
0.251057020340293
0.25211239162081
0.246671366205942
0.246062602842845
0.251020022723846
0.247273704672507
0.244887899302768
0.245014265764533
0.245286846598755
0.243015611179709
0.244181974914769
0.241587305850324
0.239366962903223
0.240543962987389
0.237415772718947
0.239960348858753
0.239157446730355
0.237168257740723
0.234918306189229
0.235348158871273
0.235145110878239
0.234713167983054
0.235677770518943
0.234541429762303
0.233271912956218
0.233199612011741
0.230434416477783
0.229907828699613
0.228083616966772
0.229134830090571
0.229166435621696
0.225248107430213
0.226128481331574
0.224324997748283
0.221483832944269
0.219200809283648
0.21956403132959
0.217534484908598
0.212353894336466
0.2137725142321
0.211512488985433
0.206770297049857
0.207015026901671
0.207447092564142
0.207318028531281
0.205837980358268
0.206088917379556
0.208428749799393
0.205057280161902
0.203655368850014
0.204746335393986
0.20577805785901
0.201093472472266
0.203126606696358
0.201662608728447
0.19949441347507
0.196989581366576
0.196701925678107
0.194683677432639
0.191779064577194
0.188164979177063
0.187602478813142
0.185059505317081
0.184561113871649
0.181369805139543
0.183626410499675
0.184346091535525
0.18544602424257
0.18889120604739
0.195593756621538
0.196020402264701
0.202318928225068
0.209419574043308
0.217246965839568
0.225319644575015
0.230679462210347
0.243221208812684
0.254231208133637
0.264649776543874
0.274574014438633
0.284603998057232
0.293993495355694
0.303976293770231
0.313004044763303
0.322100471858894
0.330863067534326
0.343238323869602
0.351584451307461
0.358591667309348
0.367806350938262
0.379490410168941
0.383393131498734
0.391439447022619
0.397601247989879
0.402846526252261
0.410472880958748
0.412359872507582
0.420596628309396
0.42640545119857
0.427177216421141
0.429624328050925
0.436964837759281
0.439780242623258
0.442587250473347
0.438208670578636
0.445324287979567
0.444237383111804
0.446370759394938
0.448716034697633
0.448131811775871
0.447273173958881
0.448509626594236
0.453735779246604
0.455435821411457
0.450310650402324
0.455512525698797
0.457629829289663
0.460060748543646
0.463595173274488
0.469485262054901
0.474488111345062
0.478687825992962
0.481355728751489
0.484867240853551
0.49031597901264
0.495781344812899
0.502293409323374
0.504156059268952
0.509256698234202
0.512595604306789
0.520610237236782
0.526954435984117
0.535658581423177
0.547743423923744
0.548745311112841
0.5650380936886
0.567239065356764
0.57249848284619
0.577016761996405
0.583128767606509
0.584506215447704
0.584706637458379
0.58564272263338
0.585600998365067
0.586097917915068
0.582413928281845
0.581637558889706
0.576606168426535
0.57630193951006
0.580695123639442
0.57470714083276
0.580676427142214
0.579527488642996
0.590713016796432
0.593403603399853
0.602324988095153
0.614170287984638
0.619376993204376
0.63894923114038
0.643004913191874
0.651658080336859
0.663905619497378
0.675683589433709
0.681689720499049
0.696363285740781
0.713407418135686
0.722029104939283
0.724672470258128
0.730567328224076
0.751963951264181
0.75466013310404
0.769863159005696
0.783619232110718
0.795741009392271
0.806050439103554
0.825314759999609
0.83974156793185
0.856649003248736
0.885840612019795
0.887108999847871
0.901372621897428
0.917256675623289
0.919146017074473
0.939489457633728
0.943899286070626
0.968895499978553
0.970057523950078
0.963609409400934
0.989868607170657
0.992857819444494
0.985958991506601
1.00030435489165
1.01090173797496
1.02494141988846
1.02198864020496
1.00616118822882
1.00474369422379
1.00987101873039
1.00297957771016
0.998822504069009
0.985280788669968
0.995030844984709
0.985318468316654
1.00233340190967
0.997175858624824
0.990864534759922
1.00122397322315
1.0101306697914
1.02660619608502
1.01963339804861
1.04641125985831
1.04375134178115
1.04385451204021
1.06543609108321
1.08357084290707
1.07543682997362
1.0872174298716
1.06937208176118
1.09683041521618
1.1031036734719
1.13275269054292
1.10766896988258
1.13598042287958
1.10098279878566
1.09961808231654
1.11846783976301
1.13366596276218
1.12699835148273
1.16944310786605
1.19004786089316
1.13487136109249
1.11960971270974
1.1187408563644
1.11794492210043
1.11428338759976
1.08830964709128
1.11603627026396
1.11124556125302
1.10800671512258
1.08214054841501
1.07674760703638
1.09434173492789
1.09764503952586
1.0590247698749
1.0904405033195
1.06115408735951
1.07505821701023
1.03288525131706
0.982567361268091
0.980294167823768
0.950825530533803
0.919635001441937
0.899316079976558
0.863804547030422
0.823060417404703
0.806734821447338
0.769612336674043
0.731229816462463
0.712794717951592
0.692533862543653
0.66899084582794
0.651195637884035
0.637587539709788
0.618268304249979
0.617065775993613
0.593447050436378
0.593069020770293
0.586324784530206
0.58291955418505
0.581920708677371
0.568851022490759
0.570961180170029
0.556809052447588
0.554119495823547
0.542648044976082
0.531109883932064
0.517701683381181
0.515299938736208
0.502668131121767
0.492314714674625
0.479512938577719
0.46580135084229
0.44596976018301
0.44057991719351
0.428625462473331
0.407527828595239
0.391107028463
0.37077823448944
0.350840170657539
0.338434363206789
0.322016880661554
0.307899637384078
0.294718723681928
0.282877913895721
0.259184082157717
0.248907584599245
0.234718300882992
0.22818891077594
0.220817172007354
0.209753314782234
0.2022150125744
0.200857531337648
0.190292794874988
0.182500069959004
0.178065562439273
0.171887341212635
0.1681040979248
0.171528077899554
0.165146778055867
0.16428027967679
0.162664124233017
0.161950970045822
0.159835092206786
0.16467207305359
0.163458968310928
0.161568087491933
0.162962133273897
0.161361363609642
0.164213499261365
0.169689543539113
0.167037778459653
0.167978095483406
0.167519504926779
0.171461911877534
0.165597241861448
0.166268930835325
0.166397776545332
0.166445674274379
0.163294552090437
0.160446763241886
0.15738866918762
0.153551349432291
0.158257446042191
0.155161402976858
0.153725606250675
0.150073972349576
0.15643270878209
0.152614053992894
0.158149650292063
0.154894576058294
0.155112702817748
0.157206760572685
0.157994261199232
0.161834090274036
0.167130704379966
0.165622802181018
0.163835312464787
0.16655570430662
0.168187649329748
0.170564414005752
0.172854833578921
0.175779498161773
0.1767110500544
0.173332007967224
0.178584272716421
0.177409508222005
0.18090438391602
0.186547853010989
0.185277681994215
0.174792343027338
0.184050584423686
0.187266473618652
0.184920613886715
0.188231207520246
0.190431332448781
0.189992139338807
0.193751473646402
0.200639263245851
0.200130152791211
0.206092397643601
0.215435603819541
0.218213531520873
0.221759854078796
0.238061928588
0.236682187532983
0.248752768620527
0.250745736459995
0.260264098903876
0.25587815092614
0.260174577816658
0.256824094318289
0.262412237133145
0.256645420055853
0.244865692271469
0.249916546016749
0.237494679176615
0.237694765756378
0.238914555317532
0.228133746676411
0.225886503311521
0.22593749533426
0.218065937658175
0.221254481351986
0.226326602302673
0.221730501092576
0.216943620317516
0.222549829150032
0.228389995476675
0.217913548124311
0.224798197643804
0.219571748516484
0.212433621026127
0.213641152000265
0.213133851883421
0.204678984837621
0.204904715913099
0.203130117298646
0.202289191176138
0.204812908206965
0.203088862210263
0.19739682576163
0.191489929947439
0.1883456660157
0.192200845184304
0.182275981733963
0.177849880574219
0.18444182139914
0.182416407589833
0.178800656933486
0.185179645450824
0.185816620115034
0.178969108452754
0.176552981689991
0.172852631879346
0.16685015598008
0.173561706689203
0.17165763945248
0.167878928448301
0.162055474672032
0.162952142713503
0.161648071067214
0.16487686507562
0.16565548683557
0.166775951339499
0.154401161301692
0.153679679784848
0.159455893558975
0.156063725513342
0.156596412212145
0.149506424561221
0.157713123741474
0.150473881284817
0.14980465612116
0.163600689537627
0.15507101161923
0.152842069231113
0.148479991030112
0.15465836960602
0.148953837631542
0.144246835771213
0.141173449344437
0.146580990199182
0.151849824295571
0.150159166948182
0.16006668683872
0.164629504362228
0.156922889498794
0.155014640936423
0.155310057334114
0.159249044363908
0.160061236214598
0.158580164516574
0.157358436820497
0.166142753375005
0.159896244992405
0.162756850629636
0.159760981457704
0.17135472614031
0.158841077188746
0.174290135375769
0.157447174528198
0.169006684644921
0.169219364767961
0.173677472798649
0.188613568925312
0.186721667656196
0.186402290990432
0.191143416757169
0.196174274544069
0.193720137236163
0.204040285401427
0.22117687124999
0.217107253644154
0.226686387239191
0.233071706548325
0.252226653866073
0.243948492402601
0.258960008165143
0.261734568920168
0.268301936890225
0.275089194615046
0.290451639814061
0.274149648596052
0.312974709964433
0.302948956188682
0.320208415389
0.300362742264137
0.31782593577024
0.309509790397138
0.309446064370656
0.297076821646681
0.300580265056607
0.282028975823137
0.314584214066124
0.296086771245891
0.285206308972
0.271302116403219
0.301110873775269
0.285436898417712
0.303375697443772
0.289369712851481
0.299446737197034
0.269860838548858
0.274716279155675
0.267381161799583
0.304820320681547
0.263438355171731
0.283629157233307
0.259089683697524
0.284223613551826
0.269015898329043
0.258532872411638
0.266416257189039
0.261336753726089
0.247133828158444
0.236983485674402
0.256515727614204
0.259415297931584
0.25448382157598
0.257820682546446
0.22824588764563
0.258834053119866
0.238346988889443
0.24467119048293
0.244105375562407
0.237312504205324
0.240330425460373
0.258061575461413
0.228228228574524
0.260071677493487
0.242557607535826
0.254724690121535
0.256288832747152
0.277744684653509
0.240946631724947
0.24341520628724
0.249267522369261
0.260551982822111
0.248105086615628
0.260046590453227
0.25645185684317
0.235438306818298
0.249614149842956
0.282511763888722
0.254349122975743
0.263445534521753
0.268408225938236
0.312941305975056
0.268653506568387
0.298419728015458
0.258341378950405
0.270568780110552
0.259033442002526
0.285563564044788
0.262682961128995
0.277696245531806
0.27416697905294
0.286974362100008
0.27224521140515
0.292816360683932
0.298055904064405
0.322756161617591
0.302686558228453
0.349750994954066
0.302286071429932
0.368905284851616
0.354874412263557
0.356537198605217
0.340993718862404
0.318852562414462
0.310048286133358
0.445723145121665
0.3451247121484
0.341609477036988
0.345851418181185
0.437159549982174
0.371855487402536
0.368138048636134
0.305838445055347
0.384281647497775
0.375643687313702
0.371317247656191
0.333935412707906
0.346605390564404
0.356358850026481
0.360283777874693
0.323176588076365
0.363265293290341
0.334313686048518
0.321998708679926
0.249266292325721
0.337514115049065
0.313124893817108
0.378338305154896
0.396439533193704
0.338727142088386
0.278506475538665
0.384260797442173
0.284017034112611
0.362327901559103
0.338950206529022
0.459518021254081
0.372099516873761
0.372257202839735
0.266099528552528
0.473893625862649
0.418359152750783
0.284112771793029
0.321231237002434
0.470149362890218
0.229980330538
0.840879790636881
0.443846086698529
0.449651374988832
0.256870816883073
0.481437396680154
0.385819646149387
0.361015517432432
0.302293395725061
0.412199640683417
0.287258642371253
0.306433198968167
0.352990741787241
0.562901666624856
0.428527585130589
0.692951748763346
0.47139686157434
0.394772019382126
0.379091937856153
0.392622888369294
0.0880754053825471
