3596
4000.36533379555
650.420452594757
1
2
2
0.0505945811689533
0.0378625910981064
0.0474231763541166
0.0343658735349195
0.0505718301274763
0.0432219678527909
0.0625443889895043
0.0343361368974412
0.0402705204671975
0.0375919797682736
0.0530327870174721
0.0345621737767946
0.0584658794189395
0.0313435666518107
0.0458151493094361
0.0294078553935787
0.0422384202840482
0.0306426962604076
0.0532728317705556
0.0380514184017878
0.0548162595812499
0.0385855286243248
0.067157329928891
0.0345437228598445
0.0456709478772415
0.0431120791723123
0.0450103433511987
0.0232989700549312
0.0572047810137597
0.0361833883311361
0.0577668652582243
0.0396638011958299
0.0604673193363195
0.040668459166045
0.058976526871116
0.0462336755116112
0.0607330426486572
0.0322201182430751
0.0483876638089173
0.0387589462164258
0.0593027985904476
0.0327180511019204
0.048670555426058
0.0430578221536357
0.052607203732573
0.0404124100088443
0.0418113904446474
0.0454653489909954
0.060176639768678
0.0424604005123344
0.0545005305797571
0.0304964200163936
0.0617764924046217
0.0403764155395887
0.0515954104681702
0.0467384406480928
0.0538319426476343
0.0457422570551476
0.0457060920375204
0.00857039793789129
0.0592374678244176
0.0474684196969434
0.0476075532866125
0.0389497288612674
0.0559359544288224
0.0385283249686331
0.0521969323288592
0.0353210680732394
0.0433054497186859
0.0331367629358267
0.0304534159042032
0.0439983833580604
0.0673742510949336
0.0465441410487627
0.0580356764198371
0.0399703098824247
0.0475041187172946
0.0297097728058226
0.0365118749446787
0.0359146539084576
0.0499698744064203
0.0435354705468848
0.0498407317243647
0.0340872127938682
0.0376250507817689
0.0582126852635048
0.0431797557145831
0.00917474652354478
0.0787824677288107
0.0473967383292428
0.0546313013887921
0.0327702683948996
0.0456397703190006
0.0309580365953188
0.0415033746598885
0.032418639574144
0.0510292696605393
0.0344343449068217
0.0450291730788685
0.0307073087638461
0.0463323137272679
0.0224563568258936
0.0866492063734805
0.0178496043797443
0.0963268795502392
0.0441088400784649
0.0295656050263598
0.0536080564450992
0.07808934582578
0.0408227509487459
0.0465758939107009
0.0322922892830831
0.0495231096560298
0.0372951379304811
0.0214025103352727
0.0242206305677218
0.0983129809589243
0.0475119613449512
0.0539399813438197
0.0288434513430608
0.00880258341082773
0.0231669455903818
0.0921386831727272
0.0360531820578599
0.0583646190127991
0.0300604383103664
0.021391316565109
0.0485728505482469
0.0910521969845829
0.034474950000283
0.0455640033572394
0.0259889199926746
0.0321838791078126
-0.00989512437459461
0.0773432534143551
0.0411586467179021
0.0387615876859114
-0.00170648879801286
0.0542662165483995
0.0748582980056699
0.0690940969404403
0.035040250201195
0.0233436155575122
0.00893675866462307
0.09803235022321
0.043182381878398
0.0301233859357875
0.0275544247063713
0.0665874625877719
0.0246712640593968
0.0446244195583265
0.0159887514063147
0.0729890061231443
0.0370629905976787
-0.0200852552130456
0.0356281737807492
0.102881592405454
0.0232703120036374
0.108001414423133
0.0354820404164597
0.05998084754355
0.0360337832343649
0.0453140113850946
0.0218951431029012
0.0466857192169966
0.00964901120639277
0.0381484175892867
0.0541226477092918
0.0342123748396827
0.0127142773247521
0.0844259424470107
0.0294435094064581
0.018808698604657
0.0918295373750162
0.0639585504724967
-0.00590613491529844
0.0772299088279034
0.0446621364075698
0.0319130634487405
0.0252748312612825
0.0830059958054924
0.0344568423920598
0.0363027262093101
0.0218093881832662
0.0305986577348328
0.0431435253320434
0.0535986081642202
0.0353775980656075
0.0482472505452232
-0.00459189937430987
0.0293066198893191
0.0731447091305745
0.0882286057207529
0.0305419525437519
0.0448593262690241
-0.0218570372167012
0.0680569724428185
0.0668109203243217
0.0566884483069704
0.032800899545821
0.0483562820552693
0.0241309602717735
0.0397987063307521
0.0338379551199549
0.0318029108983249
-0.0195012755801333
0.086640607871829
0.0624228787336273
0.0478037539140454
0.0170250154685201
0.0326629291645524
-0.00795928432272703
0.094025632885201
0.0684048069690538
0.0423044786938261
0.0413272798987461
0.0257538285155518
0.0294258202879846
0.0757201487600699
0.0296942568330276
0.0503603077406757
0.0347085564370593
0.0485884143785752
0.0256427343810466
0.0448309649029954
0.0242129130506967
0.042006977773033
0.0255094961377798
0.0403338383314797
0.0297334113421903
0.0661813277079179
0.036760594838931
0.0515383030902557
0.0278726966154414
0.0272172660949085
0.0190928016328429
0.0750849137965973
0.0374805493791647
0.0494112117560742
0.0300508668045932
0.038634060680946
0.0217214893772966
0.0441479929523734
0.0253629386308118
0.0370792991944935
0.00546965491426451
0.079702356583315
0.0436425686960165
0.0503923581282734
0.0111303161173048
0.0557892168356272
0.0531064345906931
0.053087270718986
0.0290200680758787
0.0603106688540064
0.011045576441669
0.0338166738182615
0.0574436612101582
0.0617451077854337
0.00693931797776245
0.0659550677687782
0.0367035373016642
0.0518531054852407
0.00490839368433876
-0.00385516212608725
0.0952934765841033
0.0626519427295817
-0.0128957710914411
0.11009116436241
0.0531229344464752
0.06894427476434
0.0163214204344434
-0.0317282977157162
0.122607435647022
0.12308765315371
0.0395812280439025
0.0457430910585494
0.0484794054805376
0.0441463686272691
0.0230190741128718
0.0419721869553074
0.0229307393362317
0.0645939867376054
0.0638873935254634
0.121776779841616
-0.00324605599814159
0.0694049150710672
0.0617702214035907
0.051481998992611
0.028869555771701
0.0477315135173481
0.0199554349494039
0.0637757703400335
0.0446626159368987
0.0675558488102925
0.0388254814293932
0.0524960856026066
0.0633452738661864
0.0662849603916691
0.0268847146525177
0.0597776649605291
0.0501666740031177
0.0541215004875405
0.0440526302031944
0.0453037627742207
0.0434069702214852
0.0263175519017758
-0.0155116923428518
0.123826353774233
0.0440241526437424
0.0445096161667969
0.073713251838459
0.0619039336096611
0.0422187963430923
0.0493733057229048
0.0402149601128974
0.0570082897570149
0.0217705099066287
0.0308731639498647
0.069692602099062
0.0688306793490745
0.0425295373307886
0.0537904881907174
0.0411100603797114
0.0551849786990459
0.048262761149747
0.0531485795586844
0.0472453744148508
0.062828037294346
0.018348053785412
0.0714677388938565
0.0614462025336923
0.0190975212631172
0.0693196259538238
0.106061934833273
0.0524377181085022
0.067339221060981
0.0474092487526501
0.0690703415516946
0.0419552932638108
0.0629549933016747
0.0409571068021162
0.0524171396687478
0.072731787534349
0.0708392283085145
0.0247418561855705
0.0358532665974032
0.0847640001755409
0.137734505716201
0.0707752335931714
0.0730898525700937
0.00712612846718756
0.0905603422094986
0.069338995679752
0.0965698355306224
0.0922512164660565
0.0823571860299035
0.0673655501414552
0.0711899465973729
0.0587400045568689
0.0803581139777395
0.0710720168984601
0.0689586282674133
0.070824771700971
0.0699276991560648
0.0756707104646134
0.0796549536911107
0.0535814002567883
0.136180698558786
0.0882782404157658
0.0919769020663312
0.0742033027273448
0.0632127290014462
0.0807524152299683
0.0994499386160418
0.10878208364443
0.104999933695421
0.0912852129644181
0.145781794727761
0.0921368176368833
0.106829033652162
0.0880069004957402
0.102110077636341
0.0876833377433847
0.114853313634261
0.0905805195361068
0.113583533508237
0.104270726634217
0.122585665925775
0.104183206949248
0.115847998567934
0.0947161568251633
0.14681963236033
0.113459120710676
0.124144151741641
0.086826172994939
0.127670524810629
0.158821750494367
0.197195998505589
0.118058267385822
0.143837579229616
0.123752404656896
0.143680267895896
0.11784628773561
0.134083682736175
0.124182433947701
0.134788156592854
0.148278198925903
0.170000589704198
0.154309076531627
0.18501726862744
0.128847684129395
0.181430936876652
0.14255512778781
0.154150794816227
0.186758766689877
0.188175239960617
0.122878728809177
0.227925762296712
0.180903947715435
0.168165908656849
0.181225539679782
0.197295120827963
0.171464029884721
0.182360846318941
0.167457510162344
0.201101527929761
0.173081150805619
0.212647401338491
0.185187979699068
0.199106195386446
0.183410319401719
0.190176153663402
0.203810297169544
0.212665180331542
0.18564993062893
0.223276208069335
0.198238661461065
0.224483057093027
0.19587866141481
0.225158801135989
0.218729421401914
0.237920633690061
0.240075640048848
0.253440940849293
0.210364820546042
0.25389509182775
0.238705320124526
0.260713978917019
0.232990886805706
0.268898900728644
0.225947650890159
0.25905739119424
0.236458928994928
0.280677733809725
0.251311217129814
0.275159537610089
0.25472551695166
0.274021707932122
0.25269016228133
0.281553401911582
0.256609261099284
0.310162835617238
0.292777870066547
0.312312446317807
0.313590152206916
0.310212066506125
0.285803020291269
0.312208273445115
0.305855697630055
0.3178778558584
0.316272844411472
0.327914835102407
0.302323202280812
0.328835484243556
0.320799310918877
0.334390023835015
0.334059279871055
0.360939285312682
0.339449633195495
0.369919031204171
0.329927098336946
0.375984695363718
0.319925112890325
0.362492145326217
0.352589727072921
0.363089512403646
0.357718992759733
0.378792563669108
0.346114777270352
0.395117391066284
0.389815492150668
0.411733293433151
0.364148564065426
0.395700917290165
0.391797252078856
0.427856635741898
0.389803251019182
0.426909227608133
0.407806888571583
0.433643241434545
0.390140449210321
0.451845937951605
0.415436484880304
0.444955908736201
0.439707651397504
0.462180218407551
0.411643583243394
0.439745049266017
0.434837891615246
0.469379564191391
0.457071719294626
0.473047888636412
0.453979834318424
0.485843072093267
0.447180942196534
0.521181147764018
0.474864043323641
0.5289290719335
0.481616718449064
0.495514230764725
0.465724448353055
0.519725314834244
0.48204481865441
0.539856466217751
0.506704020524949
0.55214723228835
0.508823786417611
0.531891757071879
0.477546508109764
0.563332324144718
0.530611493968019
0.564987033778224
0.538093964380634
0.581139463279188
0.542343733366868
0.605191993013974
0.548042841132873
0.551109030333313
0.558915112752974
0.642194464421274
0.569187713607192
0.629104939525445
0.590983175302697
0.641829199753655
0.584820514392948
0.632997832916758
0.588047098543661
0.627029133071348
0.597846841119986
0.646547420997863
0.596878023998354
0.671776911877324
0.619796186898675
0.648310821710661
0.627373680178946
0.668112257191777
0.606799138127821
0.674446709299412
0.630098983067988
0.673424584674329
0.613373592634797
0.675376863548447
0.64455483698675
0.708438508357545
0.656227443533708
0.707246125240841
0.657512778247974
0.688485647395428
0.638117525049745
0.716296919115489
0.668164638055007
0.781063550144313
0.697546312935256
0.760792290439849
0.704305503759709
0.722029941677386
0.700648966092321
0.772208593745522
0.712543715145383
0.76732299870416
0.716332408472813
0.767881818503687
0.705806024888903
0.7749035999369
0.765295912744392
0.798449731987358
0.741377302572757
0.769705602914923
0.737030453662665
0.865067382156902
0.728612543275139
0.847039268205719
0.787603589161754
0.807722570416693
0.821254676222828
0.786194760782341
0.783951513860878
0.898053908516868
0.847350255664854
0.86156673211581
0.780404586038707
0.861153363143968
0.83809638020449
0.910381010439029
0.819352703239086
0.832601221126511
0.781531661273443
0.850556385296876
0.799551247911489
0.873924379793886
0.82799612514087
0.923585242041435
0.846874831177241
0.886193110426645
0.910665722257194
0.928040450129696
0.866647254157809
0.95838742373261
0.899474595021981
0.852503262966314
0.895169833241879
0.950304877096956
0.88248130889107
0.994559895904943
0.872044527531082
0.890197172305146
0.903254205388604
0.990360312215714
0.853511456820202
0.899948646400822
0.874402806902663
0.952259094978435
0.850633043575871
0.990820075472179
0.998284809039262
0.974955918275438
0.936309596342443
0.946231175120719
0.871120489884944
0.979060584616632
0.912229615569348
0.973118408877211
0.949878199026915
1.06142226819551
0.956322616764932
1.03789650042094
0.984959979679218
0.992984648804501
0.939726548167665
1.00912144895898
0.975765674552307
0.975886441501959
1.02388106109183
1.00082248892713
0.965934017520577
1.0139234695778
1.02930894368755
1.02418599256564
0.971457381603425
1.09869023327318
0.968273613152747
1.0122452136768
1.00208595684623
1.06112619029835
0.970426329151013
1.06035559355124
1.0385816642664
1.05333428527183
0.955257490215944
1.07569243030017
1.02118041189324
1.01544155013917
1.01519233135709
1.01219710635792
0.983349194862666
1.13386718190536
1.04939643853626
1.10175990277234
1.03001083161272
1.10179601950679
1.00507282160014
1.10433747578327
1.00051149482625
1.10362653394625
1.13493034354746
1.12066847815411
1.06072911944274
1.04512616960419
1.04268635353268
1.14234313989064
1.0539867399524
1.08170676951853
1.02550714794747
1.09534469158154
1.05407372115612
1.08953336337437
1.06180953583597
1.09827146452149
1.07463049686386
1.16018503901952
1.05437581637956
1.04553035927454
1.08816149016631
1.08190071737341
1.0335695003445
1.08703853351238
1.04815975188675
1.18076789641132
1.0561030764934
1.05650253776831
1.09666650441324
1.11996896208419
1.010878282246
1.13234294862175
1.15796380956858
1.10159457291512
1.0679535935857
1.10207622515666
1.04528023135663
1.05909794356259
1.096793759199
1.1818345571039
1.06902779689421
1.06246983081921
1.09183961547049
1.12535429669142
1.08152139128467
1.16119272450836
1.08818670202144
1.1031167760346
1.12539596590349
1.14996997528517
1.07776581683117
1.12976993833373
1.09841935202468
1.08488973366625
1.07701926166481
1.15863956693405
1.05047876423195
1.08007014429307
1.11242670444763
1.16973896112014
1.06870536727337
1.13176373223446
1.10135970808268
1.1038387791793
1.08974071504707
1.11667711194885
1.07977681891281
1.06049179682502
1.03125440962253
1.11487311568131
1.09976709039295
1.15365917549352
1.15281629921596
1.16730467708965
1.14984784033895
1.13582522461672
1.09178909078737
1.1115220533884
1.09022303931799
1.07797528346537
1.07090042349718
1.11286480239085
1.08859830149744
1.08436461002072
1.09639437803305
1.07696560160409
1.0702858331466
1.15090629115835
1.11149853964539
1.09626435310874
1.10586739961182
1.06982227975782
1.08904715004324
1.12743385424664
1.10332873966157
1.09511014650953
1.03525259952288
1.07763906740328
1.07041475963165
1.07834786619752
1.06284496409259
1.10628855598677
1.07621031395111
1.0899714824151
1.05118843555044
1.06582690007294
1.09193264490703
1.07742159628051
1.11236925020701
1.08061214623542
1.08578968621682
1.10540628568825
1.05440114680736
1.08788759099339
1.07008509816196
1.0832081300696
1.04599221129487
1.08318671961689
1.02518037661286
1.03350274198794
1.11064767668436
1.05687127436034
1.02511330937545
1.01730316291121
1.04374167452383
1.03894919298931
1.03010086832171
1.05713935195032
1.06606747698105
1.08484108401138
1.06840466061739
1.04876619588843
1.02685861166696
0.998034346358183
1.01833095265224
1.05521117677756
1.00633910411677
1.02272375658581
1.08210576247156
1.01055717723076
0.985678087938064
1.01152206409127
1.00016572066246
0.992315052395016
0.970349728472979
0.99509693020545
1.00850864466066
1.01297625707152
0.989007069821414
0.992380390791175
0.964995447298909
0.985445131638865
0.994045346415539
0.978399912312767
0.963122650953875
0.959718388023624
0.98064811430201
0.95416655507383
0.948653279769781
0.956688546301502
0.952350174973829
0.931635064969712
0.970365166174159
0.972830257387961
0.977528584343546
0.987664593041952
0.960688861401032
0.95131678909837
0.925980857524986
0.941620064196962
0.949364468638215
0.931065817228832
0.917126465116806
0.895184544377421
0.899449596003037
0.876379248665936
0.885015339069032
0.902811306258478
0.901777037785723
0.913638019609675
0.91191363321473
0.888970931510353
0.889651138878778
0.894463305819301
0.907822953707034
0.86691865851623
0.872331669445278
0.877755364699778
0.887494536950339
0.858822803075508
0.884314330874507
0.894260356939923
0.840732480073303
0.838741260739215
0.857580150241513
0.838426282046559
0.8488989504654
0.831373491185423
0.846757565145469
0.859977981704959
0.853536755905055
0.839378033990406
0.826273594522174
0.836811803265157
0.841249690614042
0.822924903795682
0.816503280929934
0.807169794085122
0.844556040173723
0.790869142814258
0.788658419135954
0.820986705105563
0.804552597289801
0.771322300184515
0.79796880768407
0.776218660946602
0.754037556437362
0.768639930102651
0.791040599583012
0.779602598198881
0.774499554080702
0.74216036161221
0.766689523769038
0.758063040593414
0.749528682771716
0.736075452106951
0.730952135636752
0.75689462837491
0.769154260439425
0.73031170538929
0.739485634038637
0.729556328418217
0.743811582002838
0.723410092430739
0.726194907132921
0.68510083128499
0.696262380515793
0.704388442247586
0.713423919729094
0.695051369651439
0.705694065769046
0.68301892962461
0.701296698555308
0.712290985815047
0.698384122160436
0.681947755097469
0.687574755844414
0.672748129895307
0.674743103871042
0.669025254390701
0.674217045036242
0.664647842267012
0.665004431225656
0.651937407052652
0.662469680173658
0.643388441295266
0.656235504155504
0.64948822363161
0.630877079154195
0.627781384348395
0.62435207151961
0.61218473864935
0.63413244703541
0.607984350308346
0.633407843802656
0.633367473537532
0.629819385597608
0.600219924136267
0.616897604668299
0.60607971785084
0.605438325921839
0.610758075134669
0.603514686905794
0.589326760247378
0.592666742739644
0.581755679670267
0.587246568782722
0.592094345514081
0.590832868633455
0.569173362932318
0.571920530151092
0.564768540689856
0.567152550422405
0.563626866676037
0.575115507665394
0.551758870300678
0.57183403600043
0.554548413421284
0.57022974834854
0.548389984993129
0.549493742014887
0.54298886862604
0.542560202480286
0.529719814120087
0.545571069587218
0.535111220375733
0.534716450608882
0.533645499006153
0.537523135224218
0.520839235983426
0.533522197988406
0.533084142849599
0.530120924766618
0.510156054849437
0.524438911936673
0.515120115394871
0.516275133088644
0.505129870413315
0.50290306261723
0.513129700107325
0.514833313957547
0.494569091135612
0.504543097943734
0.495533700839178
0.491601401223508
0.487495953885377
0.491729520216027
0.48334400396342
0.492752519131709
0.475208326679736
0.487010087741578
0.469037861577893
0.485433767117364
0.475178883381175
0.469875284675061
0.452228622997047
0.468199305860944
0.451003121795644
0.456768339105533
0.44768965755973
0.45987691428116
0.44409957435799
0.456251403636973
0.442642522957765
0.455939037430211
0.445380427950646
0.44301569627501
0.43615869283986
0.439845335623805
0.43423758701539
0.443207162004098
0.425156324667775
0.440025766745163
0.425220330021064
0.423280200168789
0.419873100770815
0.431794763150617
0.412827593726874
0.427465439514428
0.415435064353893
0.414622391464096
0.410040954497043
0.411252841142812
0.396400191491739
0.403365780289652
0.402217241355492
0.405057577193519
0.392523919738483
0.407942581080112
0.397493443517592
0.396813438242159
0.39105552555911
0.402511932254191
0.38392092022563
0.398388772906719
0.382948310147272
0.393323278104706
0.377897564573983
0.379856988696107
0.369220767149637
0.369880084152529
0.364323791610403
0.37557747546808
0.361742079294353
0.374543040287376
0.368690010434581
0.37577401737682
0.358571402823331
0.364306890170041
0.354130227734159
0.367796785456289
0.359901357500363
0.360042469348603
0.353046145790235
0.369142107487361
0.353133450969422
0.362260886884407
0.35645760527441
0.364403983933522
0.345937379299387
0.361437979488872
0.348946865452523
0.344380338540515
0.344993653608632
0.358343900431676
0.34631084787852
0.358225940635741
0.348044491768053
0.355808681394745
0.347716179952109
0.356282681217798
0.350338881659376
0.360091338242714
0.354677995883817
0.363284069012984
0.351198816127809
0.361904816605409
0.358870192565693
0.361177327621324
0.354182871586898
0.370171318360049
0.360828475859773
0.358757581445486
0.366578136238611
0.375314102033039
0.364721143830827
0.374096605556853
0.37460867950439
0.381379697904509
0.37455327183765
0.38572921924562
0.372412569899736
0.378550220094074
0.380281838621329
0.389788009760896
0.385840061067018
0.39842816991753
0.37382600477286
0.401211842819331
0.388538678331115
0.398294202269304
0.396927095939385
0.409052680229186
0.393267484423803
0.41955536479778
0.401774580756233
0.409796933658688
0.397631619244217
0.422992963080595
0.406149734205931
0.430646227197771
0.424655164892573
0.431143730234188
0.418338764109825
0.439754061204866
0.421633143220603
0.436678767624072
0.430567333382511
0.445147394035821
0.440849196605915
0.46215183807116
0.456475042139185
0.463545036548342
0.448686599095094
0.46814921586108
0.460186872545914
0.476991848187975
0.455616472506388
0.482433976472497
0.471930335216995
0.498350406622998
0.471262854258486
0.480114968999366
0.478264341355709
0.479786096662402
0.477568885673063
0.491070985041321
0.476747102522471
0.498997230529251
0.484505487324417
0.500743621508472
0.471088761180476
0.498828277450454
0.476955721515665
0.502703942000836
0.482867230112436
0.487594034380393
0.49398104559816
0.490970464754677
0.488106777845109
0.503626941886093
0.4784829574488
0.496182397149106
0.475484772653444
0.497101827107062
0.479008327593621
0.49327903956482
0.479026536372711
0.484984273025222
0.471813229646556
0.483225718840816
0.47969977065258
0.492004929130757
0.473041750143718
0.486347837414719
0.476632984764536
0.477823842149907
0.477425061976396
0.490062781784337
0.485118955614209
0.493371597165
0.481690692481959
0.486563027813726
0.481229008204006
0.506844888207316
0.476595708343274
0.48837562340963
0.47566166075341
0.482851656404517
0.477178078566008
0.500689410409102
0.482116468144404
0.498016422616054
0.474182018233114
0.483247492065907
0.476404780927069
0.485530203960151
0.481260625042288
0.485452250580257
0.478933246911994
0.484285622596143
0.467246631306426
0.482848412186103
0.464481444431623
0.492904799196016
0.465377481942373
0.47665009772682
0.467177758588886
0.470281214579433
0.45816713503322
0.458173400065934
0.451758019598465
0.466493134767119
0.448637872608109
0.456160441214975
0.435995925034169
0.447465966431151
0.440942520874175
0.450324930124329
0.428228773192039
0.435027873927317
0.427551086782145
0.428053773619473
0.41988179667127
0.435869183182681
0.413594169475062
0.417404063912465
0.402132825853035
0.408194188670509
0.393396880573172
0.39514553622964
0.38864578044971
0.405502638956771
0.37332646804305
0.39311474854253
0.371954588032483
0.386958701974608
0.374508155709649
0.383883359300012
0.371446694323888
0.377480191077791
0.360582481117316
0.370521527357072
0.358460578817324
0.362086562892534
0.346470369490663
0.358463540952023
0.347047776194401
0.359186868914805
0.339091221703538
0.353785667932909
0.338131515351228
0.352985834882451
0.331806216037583
0.341891214629422
0.330986020388824
0.339066540520414
0.335796563857196
0.333691740661948
0.325736356366471
0.338042444909341
0.324329801518237
0.336975634828069
0.313255646467834
0.318900533596316
0.311497572518317
0.316744213014828
0.309535148492732
0.317203880153748
0.306517414706502
0.316186557534727
0.304842296115204
0.315194384287386
0.300380990245411
0.315957025104931
0.297846341368088
0.3137632483683
0.293932771054189
0.304789575538373
0.298188763005099
0.2995667825654
0.289236369817581
0.294353883722471
0.289011046979297
0.303195347701459
0.28647215697058
0.290426048740452
0.279482028112966
0.293000838282841
0.283025974881042
0.291260558028712
0.283078218019407
0.287035104233188
0.276854692426876
0.284202195925585
0.278035825373323
0.287560313027554
0.274484118671241
0.279375461891182
0.277416500139955
0.274319856209198
0.273854418113398
0.279297195962242
0.26598392743754
0.270477607825701
0.263524536843237
0.274307106124416
0.269643697124656
0.27839979394378
0.258598247282893
0.276433212610696
0.258238587591913
0.273087528708807
0.256263686184426
0.266713675362771
0.256755495653625
0.265418722323819
0.256548146097285
0.258293014613096
0.256344671991321
0.268790640151723
0.253056119441826
0.260248597335973
0.253923813604573
0.264529499835435
0.244255143067781
0.257189624099966
0.244912151132749
0.257324286166645
0.249017892902672
0.255901057089702
0.245882742794898
0.258677780039767
0.243696315360772
0.247025867091401
0.241053924039746
0.250193562059163
0.247233647288324
0.252796153811708
0.241805373363901
0.250386504906921
0.24259470596046
0.250856746135294
0.236400697928536
0.251222140937064
0.231124653672409
0.243677025940142
0.236782909740692
0.246986397623978
0.237179931453644
0.247360451707978
0.237105276621082
0.239763238571344
0.22870582756007
0.240383510180246
0.232506357545905
0.238034302153876
0.234651651223321
0.240128011059302
0.230368408932293
0.24654041675606
0.227322295825449
0.236136556886476
0.227347439146106
0.246640040928142
0.221191154155759
0.233438554819777
0.22913462408537
0.2350889952436
0.222985908263901
0.24010674069236
0.224797870553217
0.241111216186181
0.222314584433425
0.238722226190012
0.223782629736195
0.236626192545245
0.224474148258226
0.231600646165803
0.222456805300825
0.227044146367564
0.227209525956307
0.232419203435929
0.220715755204924
0.230524415005594
0.217512331546997
0.22607664968724
0.21677581156028
0.227659102019377
0.220746837614077
0.221640756694388
0.214515854002621
0.221569579892433
0.210695704090461
0.226397189698941
0.213558343787558
0.222344250005993
0.210085569749644
0.218101974738472
0.212601861670371
0.223446532076157
0.208663688984537
0.214263143994538
0.207862032226827
0.223916990161569
0.207326708653677
0.214136615198466
0.198950758911873
0.220546898282915
0.204263836814758
0.210301994672941
0.206793586832199
0.210634488488265
0.202657649584708
0.214572501061528
0.19666655457292
0.206989787745718
0.199354388403983
0.206368641705611
0.200590299934027
0.20693898880469
0.19637157160967
0.20752553078342
0.196517644801638
0.204786868507313
0.197409870641601
0.203104976677632
0.193104469507148
0.200031394389143
0.191380997453507
0.195461624459062
0.189397308596166
0.200047837299625
0.185057845127436
0.195205559984036
0.190405542437258
0.192903436904612
0.184129246743878
0.193676283825359
0.185824334167123
0.190302051407704
0.18710625310879
0.184532412541802
0.185625449091987
0.184660486870689
0.178005826838498
0.185464520579377
0.182690444053326
0.182644586655278
0.178267396359126
0.186969339099385
0.172147429057675
0.180582247256049
0.173589983006072
0.176883188689376
0.171629501418665
0.179809594265456
0.171371397144859
0.176865248001578
0.165229756210228
0.174408628075044
0.167220991318525
0.175568034074423
0.164007881850139
0.179061864073695
0.167925342275331
0.172382791653127
0.161377392038495
0.168984996080339
0.155281158900188
0.164885851480048
0.160987207919927
0.167712410195288
0.161001911667503
0.167771774180985
0.163443756401056
0.160563779644485
0.154593993576136
0.161518273594107
0.157204357576886
0.158180080776303
0.15398667034354
0.16004775416865
0.155657573530712
0.160164906983634
0.15198571665686
0.15552318737078
0.150772052351104
0.160015393436887
0.150779725001104
0.157777430416034
0.15161722856349
0.153494710660364
0.145950991049838
0.156304302253668
0.144796922541865
0.149578442670897
0.14364848216111
0.152780053497572
0.14459296523021
0.144163762486196
0.143172494156696
0.148058956145133
0.145686992488076
0.149196536975153
0.135583444930498
0.149155769952827
0.139829200394155
0.147722852664611
0.140424324139742
0.146132271153777
0.138869189203837
0.142793707636026
0.134635446575105
0.142294181662208
0.136636100384263
0.142367089000137
0.133691816256666
0.138753287312807
0.129602094566164
0.139062730724942
0.133273632084368
0.139595145790795
0.136180284754288
0.13934538569921
0.13293221332631
0.139542886572339
0.132014530149634
0.136188347874851
0.134373230750336
0.133201800283444
0.131659779375706
0.13488446595824
0.129200201978314
0.132026815123171
0.12694017685275
0.138498872598019
0.12877546657527
0.135581237116801
0.129580581177014
0.137201595939674
0.12746121051299
0.132844412989522
0.126837307566786
0.134770035887809
0.124128259324594
0.126649285713671
0.125671110187401
0.131033962053289
0.127280524067395
0.131671601442383
0.126205106988154
0.129899361816192
0.124505527376621
0.129042471851058
0.123401739423896
0.126187026148139
0.119029479980031
0.128513328845059
0.123192105274373
0.125955967556461
0.118640517145809
0.127389299300948
0.12508051432528
0.125849208535076
0.119371956101835
0.124973126950841
0.11872338004812
0.12776249744268
0.120064006504163
0.125127442144957
0.117657187795801
0.121083789943313
0.115315449502029
0.124090832459711
0.120068505556475
0.120370997113704
0.115061213881044
0.121059087291541
0.11538269916963
0.120180296705343
0.115852182569649
0.118986043999768
0.116169594303648
0.115232318886809
0.11436677647248
0.119657466659033
0.117840041731527
0.114741513172617
0.110300388981467
0.117117406807982
0.109771015713332
0.116156599184157
0.113630963631791
0.112880955282676
0.110332572768249
0.115725525955417
0.111453129367919
0.110432526151043
0.110791972298061
0.115921187397145
0.106181962947043
0.116889960305222
0.108703245289334
0.115579669315836
0.110460264527603
0.112982779751721
0.108225739204349
0.113013566104769
0.107081123737146
0.116335992406122
0.107181336597411
0.107929761274036
0.106275602575677
0.110191568937595
0.108662675425112
0.110652857694518
0.104959633850707
0.105727301577375
0.107594827257478
0.110778543621609
0.105421199205896
0.106384840174584
0.103411479759484
0.106923705469309
0.100748967151155
0.103621600172495
0.103366044949831
0.105002755563087
0.0998066886010367
0.102365659813526
0.0992910556829027
0.10538190421517
0.096824305889358
0.102542174113123
0.0948671750321284
0.102858527316231
0.0979534189731067
0.101745727374599
0.0981875526400352
0.0973509403753038
0.0935389549341471
0.0982673764006286
0.0970438912045835
0.0974906212732445
0.0949962596560537
0.0987077376563524
0.0932977703907164
0.0955523590636553
0.0959102192688742
0.0979236973936566
0.0880187850899517
0.0966644105955316
0.0902838768646514
0.0923279802916951
0.0921076791539498
0.0933395124906283
0.090046200749264
0.0951343550308475
0.0914753467808124
0.0946965421075643
0.0871886472290809
0.0877693352382262
0.0878142299684153
0.0894093549340319
0.087945378644837
0.0894420268891775
0.0859676016439951
0.0865748327097749
0.0856810779416678
0.0846698970293702
0.085190640646894
0.0858641726511091
0.082424524468056
0.0871484377732113
0.0861277007922388
0.0894092505592909
0.0805718167525325
0.0824018778207583
0.0793278787189339
0.0851730149343202
0.0810238813275121
0.0835238752206968
0.0820398779168189
0.0858959555336634
0.07961384837292
0.081701873368919
0.0793197899418736
0.0814162037807538
0.0786113546473763
0.0816397178058988
0.0785481179011552
0.0820048424762353
0.0756728438024438
0.0789443269654425
0.0762659339098196
0.0767214655668561
0.0761981349006205
0.076178955563425
0.0785434795567666
0.0767022458531197
0.0720897414507091
0.0764460973604732
0.0758551678225419
0.0766991799877148
0.0743509987554564
0.0763322969750288
0.0721947023556778
0.074612730193488
0.0711624224241509
0.0725688501108864
0.0734972731812255
0.0711132990122769
0.0719303790841794
0.0752318437468776
0.0705513828489854
0.0745057529921707
0.070894714003499
0.0705978264678635
0.0732871675731731
0.0745991952953719
0.0685175591251355
0.0698171761302459
0.0725355294995865
0.0701187357455966
0.0688976038386574
0.0717625743490675
0.0680716334009703
0.0691300672098408
0.0698198210626405
0.0725840054104413
0.0687699644088745
0.0702798084581736
0.0680326984949209
0.069012724319199
0.0735573712607364
0.0735557173897189
0.0693270762505169
0.0688817407839679
0.069952229362392
0.072845512230646
0.0701756667395036
0.0741923578771911
0.0669716246366552
0.0682787154440061
0.0712784707262963
0.0798826169259063
0.080501010501111
0.0796386277080136
0.0745429261600229
0.0686074313762257
0.0749249952110432
0.0806657303675365
0.0775914127246919
0.0776502845486045
0.0764332969571156
0.0800673113983869
0.076674493034344
0.0780838413423692
0.0693435595403861
0.079497959433829
0.0775280313562498
0.075533507696346
0.0764348877384627
0.067604584773018
0.0799748231835766
0.0767741518071827
0.0718823801555735
0.0672319710057041
0.0672840351468731
0.0605959396518015
0.0741747163999555
0.0711029742795422
0.0725858137083489
0.071208212646369
0.0757544208703324
0.0628198556023613
0.0780550323459751
0.0670399748787563
0.0830136008115015
0.0603482108175712
0.078153334221672
0.0583574082491165
0.0827393798277878
0.0630937149002221
0.0873630759789263
0.055249973367909
0.0857213729661296
0.050705535997517
0.0842923985855449
0.0536129897738457
0.0941024072341312
0.0510537173343024
0.0847915280801075
0.0374929002151384
0.0974961690492695
0.0539623034852884
0.0876221921412657
0.0379619411089369
0.0891669201399447
0.0510160922594207
0.0771347517102319
0.0574149482703101
0.0765970714022773
0.0668656989879786
0.0585701468589993
0.0748238737384123
0.0571338104132847
0.0770416704616809
0.0506466902178775
0.0760756912236552
0.0511900233242134
0.0744604983393467
0.0533795713777001
0.067845610987195
0.0582489762900351
0.0630549592756382
0.0632025929701903
0.0629810601693307
0.057842266982457
0.0591023868114028
0.0593704822729926
0.0616148464390073
0.0585096302991315
0.0622174244885185
0.0540707434497307
0.0608508202602526
0.05651343820067
0.0621290591320871
0.0546704932154866
0.0597397079242827
0.0559732147538631
0.0603631984211605
0.0562486879991668
0.0575437664782944
0.0583518923040146
0.0611559260361808
0.0577133645709505
0.0575345123522065
0.0535326360662817
0.0603464080872124
0.0557557624621377
0.0616378750270578
0.0574376186823482
0.0596586124539809
0.0546635847522834
0.05897239657623
0.0572965083857823
0.0593097042431757
0.0567130309846883
0.0593633082961721
0.0575163219030111
0.0585009118064163
0.0537335855450644
0.0579741521803334
0.0563188099559274
0.0599859283887852
0.0552774790954697
0.0578707957615737
0.05377146102857
0.0597289006238309
0.0551173074176343
0.0581891362554029
0.0558711030405169
0.060551370201362
0.0588585296059886
0.0582061395533872
0.0572081440474632
0.0585775808650297
0.0580941123244084
0.059833364577309
0.0565359735745965
0.0580231019917598
0.0545538683496088
0.0567770653034175
0.0565775041992149
0.0602961163932015
0.0565001444690252
0.0578347458429881
0.0537826298270082
0.0568477511641521
0.0566714386733869
0.0560430603894645
0.0528023370234901
0.0578739827581217
0.0566610068754627
0.0601086293221434
0.0554717034712538
0.0590892390162156
0.057190701019048
0.0579951186535442
0.0537383620276302
0.0578114609162625
0.0576919853217806
0.0613071808530661
0.056563420761801
0.0592691793627916
0.0557819174866668
0.0579151447743547
0.0528743137370915
0.0574574545349877
0.0578614160725951
0.0565049036110421
0.0557074002413814
0.0613102633295664
0.0568364865211702
0.0595073710554669
0.0551310076819876
0.0588683107629965
0.0616163226194795
0.0627471119952891
0.0595232857008026
0.0599713300079454
0.0564401109856367
0.05975055514042
0.0588693732782949
0.0574334403220722
0.0572146460881517
0.0609902394535017
0.0557805407548992
0.0581056292261429
0.0582640580106271
0.060597199563049
0.0590749868783037
0.0585608357856797
0.0582273299806999
0.0581220962478581
0.057229715380279
0.0593617222015591
0.0584724702392081
0.0594656549956885
0.0585509510839351
0.0625799786192559
0.0603140919583936
0.0610500368431383
0.0604953220054828
0.0617164282054356
0.0587686293837879
0.060534517313123
0.0585409123143125
0.0589645932970489
0.0592837291896354
0.0603174171811522
0.0580141866846711
0.0600369031834982
0.060035092513977
0.0627226130534779
0.057522871685367
0.0604077119162832
0.0605504326179779
0.0632485470767527
0.0605484596076523
0.0623673147163123
0.0611376655642561
0.0630255343488859
0.0622773066416844
0.0620106740913782
0.0619424893720014
0.0624725160467294
0.0614273393836261
0.0610135528038783
0.0618538902492991
0.063482117870028
0.0612644061824207
0.0622308890390832
0.0607304553784474
0.0616764080820289
0.064730342175113
0.0620507382514207
0.0616662304805672
0.0642073548369951
0.0603546540497689
0.0645079433004311
0.0667488766215965
0.063602508737392
0.0596632807537092
0.0647005875977792
0.0639960076079563
0.0640796476923556
0.0608811635794329
0.0627344896892746
0.0631899958834755
0.0648217489707755
0.0611449386818205
0.0619581434192062
0.0623118642293478
0.0674379440019041
0.0651259733117969
0.0644805935979292
0.0611049082650117
0.0581926862821958
0.0585807815725083
0.0624331920238339
0.0623530397496694
0.06173279825413
0.0637381237355277
0.0621758970152528
0.058955008988255
0.0608901316184268
0.0620521797170036
0.0634425401536973
0.0617959319012122
0.0611860882564191
0.0605835048032229
0.0588201043639598
0.0585203779295854
0.0614179680514324
0.0619821091846052
0.0622413732262372
0.060014035507166
0.0617947356962382
0.0572364273030381
0.0600959183308433
0.0603465347368479
0.0600512812725561
0.0615122529461656
0.0594702296230153
0.0584677395260216
0.0572641277851647
0.0592671202950549
0.0590766520883467
0.0595997119485925
0.0624537046229997
0.0613195902889678
0.0582437596399141
0.0563435263395841
0.0576409413852093
0.0585487489260609
0.0616349628664991
0.0598885594115676
0.057176544090395
0.0579618530197982
0.0573262419437194
0.0588228034446604
0.0603171798580737
0.0580270190492375
0.0583186602012734
0.0599886119680211
0.0602401299068367
0.0600913893196402
0.0590094959731096
0.0584156498492476
0.0584536049266772
0.0557675424687131
0.0587184717480478
0.0581145085754832
0.056898285061915
0.0574772577213827
0.0561478236433897
0.0587622128100377
0.0608633211012571
0.0566491861413299
0.0577485605863926
0.0574356947306608
0.0574667671911415
0.0576313702303306
0.0584919098298997
0.0571680170922472
0.0584205259376051
0.0583287742653975
0.0587270846993512
0.0569929047676304
0.0563327159713763
0.0598035512040333
0.0591543880724567
0.0598822168134922
0.0562081577163585
0.0591035726350633
0.0600000627292929
0.0583062152135794
0.0572274893048591
0.0557359950069972
0.0555161442353792
0.0591446278655041
0.0599033261759618
0.0585255350316682
0.0570927697001538
0.0585248152584163
0.0546990283452789
0.0583170307704115
0.0579002710684581
0.0561251599730679
0.0556439972231135
0.0571659568331669
0.056965725040429
0.0585620490386032
0.0591411563686001
0.0599641850130261
0.0584288333141875
0.0578258168286275
0.0595770772249324
0.057214893701183
0.0561435744263212
0.0571967116892295
0.0602070457471389
0.0568088153597576
0.0547187571370883
0.0548153935432997
0.0569038925724945
0.0586271529684693
0.0573797416653825
0.0567445612661103
0.0562093887922071
0.0549360280158794
0.0537541556003449
0.0530160802145567
0.0548146098406349
0.0576809271133313
0.0547025655469584
0.0532174133690048
0.0530952232633423
0.0550981242428626
0.0528316740750128
0.0541854513389363
0.0523109767154934
0.0538760645638051
0.0540071248640512
0.0509594133063032
0.0522365900428698
0.0537294516519208
0.0543050105130536
0.0509458308125708
0.0557064462920532
0.0525709009344071
0.0508570605911167
0.0576602652271196
0.0518965083606642
0.0542397968103107
0.0489731708533344
0.052465380654138
0.0500850023549341
0.0501046201750985
0.0498506799218107
0.0535617680931773
0.045696448324477
0.0506343870697552
0.0508885686476739
0.0518647961095897
0.0476871512173232
0.0494676293486021
0.0484647452699438
0.0506107948205224
0.0486309954633965
0.0514180098014598
0.0485060787664756
0.0501008104874586
0.0472122904167888
0.0512383430856984
0.0442962704799116
0.0503641819647593
0.0459805958028608
0.0484955642010471
0.0480762949906456
0.0516169872041192
0.0464820004654562
0.0513307180264489
0.0506590515290371
0.0487294297138537
0.0469032377668039
0.0454864259370141
0.0488980512341022
0.0476004307032587
0.0443981657444442
0.0450561549984041
0.0465882451296441
0.0457142118816729
0.0463875237644996
0.0482897672396763
0.045435604902418
0.0493571753248268
0.044860514534327
0.0459002503796766
0.0446846401656068
0.0467765154656198
0.0454072011927189
0.0464781409289536
0.0450960465514933
0.0450571570024072
0.048873184971829
0.049003605438824
0.0485893526992158
0.0435889076972867
0.0494683667056644
0.0436825941672382
0.0483026020707545
0.045040229251002
0.0463106910393312
0.0454603870147916
0.0466039223115828
0.0465872046036982
0.0439847011777926
0.0427020610567552
0.0440653128509843
0.0446645318311977
0.0446274135755556
0.0434081518797646
0.043730207548579
0.0426071998103983
0.0469947692734989
0.0414893186096944
0.0437110298045118
0.0398994664582655
0.0498835419457487
0.0394770752511405
0.0443025986591257
0.0533767145628043
0.0458383239544287
0.0457201128640956
0.042671451278121
0.0481629353039028
0.041177744100468
0.0443803165013201
0.0419635294267989
0.0441008097666235
0.0430182526455789
0.0447946842999791
0.039698778056161
0.043591239310017
0.0415616035535939
0.044530809080302
0.0397599709049864
0.0446605774165501
0.0380247822138536
0.0459865188003729
0.0378218389105304
0.0453335460708111
0.047826034033999
0.0450205510657322
0.0447951779107232
0.0469622770936407
0.0294128773420606
0.0592335200902444
0.0450400215503348
0.0485663188799607
0.0375216136698878
0.0474001724003463
0.0370726311118169
0.0471053909285492
0.0372229560923108
0.0467253947107865
0.0447874145950641
0.0434344548690128
0.0441757390388466
0.0415273206586814
0.0394011346926625
0.0403744014418335
0.0383781475613776
0.0407693347473559
0.0404706894508667
0.0440792923257093
0.044193295102776
0.0445091251254827
0.0385222165260388
0.0451186149799851
0.0361483476024769
0.0419897592263949
0.0435846417353649
0.0455343044788584
0.0381918517232943
0.0471764958058793
0.036203336212258
0.0412982070844709
0.0584789896518036
0.0436294456061578
0.0464568686667651
0.0387409848964093
0.0446302304115176
0.0423117131826214
0.0426546714604948
0.0410213307400375
0.0439989073868576
0.0393819568319777
0.0445937143558051
0.0401562143813765
0.042438967890223
0.0419506421869146
0.0431529917053974
0.0451536352497935
0.0400310784373877
0.04527207793478
0.0396855376403272
0.0497588273442488
0.0306906979134101
0.0433723630988347
0.0504903832290534
0.0512071470137558
0.0490652814267895
0.0477934126524154
0.0393732343653345
0.0432540068740745
0.0448323765719133
0.041495582505701
0.0422272070920076
0.0443280898968632
0.0453804317718854
0.0420003624141755
0.0431737158458794
0.0400127042506791
0.0444215853663602
0.0404040623052126
0.0443546220780454
0.0388174407056198
0.0443797969146515
0.036249554025322
0.0478322254281399
0.0314026033817278
0.0532739337175474
0.0385824609766473
0.053060162677164
0.0144863144099043
0.0674903673724486
0.0573195238247493
0.0453033294093934
0.0535233902705835
0.0410056941235082
0.0475985139948233
0.0385252253593437
0.0441075024739414
0.0489496977728435
0.0458507837712039
0.0408511935528752
0.0422882553135916
0.0467351275599012
0.0501159869959788
0.0321528908431372
0.0324073008831001
0.0665226085192324
0.0454655889444695
0.054620890347328
0.0393778856724521
0.0356790853995282
0.0682279891540176
0.0416626446177925
0.052882814453614
0.0412947010238262
0.0472942934354466
0.0441017789378144
0.0498977261747468
0.0396216275025667
0.0512963030241995
0.0466067817588322
0.0423304465970853
0.0457417656669061
0.0419078134673581
0.0480715616100374
0.044055359027759
0.050150879420802
0.0592919498058996
0.0415151507648711
0.0536313539536161
0.0473507386575601
0.0497358650172783
0.046754940440303
0.050878010007944
0.0394780398133675
0.0473444946724697
0.0591479878495015
0.0415410688101452
0.0533806816579679
0.0587546888931352
0.0432194191122404
0.0545674969647032
0.0443775159403729
0.0661784916830524
0.0355497920405275
0.0410308741823065
0.0679465310422063
0.0433299460378606
0.0770959418494968
0.0426541559317962
0.064513280676482
0.0397389521663487
0.0640055989842113
0.0291128706278466
0.0735752776114561
0.0430931708486725
0.0667146217758328
0.0401446690714986
0.0586722851884295
0.052535734730146
0.0581841138429722
0.0552383217649606
0.0542918125260376
0.0448134025545925
0.0635261770960603
0.0576899772227918
0.0243967977950405
0.0807104800753918
0.0608906738576167
0.0761978513416076
0.0638410105212689
0.034608450891645
0.0976246738649469
0.0508721482761528
0.0689769210425083
0.0504063549321859
0.0633398943379659
0.0533973128441323
0.0380293388678796
0.0837352148859336
0.0632552148449907
0.0555013168935833
0.0716818614560179
0.0398046223769465
0.0800175874749289
0.0681196188344558
0.0691878017548842
0.0582091359850485
0.0791838430626346
0.0269971595884063
0.103534014814473
0.0748493839339287
0.0651305913124122
0.0922794417219996
0.0679519549014019
0.0850413393540668
0.0731576806833353
0.0764833434621408
0.0683871189163694
0.0873684778639658
0.0755325011999298
0.0636872452893408
0.0686907371644171
0.110279366138994
0.0641576728915615
0.0967433986867238
0.0701490399618072
0.063201825228038
0.0652196227203948
0.123153318151648
0.0998762993585057
0.0959130418769604
0.0712446821863565
0.10886320448864
0.0814736740899528
0.0915228260206683
0.085962697680688
0.0863403917503692
0.091587387040463
0.0844361003032342
0.100261192279253
0.0929335370318613
0.0956099613546347
0.0986998831294661
0.0756888436703373
0.100097809771634
0.107718452818387
0.14602372073928
0.0827583596183073
0.141058262971068
0.11191949573625
0.113615433156797
0.104402298796494
0.105249438344837
0.112243953159247
0.110636124662564
0.114356132213503
0.097906943183915
0.129888720436863
0.124517307479198
0.104068983511572
0.159205171583837
0.107068511695816
0.140768979616209
0.0192759679498295
0.336403144980219
0.143449127939836
0.160639710059728
0.132284290172213
0.111666705877836
0.232261255613487
0.166916501251688
0.164830356099926
0.178159548680827
0.165955377480087
0.176395961721015
0.190275937276982
0.192770443009025
0.203158086682694
0.21196277196293
0.186267784430522
0.196210573129003
0.254340387980213
0.26169534123226
0.253492553315858
0.228490396174953
0.254093045806457
0.274883260645736
0.248654636707688
0.271466582893965
0.268208680279484
0.224409646515658
0.357293255143193
0.287196045914867
0.310841044506337
0.280514283377527
0.350429036751804
0.288625068498683
0.363934732493148
0.362515969057593
0.337739303505521
0.353314021200561
0.342346512412933
0.372827647155948
0.332702317731803
0.411262357149427
0.392859884978591
0.389125856143725
0.394235292156998
0.393204821076703
0.406302472906051
0.405041582664667
0.41275939408786
0.383666739852901
0.441295674966727
0.363219149606141
0.540124932609975
0.470182828496851
0.404964615798005
0.441688232300849
0.38768061177077
0.467625174207361
0.420439002252886
0.473142474635823
0.481037169393331
0.425845103380928
0.443765993876298
0.426305575994136
0.441400296693655
0.433709580493677
0.445386908052765
0.407268760751906
0.453543855088548
0.435213921458135
0.386240144886772
0.541870463759103
0.427074330631784
0.449016669965531
0.419945678993371
0.444371364934191
0.419954236668055
0.432442116827137
0.399723898310157
0.471031842345644
0.412996675033916
0.434078318568336
0.387350878907905
0.438875392831938
0.445455072088186
0.398359775024637
0.41016251682789
0.406790284493385
0.390807742641983
0.387426858815859
0.340882038442121
0.467864058866292
0.385987213794751
0.396150605139001
0.385287053947999
0.390772906179675
0.375193718139882
0.378340284302711
0.375225692948431
0.391565708289339
0.360195716606668
0.387736923483661
0.364618066490547
0.377677593837042
0.366104684217792
0.380381375650594
0.370480329678168
0.370722480827552
0.365482260902307
0.365239279925719
0.37702760762331
0.378394205965693
0.366424987019506
0.372471680022089
0.366189743868055
0.372264427039091
0.367283991631089
0.374064069440087
0.366372627642207
0.37128282751974
0.361152113776408
0.362184783322594
0.365688828298517
0.365518409722497
0.362678019643284
0.35615010614582
0.360604565322588
0.357963677685072
0.360789125653862
0.35357673485762
0.361308177563887
0.347521978192206
0.358160394249267
0.32858415375865
0.392873257014529
0.396341465134213
0.330642452407405
0.365918308001913
0.329058068079057
0.358474056261417
0.307319345950137
0.364683965642871
0.363885856087639
0.330719339246538
0.336642478160967
0.328134818325034
0.318685206386937
0.356201408040983
0.304110604102097
0.341853725492437
0.290827007939182
0.305267630809798
0.409624942395623
0.290765421195099
0.429424187883434
0.327159264520538
0.314118462581743
0.279049117485328
0.375451034775615
0.29988751941512
0.317995114115846
0.297819351153795
0.31742762908617
0.337144136911049
0.298350766858878
0.314737998785555
0.291726507898606
0.2949895776728
0.333791187971825
0.298132204038036
0.282329752673967
0.350792422766646
0.291041142810972
0.325206864995758
0.345789601050296
0.329360696394752
0.283010851870698
0.28567050319615
0.290100250804209
0.253050005328171
0.318596185775921
0.288007065525981
0.275229177139915
0.281579341513106
0.248501503118779
0.275309977576169
0.255861556877994
0.289251806823142
0.221017073335918
0.308832222902459
0.244624949290931
0.244316598271711
0.266672961641846
0.244823173774086
0.300135223630152
0.259889734193435
0.243087080909316
0.228936661708438
0.301381373318395
0.241407480671323
0.256534668400041
0.24271036228471
0.214043363702333
0.265203065524322
0.233707110281882
0.222376320600435
0.245059857276976
0.208803834236714
0.25490356408185
0.258121856021844
0.2687858570281
0.238738834320017
0.212728460523593
0.224819585393986
0.216745437323954
0.222367545792396
0.206120884437422
0.197184538613616
0.255228188259686
0.175018064007092
0.266933772517546
0.232118099949237
0.215899598897647
0.221346086966463
0.225164500682758
0.222323769198281
0.243863824361138
0.250329147178191
0.257574767997259
0.210494676223691
0.265687304798063
0.233075656503841
0.251506879039928
0.242677325107331
0.256089148695566
0.240738057031383
0.263619310554845
0.269154963346992
0.268152479418107
0.265157521971782
0.283023158122546
0.261967145182374
0.337772241228959
0.270769207426883
0.306459464085619
0.323226006367031
0.316645895737954
0.348098655925244
0.312765644384608
0.333881490072368
0.332672907267697
0.343695551860109
0.345136546189316
0.321920165881083
0.390298157647675
0.354156681463005
0.360512939711629
0.368685357778371
0.370605891082255
0.367093258724846
0.388341132425292
0.407827424136717
0.366671807360635
0.467712725348249
0.380104565792796
0.410920625324198
0.387757253044106
0.396236544828077
0.408977609748194
0.399684279772225
0.408154415158651
0.383221899410989
0.425591672516363
0.421351785966527
0.402406086393401
0.42029080337057
0.409664842311301
0.415743673588885
0.414344261926913
0.421695280521585
0.425006225875443
0.427138924536867
0.438028066000239
0.398497822013848
0.477281667922885
0.474242892341181
0.429739111149687
0.459429722045627
0.441359526931296
0.464744844355034
0.444560734296228
0.464482077171434
0.471413439216421
0.462173019201193
0.474490153923088
0.471575827690314
0.471843550322558
0.472500599875376
0.500472019604005
0.493811561189208
0.483573378079479
0.500795641159958
0.436948810711636
0.58064030003272
0.484495185873625
0.52853897229346
0.505470539146912
0.502532572827146
0.504338627272553
0.508130504741968
0.505996919044791
0.528348988344222
0.51529311851411
0.514824057672488
0.513754321468611
0.510225487005284
0.520169257654345
0.514373925369922
0.536882779457607
0.526574523588296
0.506059550182373
0.523105781664085
0.508622574475657
0.509602442888416
0.507380105979641
0.540521802675596
0.507924070987126
0.515643324459289
0.507364479508117
0.539494391659762
0.524462764451278
0.511465229988769
0.511444241879641
0.525465223300134
0.504214971055778
0.521878177433204
0.491792855015805
0.547786973513624
0.52705545038252
0.528281893137969
0.517940703357511
0.530223318907987
0.530674844007338
0.528556295668117
0.5315261376739
0.535521325767194
0.530634538386082
0.541126101531213
0.535226742585429
0.534879172598654
0.543771721317261
0.545786588763071
0.54905358424686
0.539482083266988
0.531652164177658
0.533855719661438
0.52542836841626
0.544331711222819
0.519622450336339
0.517900575373198
0.507898358654016
0.514568618708514
0.497949188726346
0.521309603471476
0.513018795200226
0.489853713298601
0.507580811608958
0.479452029523978
0.48836045805584
0.475030656678948
0.483275128516743
0.476602410487452
0.48473861843249
0.48005790006136
0.471366145479688
0.465252275185909
0.465747676220041
0.467268230387652
0.46283474311974
0.462663508279132
0.460821928082604
0.460538430935197
0.456566748619967
0.465135756329978
0.460851482447145
0.454138822181747
0.456728924303148
0.457840937193845
0.471832491391802
0.458929790580522
0.465463194463362
0.452508663675986
0.466051946235055
0.455702644659613
0.456888336207734
0.452964314739666
0.455092451264542
0.457177610336375
0.451522112689157
0.459474204950124
0.457700897884829
0.449036049119027
0.450023954032877
0.453875684084959
0.453236278236979
0.453712280543133
0.452252916437933
0.452133965610102
0.450940178275638
0.459812135784037
0.448292867399512
0.458082119996263
0.453021151925244
0.459565433208608
0.452189722604372
0.453246177846355
0.450782183058959
0.455599445726314
0.453339246389407
0.447618396188715
0.452460487897986
0.455199991921189
0.455039203918823
0.453594536422204
0.451750769363162
0.451244098192296
0.444617701828442
0.447065491452611
0.441448734289665
0.440753296144675
0.434317130842046
0.437957801242385
0.426185685763885
0.427963526146127
0.423134062744789
0.424035098771834
0.414649173062389
0.411755251288872
0.40783504622176
0.402192073066127
0.404144666920466
0.399761152008532
0.399973279419838
0.401175557149567
0.397426710769511
0.396606824099744
0.400806880636989
0.396039095778793
0.390540618864792
0.394315671069859
0.38930593549496
0.390207529599333
0.390759343024436
0.391778342917606
0.390162402218183
0.3892439984081
0.388801288548113
0.391736746676556
0.392865366794858
0.396932177940757
0.394640365240347
0.400226171108748
0.397916935093124
0.395948433104808
0.403329320590216
0.403037412482627
0.403631860681232
0.403481562732032
0.407378695781823
0.409452120696451
0.409765231780045
0.414827358236587
0.40990299565624
0.416576008883991
0.418229018971446
0.413962687333402
0.415528015131265
0.416723111020384
0.411192298550565
0.412935562949139
0.416345886614716
0.418096155884415
0.409783108380944
0.409250043563731
0.408375637580652
0.410486950642155
0.409839927608376
0.406006020028341
0.404468547954512
0.406040947111617
0.400217547552416
0.404940146250841
0.406852523885427
0.399959134771804
0.399432464089386
0.400890605788603
0.397289559909756
0.397038147416706
0.393849595903915
0.392239106940214
0.391307698942553
0.391337324592138
0.385613728367099
0.387147297161571
0.387024555689094
0.382703457310944
0.381514221901822
0.382885326871595
0.380655941367178
0.381981521120342
0.379345574407958
0.379983797598804
0.378233491168986
0.377950297367579
0.376284402726023
0.376340246752222
0.373502908639684
0.37114718039998
0.367764730236173
0.363510096135014
0.363002404309726
0.363036617344396
0.35856958468947
0.354738256317955
0.354733599309582
0.352258551203012
0.345336529861939
0.344894217232345
0.342357241493185
0.335631561814976
0.336306401887212
0.335262517291119
0.333637548745308
0.335872296485823
0.333217383460084
0.335290647960771
0.334022674543974
0.329338844508565
0.32990922410213
0.330168226969188
0.324831475738059
0.327988235695621
0.325542069513262
0.321488127985943
0.318181184763607
0.314739294005934
0.311281764801229
0.308862741064091
0.30339435413341
0.301460467705755
0.297158252356176
0.295567660026188
0.293857511559337
0.294128968041644
0.293508885741817
0.296080132525789
0.298875947776799
0.303993391548614
0.307115684041872
0.317249880485501
0.324506247345104
0.336327689948179
0.346700550916764
0.356130483075802
0.374850687143395
0.387885768490184
0.397026677313582
0.409862478913401
0.427429190828055
0.442102057694439
0.458427431439665
0.468901451612022
0.483328793012992
0.490930295608077
0.509010545505579
0.526581492423077
0.537030651405826
0.548772139922652
0.561930841579059
0.571677813524143
0.581436220574721
0.588746229687926
0.60196843504824
0.608689706941047
0.617763647613891
0.625094895209547
0.632860490415656
0.633553034919276
0.64168160506041
0.646597258693482
0.660246634046629
0.655742018215485
0.659141683343463
0.658334819918545
0.663985786006039
0.662666410169626
0.662362821589188
0.664885708767987
0.668497687291468
0.670816099323842
0.665280518665531
0.669904600318435
0.673547282264714
0.674941595675815
0.676981480639069
0.686729192162193
0.690414796428831
0.694085725149357
0.695672746658601
0.700565194276409
0.710114149578697
0.708862293074273
0.714202034857322
0.722884979517986
0.730408512876735
0.73599478151248
0.74780521770313
0.760682735749194
0.7556671356236
0.772752847611738
0.784199368020828
0.800665798133134
0.804599697633612
0.820536127777671
0.826292076153546
0.833835123646458
0.840954994824302
0.84524968225788
0.84684237495014
0.848573072728538
0.849873363027945
0.853068987198913
0.857862196409434
0.846353456778891
0.849441502189918
0.841926568676547
0.838946177174418
0.846090575561744
0.838240191393862
0.845842616978247
0.842731221795223
0.850230024913506
0.850145189967869
0.856887347061601
0.878075774417947
0.891698785056248
0.909624480346594
0.910735746247514
0.930206804352819
0.947459100854468
0.95440350720731
0.968117703977781
0.991125938799564
0.990343851895286
1.02313045162034
1.04142734978928
1.04134180288599
1.05772215588486
1.07014939613754
1.08699120469619
1.10418644637596
1.12289776707957
1.14025464031734
1.1649683727546
1.17927167427073
1.2110805272784
1.22578363002778
1.23372938876748
1.2449826519713
1.30538271839979
1.25540814279543
1.28533569596484
1.32170455000499
1.32871678843075
1.35453048626388
1.38630875957171
1.37026852009976
1.44738135636454
1.40680657975263
1.45494382155388
1.41849818566451
1.44184228364699
1.40403481357153
1.41658854068117
1.38791488124482
1.45460666407909
1.46477596839775
1.41716630574419
1.43845799352013
1.41017817135216
1.39183355936892
1.43188126567993
1.39802570499433
1.44889473637875
1.48717685309483
1.41333017489896
1.43595062982965
1.44785100984981
1.44070966869001
1.5153719093715
1.48403005854986
1.54709084723606
1.46065372680432
1.52632219543825
1.54636384957973
1.59893214430163
1.5625044120565
1.62500107164225
1.55099179574567
1.58384057885981
1.55584229358706
1.55021242588466
1.59253531442805
1.64761325512104
1.66815277199958
1.7573321098135
1.62712700734731
1.73499702554927
1.67416453597474
1.72159149616569
1.72445907564232
1.79614222619595
1.68462733312947
1.7636345164492
1.68295664637938
1.67101798663815
1.60601540558086
1.81321369908195
1.69831458746402
1.6978874966125
1.74581026900093
1.63372746489345
1.59796049858017
1.71303578873414
1.61089545130457
1.64272331436784
1.58035315402431
1.59043554278788
1.55247071545707
1.62544657258185
1.52227394282974
1.5025263531323
1.43605510445564
1.39675382134857
1.32172321985482
1.34646765781068
1.260674688271
1.18996212808651
1.16288683359199
1.16545285152944
1.12509623363982
1.09329612378311
1.10198554712453
1.08087914300525
1.05164524507167
1.07809209409892
1.04052784559117
1.05639142978361
1.01173017253451
1.01712891959649
1.00208535316573
0.99581445052136
0.970472359975743
0.987220749747126
0.946901735472937
0.956380847801991
0.924998461794562
0.907454973560017
0.902064907701094
0.872977328156106
0.851070121599858
0.82128917308805
0.79428377234425
0.778823921534222
0.749972607462737
0.724563346966153
0.686433137639795
0.669077376431433
0.628698136116062
0.606529673634011
0.575496622788793
0.557442406788293
0.526008344746469
0.501256225786975
0.46923584235163
0.464707327004774
0.43518377943114
0.426997642633194
0.404843759508258
0.396223549105359
0.390831294028859
0.372576902362979
0.360618527330595
0.354587179411204
0.349482355857771
0.344555006615997
0.337423049569454
0.327839959181622
0.330719667754051
0.328387501816881
0.328224125487219
0.327425249448498
0.31947830311739
0.326630337434865
0.324769648002278
0.330920079536795
0.326393191991758
0.332627729456905
0.333490342678043
0.331213754000166
0.331019717567214
0.337551219819461
0.331796341584716
0.327257707484341
0.327509761686897
0.32716569382566
0.323167295504247
0.314910677668658
0.317847335782637
0.314360765115257
0.304977223961148
0.314263944222972
0.304806085839424
0.302727220591162
0.302592464738572
0.30066808559272
0.302905838793239
0.307773251359565
0.299409101891965
0.310369492703732
0.312834762526527
0.309288086620488
0.326897905981693
0.314715669013062
0.319787837869526
0.324510307355613
0.328040862322289
0.328422557147945
0.33318968401555
0.338496630840898
0.344196889684266
0.338080529909938
0.339148382997302
0.340491083624049
0.347256958374192
0.350154837435531
0.342923355682788
0.345507937351199
0.347306441328624
0.351072761839623
0.356847010149525
0.358013983706344
0.360252686526084
0.359968673918135
0.361787483438329
0.373981430971865
0.374897299310691
0.377259214189206
0.398237031087515
0.398013159408026
0.405063635327597
0.425572837695594
0.427430177138632
0.445129751304169
0.463068292163265
0.459338445496942
0.476710509595212
0.487217517496839
0.485037703408825
0.483716237402236
0.465420037394438
0.466697166349201
0.454737037568991
0.453698174105281
0.440834293303391
0.44365749037385
0.423763658336198
0.426970711744126
0.416392280092642
0.425084966149894
0.4140743153018
0.417558181530387
0.414901250031143
0.408103589740454
0.42470788363066
0.416933039248393
0.41046455698194
0.430794833255899
0.412390762162226
0.426246851981905
0.412188274853163
0.411414426229159
0.390119763330644
0.393770424509272
0.391073760315887
0.390242433237327
0.386996525050694
0.383501803931131
0.367731138500025
0.379298595600524
0.380287646613974
0.37199261701941
0.357043250485341
0.360169224192533
0.359980146534384
0.363458524832561
0.346650536018973
0.357377892146475
0.345404514939568
0.361275386246309
0.34441776590803
0.350278218719799
0.332307326972626
0.344055460712006
0.341318734714577
0.336676587559925
0.323334430964652
0.329756034087378
0.326483442004375
0.331130110210441
0.321199408942404
0.328369493464053
0.317760596701459
0.325463675762773
0.305660922351175
0.317751298536347
0.310779086264031
0.311847378788668
0.314698314843601
0.3087420729385
0.316089113541638
0.314931927800605
0.296549702609583
0.305523699527736
0.305611939819124
0.307410354510702
0.298756345167355
0.300993095610273
0.289254443006564
0.311586632490348
0.305551939487267
0.307540063689702
0.309616591968615
0.298754014319374
0.310029592112745
0.299801780549037
0.300026480678139
0.312535418888028
0.325003268544037
0.313228204905867
0.322308246418307
0.330624815697882
0.320084820550581
0.329128539347741
0.312615328486475
0.329135042574501
0.326266053955014
0.338890986406526
0.337827456433992
0.341661739438084
0.338795788556704
0.352114433980712
0.345585476669592
0.348248910569479
0.35071975396193
0.355202813475193
0.371716680587856
0.384004390477746
0.376262808707961
0.41991627808384
0.401407753507298
0.423370450946776
0.414274727328912
0.46239680811944
0.455374918484529
0.482196110548027
0.484690416382537
0.497077807374285
0.504221661904505
0.528291204437979
0.528816602824356
0.57998230959442
0.562346374181923
0.570638023377396
0.570498164710193
0.563924823527357
0.553408067959087
0.568861139088968
0.545672108730596
0.580401280070243
0.533812035946766
0.546880302231263
0.553963165833273
0.560019592121639
0.547762229501349
0.597875965761429
0.553811463388643
0.560349076316996
0.535049412849153
0.541888071612092
0.521871777012447
0.545261492147429
0.504555722517638
0.491059862294663
0.502646693608575
0.563430194126782
0.491132129092913
0.507394872187063
0.525214955738419
0.509153939949525
0.489757935179461
0.505871104129531
0.501582980126809
0.515165963577705
0.476583554434467
0.488022348088368
0.446737145716748
0.502823920042958
0.472581044678268
0.455664594715984
0.498751007451375
0.458735085474226
0.45708105824694
0.481988893277884
0.457493046345262
0.471646783754905
0.457874511730226
0.530339444531119
0.462638477782293
0.484309399557652
0.46423041258527
0.518344694740051
0.487605710629848
0.503710559135557
0.455802078067054
0.533072230405822
0.459350247378185
0.489942246656806
0.486978958625398
0.512268589713472
0.543620135792875
0.518064725302349
0.499015389839207
0.496806481088249
0.475621395702004
0.533508696141113
0.527809978498191
0.511273408167929
0.484361215237355
0.508904488075089
0.534043159763991
0.500774444214604
0.541027135913089
0.508750196013481
0.525029156861714
0.558975337521652
0.517696190453316
0.586250511725152
0.582464860785968
0.621451163515576
0.641976491238926
0.614584984711981
0.631142422327016
0.682116433961674
0.627542699239303
0.653022978953067
0.56297371819844
0.682558840840115
0.675922995747907
0.734489214300857
0.625304961351697
0.77827730087198
0.632115257153339
0.696200401651738
0.63483884461092
0.799921313348131
0.686422050505692
0.829540667186401
0.573505400440554
0.642427303183291
0.660420283989208
0.739802898498494
0.542849863935056
0.625965508605524
0.724197597951273
0.72702555623786
0.606966265432853
0.750008952006389
0.607314018168661
0.61623887362604
0.579283654782166
0.605380116508765
0.563880225715566
0.619539169843174
0.619211233666018
0.818307525086838
0.556815423055406
0.711498151188941
0.737005769362791
0.70100378739948
0.550503571677374
0.636226789684036
0.520089585409558
0.780859418842693
0.612990741901592
0.76493079564824
0.53779428480269
1.09564895450363
0.653729352763274
0.681877299492512
0.685274465561791
0.806457708770722
0.646958361859401
0.974791642004047
0.881697469168738
0.864073761186761
0.767079846036026
0.50301154873473
0.423896202862038
0.799624510581599
0.503088931370527
0.709202566611031
0.712811046373173
0.907698238663422
0.507240827735516
5
5
5
0.784313677888866
