3596
4000.36533379555
650.420452594757
1
2
2
0.0586894448283538
0.0497275309980065
0.0671815043847426
0.0437713778021104
0.0703061816650419
0.0569737185493266
0.0703902147541759
0.0608000762104741
0.0606318148774745
0.0542651776581529
0.0717902828151985
0.0587340587185345
0.0736394641227883
0.045329247822675
0.0675207213237006
0.049136750987008
0.0571683261278345
0.0375062668438606
0.0649806529214561
0.0550384350940313
0.0727488225323379
0.061141349422123
0.0738225348202851
0.0392751338052732
0.0631830668732659
0.0672174260227528
0.0555326237165326
0.0465945998976788
0.0792533718113035
0.0525935496901722
0.0685969446179546
0.05531842665645
0.0695189670898181
0.0491451302651552
0.0746980708020691
0.0519033298718365
0.0710039101298928
0.0532765367958313
0.0615344334106783
0.0444543962193099
0.0723220388365267
0.0434140946026343
0.0679088074666737
0.0632017437156252
0.0713785531140557
0.0540327841322293
0.0540261678792405
0.0577509490820245
0.0662186774797573
0.0613291592405946
0.0735799182818126
0.0477165596486968
0.082969861519132
0.0586108270341209
0.0652503383027477
0.0552455138411206
0.0696665862440548
0.0500421895343772
0.0641697850164305
0.0296606361109754
0.0762991936799208
0.064340242550941
0.0598484342777739
0.0557291124751131
0.0648879779504505
0.048147340675799
0.0619782169211759
0.0494506168644735
0.0562037574020547
0.0312109347147038
0.0389219555816158
0.0658368580623426
0.0803130991253057
0.0481128101022688
0.062406921760771
0.0444137381310232
0.0627197693071238
0.052832021111648
0.049905212270393
0.0450310635938217
0.07327247884852
0.050531693433869
0.0591282427405974
0.0398333431361765
0.0657953583754245
0.0583855586621444
0.0492482056045075
0.0335737522726099
0.0881380238960061
0.0633918221159787
0.0654178524518804
0.0426033486968955
0.062019738323509
0.0462988165550277
0.0484081768976381
0.0512618126609188
0.0641717024236246
0.0429935746606279
0.0577200457577854
0.0435423497374643
0.0561347606733413
0.0257610998788803
0.0921393860657743
0.0224446282402287
0.10539551073207
0.0580045474918836
0.0365188108035014
0.0702904088799876
0.0847964888909895
0.0455152890216064
0.0597148185815417
0.0470941848624179
0.0682164932842994
0.0491314270571872
0.0286677673996753
0.0408892550978632
0.0885490478332852
0.0603432958610362
0.0541699068349079
0.0327479352934723
0.0130237449831072
0.0370334895009964
0.0991737999174069
0.0395984018200886
0.075223804343451
0.0466995538163018
0.0244454786110947
0.0643491671867861
0.0896482130743025
0.0509192070925929
0.0549883719769468
0.0353908688245722
0.0413269138329746
0.00978378436503306
0.0861792612831916
0.0531837343600137
0.0473559006207153
0.00481880167999211
0.0715437141711072
0.080312288043243
0.0754273119911258
0.0416499434224822
0.0343252299690718
0.0135515513034041
0.0985667083329587
0.0582777855816334
0.0403815039869415
0.0438548870320396
0.0780418736196289
0.0423393580223676
0.0504864076159619
0.0160809097876998
0.0698837947340682
0.0451897060004765
-0.0068563319040926
0.0505435859092681
0.117285838351766
0.0473123200931662
0.113904781871178
0.0488179740170359
0.0712425503602149
0.0391758981154444
0.0545142133591272
0.0243481687185961
0.0489091497739593
0.0267073198252573
0.0493719864999331
0.061759629751171
0.0389965775826003
0.0258799357193221
0.078093585917448
0.037342535918029
0.0313658931994659
0.115769692319742
0.0695669031198651
0.0111142690230729
0.0752398152997844
0.0539343558447844
0.0379730681892553
0.0231994556489412
0.0898937559041669
0.0539715284336195
0.0511415899801572
0.0321775763752242
0.0422276502876155
0.0522066707711211
0.0578663549468803
0.0401276399546568
0.0586694753044452
-0.00456611258415027
0.0386427147590932
0.0857740778411754
0.0916525029691778
0.0424110462925813
0.0511859562857958
-0.0125947930691037
0.0787903602866366
0.071214270498086
0.059630956122272
0.0429530587344864
0.0498398525920197
0.0282487053207334
0.0417303415068609
0.0415073549986869
0.0414979049725868
-0.00527964185957233
0.100116800883997
0.0700121229097198
0.0508218701882383
0.0277129763099722
0.0382278381037013
-0.0176448567063779
0.100908270302369
0.0804955927941526
0.0555505556533149
0.0396223755668053
0.030978524777974
0.0382516526552073
0.0807470484736955
0.0393792701821486
0.0597656712760246
0.0377232750898604
0.0517333288767323
0.0407434199184901
0.0531589285731959
0.0429286420432454
0.0565087799438384
0.0316831542265774
0.0488213681326849
0.0359641507287075
0.0614081620296465
0.0432092539779147
0.0581936918099335
0.0307062092748891
0.0387305636930545
0.0250970701571545
0.0849541405679769
0.0540718696872895
0.0585652476122994
0.0347403591228049
0.0417034768733935
0.0421333016425064
0.0491453739001429
0.037294255508228
0.0479120215445048
0.00883921603155873
0.0823720605441171
0.0489329270542457
0.0550416125460983
0.0129007605038325
0.0724096006264225
0.0567492006539309
0.0587300921149629
0.0363183046995785
0.0684353123630824
0.0203923563615635
0.0345341641607744
0.0682293845656467
0.0577262974447646
0.0194871111837412
0.0724789079719926
0.0471568424021087
0.0553715666305339
0.0162369049267741
0.0114576912645751
0.100996677174112
0.0623621092840957
0.00607505469129643
0.122901255563356
0.0569052137404114
0.0689005125988855
0.0268508570476771
-0.0180907404061769
0.123216307046864
0.127841103186002
0.0460840303429139
0.056091846288236
0.0640194610964634
0.0513153970960082
0.0357121944734795
0.0483285281171088
0.0362329721641922
0.061248725348388
0.0830177446630114
0.127207161545345
0.0124778291819049
0.0832286559690219
0.0669310228432293
0.0559759601712144
0.046728459720003
0.0568075380063589
0.0332076631493006
0.0748292103997801
0.0656225793590998
0.0707749041328318
0.042544349499658
0.0549951449195084
0.07687186854307
0.0717059398555003
0.0328221567958591
0.0728438397792573
0.0610383607257753
0.0560340458397645
0.0560308034414703
0.0481472047812592
0.0594890631786321
0.0397957457744752
0.00153150427064798
0.145647495146536
0.056298232328608
0.0522101906774338
0.0851030313701371
0.0765792917409711
0.0517440699553787
0.0623167564702534
0.0513488330021894
0.0636146462456387
0.0360614664912996
0.0463625562859058
0.0802246948606676
0.0717372142621113
0.0601208669372785
0.0673366832539157
0.0537511178203959
0.0581398688956779
0.0524453578922101
0.0691086346794252
0.0528154397574346
0.0700118276208463
0.0271558880815778
0.0887841402273008
0.075239130153803
0.0446126752880153
0.0671008668874542
0.110471349444057
0.0712649784333198
0.0772590438935657
0.0623554896457952
0.0752643026097373
0.0615782758415534
0.0760857093310662
0.0513340297344792
0.0682271214610089
0.0893668894880959
0.0928459175149555
0.0413867803778662
0.0461670637246452
0.115870241266124
0.145310546757298
0.0915050659299256
0.0904531544441852
0.028425936646031
0.10521535363832
0.0889494045056638
0.101980136577253
0.101617459491656
0.0943490982321172
0.0776370420677157
0.0950881760278107
0.0754486339783489
0.0976360057453797
0.0902496050821954
0.0940744957752788
0.094602114769527
0.0938552019782532
0.0975220057613813
0.0933839393386752
0.089283405012413
0.141243021035327
0.111359268693417
0.120025438126484
0.0987503651214664
0.0937219221477445
0.110420208594781
0.141696704057488
0.133516175313673
0.144343481990308
0.116286798882551
0.156708254408235
0.11763861814654
0.126537662901342
0.114850309798256
0.12805225129145
0.12275429957782
0.136543661256488
0.130249890465856
0.142939425989435
0.131048517094652
0.1481143651608
0.12294123565919
0.149696797670141
0.127950102635577
0.171565586136215
0.145481244750369
0.163240761951269
0.115916784154643
0.145430407904836
0.17865289657386
0.255658981332368
0.162190442820836
0.181904048366749
0.162744511727948
0.177677871929096
0.172653457631957
0.1815132485976
0.165805196982865
0.17466643063043
0.199294089035805
0.198837866115474
0.185413477258035
0.217643953660487
0.16878190631985
0.20713267519507
0.191350442053255
0.207165507862474
0.229578043836784
0.222171504533539
0.168584194824555
0.250911910594942
0.21693046429731
0.231248200249523
0.219106802834914
0.231309316803049
0.22172540425351
0.245757451005062
0.212767971393334
0.24356239741896
0.239653215066616
0.258900941168485
0.249692268596018
0.262868585692683
0.234267912902656
0.257899994132044
0.263038058914968
0.27131203089863
0.266264953820212
0.288251017487773
0.263379754858593
0.30376317136279
0.252578609006416
0.307340476887498
0.25963214043827
0.300960396923843
0.311160228479287
0.310949778000058
0.284280616078834
0.312272130148974
0.288855222813615
0.341293696907926
0.305981310702101
0.336349001088435
0.302987487928578
0.334292157027235
0.321105256757055
0.327555587626412
0.320080865248834
0.340240512339004
0.340429271818071
0.375710117499098
0.333708323568092
0.373528566780431
0.305072028801832
0.39688991100623
0.366680525626863
0.436873168017714
0.400892885384279
0.385809696515241
0.358103843204891
0.399735910151497
0.39364767280711
0.401510437903162
0.417605565391404
0.427251035534452
0.38593526521341
0.405473987932778
0.398671482644717
0.449463114913835
0.432336532123924
0.435881349744207
0.437125687059423
0.480915225662049
0.411414478610136
0.480790405992124
0.428477471295997
0.486163465397004
0.472663195589231
0.486738567426265
0.44659352951215
0.496754128603349
0.477894973888993
0.518334023600396
0.491833621354301
0.528003059181702
0.485079003335245
0.535908218610675
0.465012404093387
0.532727388179279
0.510818922237825
0.563438956980649
0.509514452264083
0.578463162121236
0.539292602831848
0.573681263905321
0.524415682436877
0.566143376285086
0.537493160327149
0.596828372484861
0.568295285160617
0.60849128686514
0.583504865113353
0.622415769153656
0.597514403208145
0.624942277020103
0.576105960465647
0.676644912897061
0.629405624178851
0.646006048785585
0.609922929787226
0.667807007348666
0.603027772912044
0.619965632600278
0.602886422212576
0.673332463448881
0.637445744258018
0.676513943393518
0.637747856925789
0.72189904421219
0.6474240911948
0.693599936504253
0.673286108477469
0.743112751608556
0.686923613771851
0.772916425562779
0.68693684953955
0.76339904986851
0.731779516715253
0.785721987474579
0.687688037544027
0.769290845906953
0.73403445378236
0.759567860261129
0.709040107512251
0.791228916901721
0.731303983543133
0.807072435765228
0.762143312595836
0.832892947846109
0.758452068999617
0.86975122504269
0.775079745002687
0.866068246677744
0.789385048125229
0.838272825319611
0.795548674928526
0.876638533255645
0.792645368192627
0.838751368688051
0.816139440758656
0.91093284819268
0.825241724681474
0.89146438800285
0.842106156412075
0.907488763788361
0.863707780384556
0.897212492036698
0.831368855818062
0.957870356348135
0.868555765848593
0.908221593439137
0.921677490320351
0.92984044979019
0.835641297469776
0.981132345764767
0.952614144715214
0.939662885804547
0.940083402606878
1.00899964875988
0.920636283250936
0.952128134084452
0.910137435010498
0.985754599217008
0.961022521030186
1.00341797039423
0.940858726878456
1.04094851860271
0.929469397617853
1.08987809311628
0.980502449125379
1.05927213250814
0.999668975313082
1.04502678745593
0.962797503925018
1.11725245746775
1.06584207175591
1.12473206166158
1.02440848282845
1.12604916582221
0.940002454054985
1.15664787656935
1.03703977553025
1.02579453847269
1.03421209892951
1.03894372006407
0.992307474354931
1.12674489815731
0.992604327237878
1.14910766443204
1.11199236978625
1.20323113554706
1.17089321183521
1.20385071184086
1.11499520198155
1.25788732115761
1.13694061837815
1.25191306933181
1.05566678479304
1.16792985793986
1.16076801618627
1.24009922675279
1.13968681205578
1.29150272202118
1.12241803605531
1.25361262700224
1.07006831019538
1.2740291316678
1.15214845001503
1.25117049962009
1.21649176381103
1.28747138086611
1.18621509560418
1.25504690519314
1.16323412881793
1.32735827950141
1.19822788321952
1.2568071467849
1.10775647186235
1.31639208735067
1.17048504461005
1.31274776982591
1.16869820739603
1.13674885540444
1.12399161584223
1.22698731161162
1.31432209298304
1.37479920362369
1.18732000082928
1.45503666253393
1.20381304681677
1.28238408789936
1.25889408504528
1.27210670294872
1.24985438905729
1.44231558250393
1.35945107465575
1.48439901811667
1.42765533852711
1.39405162768044
1.2853218246237
1.44029377408472
1.3052984489195
1.3225551574462
1.21446104285117
1.44752301660999
1.26632873294593
1.42859252483226
1.33206843870367
1.38631773264038
1.37887725039765
1.24969959862149
1.2994563639014
1.35504780442829
1.1318234162409
1.37203031768993
1.39642916802562
1.37931268830014
1.25621871547433
1.38587198306306
1.3943129102577
1.38725047379082
1.25674556002217
1.49484851345783
1.35128521125843
1.45108869784046
1.5042242985082
1.54100272904278
1.37871380622936
1.70405538362991
1.40569485192874
1.6328676701142
1.41859473564414
1.43067773438664
1.37046771335256
1.33271654246917
1.37724145985833
1.6831730446075
1.41864615709674
1.52783131310055
1.28682951898391
1.41609248265346
1.27814020416208
1.44641886064357
1.4549165434848
1.44913363934291
1.38651520859645
1.52636131169011
1.42615553487277
1.52148964855642
1.35549739125881
1.36335785519783
1.35958736107439
1.51177368929294
1.55134321544813
1.36071794469693
1.51808441228237
1.74564775137031
1.34650224348556
1.5044394680123
1.46206251984238
1.48764460121294
1.4024565964264
1.49292769142424
1.37353378810676
1.43268282923976
1.51118637674994
1.74326447829289
1.43560616789436
1.56495834896264
1.35819811453415
1.43302365338315
1.48235539195932
1.42815517502558
1.34427571155185
1.50127331698458
1.45546196790116
1.3634357598863
1.43478524827963
1.58391776814822
1.4502815041099
1.61653782614606
1.38410038843208
1.33552512375805
1.43364845503699
1.55662163944337
1.51319500369755
1.44126578998611
1.47450552479122
1.49431383903749
1.35965123014842
1.59223628853395
1.53239075043532
1.40172847136781
1.37920186392958
1.48852097723005
1.4510152807405
1.44093859636442
1.4027103170079
1.46273201222859
1.37179145657292
1.42528206470557
1.44161522731482
1.52085008627422
1.61512517162307
1.49259206489403
1.39684255636309
1.52061417999928
1.45598493744008
1.45617959467982
1.37200826885297
1.51675553947304
1.52996908348745
1.55860829861451
1.51301917467181
1.48155585254328
1.47164964845635
1.58397351209641
1.48782529415674
1.34902210686241
1.40700449021954
1.55479337046739
1.47320876321695
1.36454273322858
1.38191806247129
1.44039821970137
1.35357745500711
1.49560945566161
1.37758592956332
1.33734844926886
1.36566243009492
1.44462812539051
1.43982086591234
1.40536840628653
1.32734057407949
1.3996369847958
1.3303983888687
1.31008414559941
1.44052111756945
1.56588874991822
1.41707674469906
1.37757884187164
1.38794176271
1.37000733155704
1.3494413263074
1.29010406177048
1.37855632325712
1.41690593771471
1.36053197499732
1.38510186152333
1.37621034909803
1.36142602941188
1.33812944394253
1.35430966130115
1.36518069381331
1.372406323477
1.34572166733473
1.37526265257458
1.36958126504798
1.44714503395817
1.43196483470113
1.37138270352202
1.24047567474069
1.31576566609913
1.3825878307491
1.29226070415716
1.34371136370351
1.3669630236738
1.34803382912101
1.32806773325173
1.31009948733627
1.28897556924574
1.30854235394718
1.40083054465138
1.3495230432248
1.2485927507032
1.30620574589744
1.33835297984848
1.3100460003501
1.29470225695131
1.26184138226686
1.29670956662069
1.37480655175569
1.30892378763527
1.24739517195287
1.28283427152653
1.24718154916395
1.22844022777567
1.24061755047027
1.17818561152818
1.22715553543926
1.29317340044015
1.33446672378645
1.18608745891812
1.17815838029517
1.30821885555188
1.21048935811518
1.17454536028392
1.2509770995989
1.14189088156895
1.14249728950232
1.24801684950037
1.18367986601222
1.21091945091488
1.1689298827286
1.15847377310161
1.24150102903234
1.18949066615005
1.17456851307389
1.17139684162014
1.18237648971602
1.15244737765854
1.16226582804789
1.20686034812108
1.14533595046788
1.11019141944353
1.1787930261706
1.14367721610614
1.09158155713524
1.09193419682215
1.17006998840559
1.12445953565635
1.11007799049794
1.0897331234177
1.13796920226426
1.082290689241
1.09218555793902
1.13866900591475
1.09840607020676
1.0874846608507
1.14576528119306
1.06902616211461
1.05538971162075
1.05048086026716
1.03789230264713
1.0467609407449
1.05492660816238
1.03156745759005
1.03673577326817
0.972352616661627
1.050693556519
1.04953234873224
1.0053306894136
0.98575695073779
0.977799324852559
1.0046465744849
0.998235247655761
0.994235827879768
1.01404572532572
0.975188935175333
0.991952011025185
0.969074404968712
0.958091361905212
0.976028644030585
1.01232789755684
0.965553257717219
0.932716569459049
0.935252786906916
0.964288839121068
0.952601225758309
0.933877564154062
0.919326065302325
0.93565274707403
0.931495054560584
0.925877773313574
0.886854751339126
0.925123159586065
0.92545793589507
0.912408863417824
0.882523634743669
0.878247576095887
0.892896564472647
0.898403884415804
0.880012067861132
0.86528140976934
0.861870455679603
0.830961510172368
0.845403968676432
0.866830405256395
0.846899484674168
0.861731970431705
0.861667970968618
0.86573619263857
0.834329215036875
0.836218861425263
0.814199825687235
0.796745685768966
0.818970994272469
0.830279755633966
0.801952650131354
0.823258486745533
0.782361955658616
0.813876295146036
0.804271272298987
0.798343207739498
0.780815506943181
0.79372926300475
0.787363745283616
0.773706327088353
0.753278750844217
0.772372224873281
0.761601202028253
0.764355253919512
0.777884103165623
0.762828666249811
0.729131400492305
0.747036551396001
0.723681554610104
0.755774625232178
0.754378680475437
0.733993364966448
0.702100170131311
0.721689973295321
0.725689999330496
0.716309381276681
0.699926485251239
0.726013764090384
0.710757411833282
0.708805691157753
0.682927282201546
0.703874708192469
0.689291659520505
0.700384593786881
0.693535032135877
0.685100375561853
0.659597282047495
0.689214035472554
0.661388377269885
0.675293296970551
0.682028851217509
0.656054707793437
0.661011028605032
0.67833214384792
0.650520583111784
0.655152570919592
0.639508034896545
0.649674357871897
0.630098755606128
0.638728815528947
0.643580846855708
0.649971457206715
0.635623611473382
0.641869429276497
0.611089805678288
0.63428548376671
0.614573520868997
0.6188538866006
0.602454099899159
0.617810559183015
0.604249370161489
0.623604293978814
0.598265870252398
0.597938623191493
0.578440464067979
0.59773744928431
0.590371445724665
0.594446485475577
0.578418918613789
0.585074821027101
0.579340158593619
0.579821607835218
0.565892130511753
0.573665560754911
0.558470663724914
0.56891962644458
0.56428687271555
0.570284619355661
0.546981820018779
0.563006345155764
0.540704701306406
0.544119555722437
0.548409953533474
0.554065068335215
0.546023967525544
0.546894326203049
0.525665505968961
0.535590825398329
0.522264938901613
0.524955625910464
0.519559936498308
0.528902091229612
0.524527307513264
0.523139723340238
0.510053197726156
0.516177912156426
0.515665598694071
0.523700585379904
0.513206115479218
0.517901837033632
0.508361576347995
0.505498770552663
0.490308660446933
0.504983354594757
0.485155528328243
0.493134626905828
0.481698730485889
0.484960287357805
0.464605627732484
0.496944370854093
0.478948434582788
0.486034759030394
0.480327028280677
0.491626217085711
0.466741859343758
0.477393871325002
0.471480476586376
0.474939117832832
0.465320301126354
0.472757822914454
0.45772717290128
0.467700337412961
0.46674396347665
0.477580803485887
0.445535127537116
0.466890348588987
0.457587970890499
0.460498740027175
0.453118916898103
0.469775440988638
0.454767299475795
0.468151271297069
0.456638251738992
0.4643688015037
0.452393765990753
0.464283115166811
0.460460086503122
0.473187776497096
0.454639646806814
0.46511034263644
0.451993224080398
0.459934989734107
0.459959336929498
0.465406541215146
0.453780224434602
0.470102489327007
0.458738124600585
0.484557091207683
0.475099210803066
0.471363528439215
0.476279429133593
0.482512185648136
0.468348106290573
0.488800272382022
0.479692350768725
0.49424066447209
0.473878600817409
0.501426619178331
0.498011421437732
0.487948572896286
0.492613070341322
0.503847499382588
0.498545017422593
0.511917193170302
0.501651200655166
0.510988543512796
0.504567672088103
0.528120678302648
0.517662210022705
0.523314941693008
0.512224853097239
0.538671280914052
0.525149127143829
0.533187598426424
0.522598494206131
0.530698420481685
0.537373199898337
0.542961847205813
0.530972900114273
0.536403444283325
0.53502469400866
0.560221124691078
0.550849132206469
0.558544137053675
0.560487832935063
0.57146731097376
0.55240565161257
0.572035597324383
0.57253959842978
0.60418387246247
0.587693260187955
0.597429350943655
0.582093084725064
0.60227162839115
0.583412712273241
0.616969459590642
0.602175693345874
0.619097008633388
0.607736596765311
0.626446702104582
0.601873527766431
0.640743343007493
0.611247797517245
0.644345260454092
0.62499452270794
0.627407641575182
0.616665980023572
0.638133538019781
0.60552808264056
0.644653969524859
0.627054034364752
0.646110196037732
0.623769234086053
0.636887014672662
0.632244189746066
0.641303357194036
0.607813174365765
0.631844901519264
0.605078702986806
0.643437453894371
0.609514784978304
0.626405879296614
0.59376982394849
0.619097589451174
0.599308490685569
0.62476367498613
0.604483679656255
0.629989803034989
0.596229570283512
0.626770848007857
0.600012013860261
0.618450156293636
0.606870983848309
0.615707837227279
0.614499280503633
0.625308281153484
0.607352341347701
0.61709381966173
0.610257794314105
0.62796108548291
0.607330570380139
0.614743675368131
0.595377056175458
0.6159066139686
0.610311460108869
0.628028451078713
0.598549845494828
0.621108001681768
0.614890662969639
0.628188363634449
0.606609553767051
0.625613627869714
0.610373793723453
0.639407168095391
0.611705371811887
0.612963220836086
0.607238605341003
0.623291894622213
0.595693745533804
0.617459795013855
0.608701234302698
0.621594782880676
0.589915147629983
0.607160739530386
0.579130305663482
0.596550635524673
0.569985509475134
0.582325856788409
0.580720679091469
0.578477757871719
0.581752392901529
0.578243712440004
0.567760069419887
0.581073767305864
0.553138379195512
0.571420772368
0.537835928627357
0.556209374733776
0.53522953466739
0.552945404542663
0.536297690968481
0.556594101281524
0.528916054935523
0.541116422213693
0.514594254968473
0.514062068129061
0.521143426345828
0.525095496935227
0.50156383381325
0.515754543883157
0.486465047776776
0.504196700864737
0.480936045003524
0.49189461720018
0.481839913558238
0.484367414814235
0.474641834663757
0.483153132255631
0.471537913909234
0.47349231504619
0.457486187211998
0.462327902071238
0.451039641129723
0.469814305019745
0.450947260485787
0.444379078968394
0.434097238448446
0.454723953430335
0.442751375001291
0.446210675694631
0.432936756220291
0.443174563261944
0.434967859213675
0.44204268302915
0.425426078345402
0.438149664046212
0.420747681679503
0.438706105535507
0.41435929306366
0.434461515996089
0.412799524173961
0.426839893245424
0.410592949773447
0.415754061179584
0.408306562792561
0.417800347533826
0.401257204547085
0.416910974574088
0.399188664541703
0.427459591691134
0.392963197826182
0.41520779277319
0.407705113564933
0.400396489146607
0.388040078539131
0.394446006840004
0.3861641640174
0.393081566835159
0.380899786207127
0.399977927752975
0.383417936341508
0.399770126497712
0.37958317528128
0.386039975507361
0.379231846624699
0.390922097141816
0.378139071565552
0.383914245058611
0.372949506479788
0.384849870426626
0.370101274387443
0.376339341729874
0.377595127666395
0.376115795178926
0.365669619098554
0.375944713943749
0.359437657343781
0.372478241836451
0.363160919022386
0.370042125206736
0.353083665943831
0.367582427117989
0.356960021628633
0.3609231825178
0.35687405026233
0.369060238254889
0.354428040686159
0.368246428274014
0.351487658796819
0.366694680003483
0.35435804482477
0.364143288451732
0.347254619180236
0.354761575283162
0.352955287746313
0.349801357528161
0.342295543559763
0.354805944688002
0.343579787739041
0.347330199532197
0.337098638821812
0.345557960079422
0.338301322868423
0.343764830731375
0.331147737077557
0.34650547696452
0.338093675621845
0.347042764411687
0.338722767545598
0.338550797127823
0.338832816022826
0.340055961165073
0.331706619019729
0.345387527378223
0.328290177587058
0.343659206251277
0.336596613475839
0.340931757293832
0.335228878062585
0.344684002841386
0.328216592237304
0.336759406253636
0.324694240968663
0.338278374290547
0.325857196694263
0.338112973782436
0.326925233947463
0.332382248204232
0.320956447098123
0.336808245149401
0.318049648738705
0.328358899503527
0.324373189546226
0.326373901269113
0.323474682232547
0.327349343174996
0.320962460237438
0.324156835221219
0.321996520707371
0.330931735661682
0.313174788053273
0.329772429034379
0.310740781250835
0.328667910902522
0.313134120286639
0.322035231502989
0.313111048104614
0.329840856409985
0.317868568813946
0.330922658475966
0.314919858287015
0.32640127052747
0.314441519666314
0.322446162015697
0.309254620241816
0.317132990985583
0.31638088483254
0.321389894823053
0.310131068299759
0.31936972683937
0.306319454614855
0.312828202404624
0.300360846853005
0.313987276241538
0.308168490357233
0.314478490038979
0.307713423886974
0.313134031556894
0.297781983206686
0.313466208250754
0.297682547266031
0.310488849853778
0.294566427629142
0.308916545269731
0.292875104091536
0.299958252657387
0.297617276839299
0.305181240246502
0.294754148032329
0.3042762347824
0.294395684016981
0.302939035984684
0.289224556341655
0.303143212321378
0.284810743196112
0.305715930390476
0.295433037065069
0.303643465896292
0.291482746815651
0.294884091888464
0.284694914643447
0.299258886103605
0.284075674752587
0.294375575055475
0.282892070696017
0.290828154372406
0.282543382935799
0.297608063333203
0.277232605043752
0.289436393205273
0.281643387952392
0.291026865215836
0.281900800893962
0.287666819795176
0.276609094249035
0.289273273894477
0.276109498535163
0.281837159189451
0.270806363471783
0.284118645772218
0.270768064357659
0.27817935869728
0.272464918668123
0.27920045527777
0.267454008637783
0.280497963663187
0.266701610413713
0.277028721313934
0.265006660601903
0.273535722976957
0.273131517863384
0.2652909496268
0.253853474705544
0.266561144649598
0.266599624673306
0.25963450906967
0.259287649954893
0.266328910084832
0.256509866966918
0.262991525683838
0.252157163424471
0.260125729206825
0.252499918778943
0.261525271544071
0.251086876724316
0.254555784953377
0.244678526026542
0.254946621724083
0.24632591589688
0.251484156096128
0.244434300717552
0.249390797464481
0.246876730953417
0.247826930839436
0.239539435211161
0.248771534560713
0.240467825307771
0.245655737495561
0.234166186823286
0.245765232793283
0.234774468727956
0.246689505727004
0.236564003651012
0.240516732635266
0.231236395597633
0.236685622736767
0.2318130626292
0.238114307020034
0.231574871149662
0.238508139609633
0.236357490199412
0.238422359013689
0.230407687062877
0.236171544485321
0.222831299060138
0.232786926436482
0.228253483770289
0.233752110981361
0.219705281977125
0.235145429451923
0.21819921339098
0.229037734627145
0.217281418000763
0.221330610713092
0.215972874761889
0.224538683125448
0.226191816521359
0.224883632516617
0.219319816983213
0.221328983828301
0.220083403371985
0.220976594518912
0.21097786596182
0.221784802857075
0.215163203209002
0.223275351784133
0.216093185402504
0.218179799594051
0.209755237952119
0.215098980645426
0.209672892365538
0.217333408887046
0.209051379500956
0.220098133598671
0.213121524655106
0.21328798453497
0.203461367735527
0.208284591968943
0.207960336104927
0.211616098627106
0.206693355496903
0.210605492542496
0.204627412995101
0.211568585797395
0.200708893385174
0.209470252974474
0.203452436591903
0.206946256802246
0.200689537677678
0.211818748986659
0.198882089088749
0.204308700736259
0.201793610014229
0.211021007757677
0.201752763699509
0.205708797275225
0.201171900196209
0.20675133152308
0.196155469397592
0.202128651040878
0.197133533268613
0.202557393643259
0.195860063108401
0.199694995514389
0.194483520809946
0.20072985035094
0.197787687088941
0.200171305590761
0.194959515240129
0.19739404421157
0.194546580133123
0.197561829347086
0.193902266533272
0.196275120081042
0.195594314363729
0.200731333946505
0.192726279513697
0.194765143494456
0.189517886891443
0.194752152916666
0.190171658014504
0.196951230417474
0.187371375516118
0.192662247912247
0.187210481099064
0.198754201316201
0.184210021095155
0.194305514038487
0.186080609945555
0.194093524880202
0.1864290683268
0.191166378299092
0.185810974009551
0.188059303288002
0.179612512549695
0.187349164039666
0.185970529715469
0.189993034048473
0.178706604733108
0.184902851392917
0.184958196778585
0.183480896185461
0.177786457686887
0.183403812204736
0.181240252729922
0.180373933719536
0.178560000628177
0.184004418549223
0.17493073779172
0.181595859681315
0.176729394605365
0.1800696172684
0.17988857794576
0.183079422508801
0.172894129717298
0.175063337898926
0.175486427563816
0.179877582704448
0.17663369515234
0.185031293256074
0.176154675057105
0.179227703524942
0.175837894891511
0.178239767929797
0.171852904208688
0.175920900652175
0.174869918896739
0.177788116738565
0.173369640318994
0.17622310602805
0.168869712885668
0.174662593003306
0.173261293601959
0.173433087387294
0.170609315271664
0.171764041736513
0.171136161691978
0.170220919118158
0.168608064814321
0.172073160806667
0.166042800504716
0.171049061065035
0.164485590325161
0.167886982968975
0.163615410920417
0.169086797917921
0.162038245419934
0.162351784406971
0.163276492440993
0.166076922694284
0.161525497914949
0.166050236422931
0.157191036363945
0.161603004841478
0.160447044686758
0.163128659514078
0.156861276952505
0.159851324492113
0.154556549435825
0.158043004080891
0.158643768731444
0.157005269888459
0.152650947500445
0.155677360644777
0.154649614245664
0.156466456338942
0.149330411277072
0.154277430578463
0.146596042474718
0.155030827648862
0.15179841170464
0.153764153634888
0.144995116862626
0.150489518443176
0.153083728399335
0.153966911051904
0.146919985141494
0.149706960423748
0.145032991911508
0.14796618020022
0.14298710455546
0.145623842377236
0.146546026107776
0.147934050085873
0.140673991342983
0.143953654095842
0.143960869029076
0.143378092664191
0.140268427291448
0.144364273468912
0.139582639749455
0.139903430537933
0.139957571092201
0.140010553843652
0.133201893127701
0.139439283988404
0.135586836120995
0.138925986151618
0.133047663947549
0.136452674190347
0.136036880970023
0.139718152939355
0.135060902098662
0.137817530090015
0.134119481757877
0.136523361597408
0.128992814188366
0.129934641322676
0.133332475974208
0.135068103659876
0.126766981241352
0.130938050942227
0.126769055422965
0.127522605668757
0.12662447251724
0.129807936137138
0.129397498859341
0.128203196059437
0.12275867409994
0.124793422882388
0.12604403828271
0.125761645233125
0.125993164025381
0.126755060488752
0.120953538230541
0.123292678531533
0.12253008594305
0.12390280401816
0.124253336928616
0.12171869020456
0.11768893299628
0.12053851490852
0.118732734232667
0.120106144709557
0.118420518381729
0.119783331316738
0.1195174752882
0.123714683860613
0.118142430414058
0.11872223815411
0.122085025895361
0.123517423744313
0.119637653487464
0.119486441901491
0.117485706695266
0.119740694542053
0.117409752529584
0.120020413272743
0.118090832143858
0.118212891145098
0.115559928856354
0.115377822927163
0.120880793189174
0.119512905523985
0.115165040291886
0.117124761132138
0.117763630400747
0.118704193009848
0.116485425964845
0.121348555903431
0.113608828159436
0.11707930736161
0.118328081525152
0.121772733963097
0.126082740191735
0.124533806329926
0.120315189423298
0.113828911100712
0.11526544363639
0.126248603426467
0.122848074082221
0.121642644298681
0.124016952360968
0.126537415606239
0.119722554839726
0.127119015317251
0.114466681406724
0.12214839551372
0.121912264745405
0.120195690695983
0.119993451073631
0.111699433367242
0.122430730843553
0.119948798955345
0.119048502501522
0.11469793151729
0.108039708515571
0.102991819982726
0.115254712521126
0.113631774237591
0.120026223169635
0.113535347757493
0.118135635333968
0.105284889618516
0.12208677604744
0.109226949548916
0.119881547442113
0.100274097981619
0.11959291331387
0.0989681647496862
0.127072079822418
0.103918317716844
0.130337310771283
0.102644950911854
0.124396297422816
0.089384981184286
0.127267835212566
0.0944112134192409
0.139630388417217
0.0942047966556935
0.128630017386419
0.0833478708894761
0.13506663478159
0.0939737224160089
0.132474808300857
0.0807140876690805
0.133770339370153
0.0943451689905563
0.11901900975281
0.0989445790480405
0.115538373185799
0.105124289915518
0.0999834550174491
0.114874316726683
0.0958626624918433
0.117312861702112
0.0944812979519722
0.120054654566671
0.0919886749242188
0.117113344040401
0.0952255602265269
0.109364606626581
0.100207169734029
0.102894034623868
0.102348709697231
0.100924816053912
0.0990364278717046
0.0999799147546816
0.0979193810909459
0.101166916876038
0.0941222541228644
0.100092581288521
0.0960004205096744
0.101088538314271
0.0939041210243543
0.103505568334256
0.0973757811207668
0.098204872815399
0.0979030261424419
0.101320752703689
0.0954085145347182
0.0973281583356153
0.0977242235414191
0.100555524144267
0.0958009380034394
0.0993354427942622
0.0950295514208196
0.0990880387000944
0.0978256751479486
0.100791131525088
0.0947846020942895
0.101938524063256
0.0952840640897512
0.0958347734134914
0.0954610840010214
0.0976642738903389
0.094620438342182
0.0991132663152417
0.095258374399463
0.0974686946820324
0.0952932288192811
0.0984428997070223
0.0981147992130482
0.10299642952911
0.0950811508466457
0.0979034272838112
0.0946518672597713
0.099917570622638
0.0953184842483665
0.098774032530684
0.0954450333971989
0.0985096549535202
0.0977784242841538
0.0968244596521484
0.096121878485951
0.0963940727452387
0.0968797372241177
0.0987204408728437
0.0945524684376517
0.0955491565135746
0.0921035627383924
0.0966676774221858
0.094965306133945
0.0986931228886348
0.0950905718267257
0.0964815179631818
0.0953871808130415
0.096342235641397
0.0939108618583836
0.097567704820384
0.0936084144010867
0.0960252910592744
0.0933879285486715
0.0981952200281568
0.0948382245428928
0.0978894444639529
0.0943237342182251
0.0967482847405911
0.0929284744116359
0.0950798848499298
0.0948956070721352
0.0982057699971089
0.0933324880975676
0.0975780039601162
0.0955091679698078
0.0966807100466101
0.0941336377304718
0.0994526696727272
0.0977141833912751
0.095568927743547
0.0954000680284284
0.0972963389983888
0.0917308190945992
0.0986309682551128
0.095401485514708
0.0998656074112628
0.0994504898354712
0.09812319501095
0.0981354655574796
0.0984438907636438
0.0968955701980117
0.0977019775193907
0.0952888043530605
0.0959967085825991
0.0952436815153417
0.0986759012319687
0.0950431852837659
0.0997251393579378
0.0997367567100621
0.101806959674165
0.0964676348255227
0.0985609195084283
0.0977428015411153
0.0974364164281093
0.0966774857913071
0.0993054541596881
0.09769213094094
0.0975338544889368
0.0959673475276542
0.10086783859648
0.0989695854141161
0.0985213096567576
0.100187843209677
0.101655986596701
0.0982060770688974
0.098114672223044
0.0992531212254311
0.0990792692293659
0.0977484241567714
0.0965251364192486
0.0971215758135252
0.10227799470564
0.0978322757699771
0.0980374480797514
0.0934726723693157
0.0985154057654311
0.101174515549817
0.100365676215399
0.0997842531556612
0.102103802009613
0.0996773403565313
0.0985079193198053
0.0989306393225314
0.0984213654496624
0.0977943140124968
0.102635914061851
0.0988529789385814
0.100537392178054
0.10214870856448
0.102134219918346
0.0999752536387626
0.101992666344262
0.101603070155301
0.103796455045997
0.102921243234462
0.101144897865465
0.101630131551772
0.102486958861615
0.101417177540567
0.105528055862498
0.105859470624329
0.10200266247856
0.100247891726568
0.104510800954094
0.10258027170193
0.1025384504251
0.102708189185983
0.102607100048845
0.102796066750505
0.101079637959612
0.102093114582524
0.102564583213541
0.100703357866252
0.104304872066469
0.100316447146061
0.103245699008272
0.100650276980155
0.100532090930019
0.10061760306024
0.100478444366329
0.0995001878445063
0.100476313044744
0.101830936765971
0.100153215764545
0.0991223775140471
0.0988073442677072
0.0997619988236205
0.0981809551763816
0.099104980370354
0.100070014348483
0.100476412558242
0.0973616269484451
0.0962889443215765
0.0976262042344239
0.0984381658698842
0.0966777725087524
0.0967559307445141
0.0992945862212445
0.0947233149090415
0.097919495942492
0.0970105389166547
0.0973010283808859
0.0961253027012385
0.0960680415729883
0.0978986445016878
0.0948496978264492
0.0941167980130602
0.0974474075091195
0.093674515327336
0.0983189281615219
0.09714788829484
0.0935138181191938
0.0951183506294396
0.0943855036678362
0.0933326173832538
0.0972722765843892
0.0974971644134694
0.0953978023881969
0.0941391191934832
0.0937175931819561
0.0929238097064048
0.0936902196680463
0.0961039177646424
0.0954012469549397
0.0944121002841357
0.0939777571578138
0.0951025229300419
0.0955571355190891
0.092770568543859
0.0922452641732559
0.0910548632412076
0.0911823036336133
0.0920295420134976
0.0915383103643147
0.0911326537400213
0.090814464477961
0.0921373708537861
0.0932318442549186
0.0930212071093958
0.0916069926050936
0.0918000489706592
0.0936751989025987
0.0916086940306974
0.0924927585490933
0.0916775780010664
0.092579659065861
0.0915480239816343
0.0934572117943563
0.0907897630029774
0.0918898498678868
0.0949852725479332
0.0927027436249007
0.0893965238038722
0.0902979169735195
0.0906069156125779
0.0891856593829315
0.0894911752876007
0.0908257050904614
0.0906169688579167
0.0886852424091456
0.0929062669190642
0.0901979234222176
0.0890549462165813
0.0927723069277048
0.0910127190092809
0.0871289641494335
0.0872998246522104
0.0874978103745441
0.0886398912063704
0.0856239308685803
0.0899656572916141
0.0884403869177587
0.0905777247965929
0.0885633763409205
0.0896413978736044
0.0909014093728434
0.0893633072109459
0.0882588580625129
0.0855946451006855
0.0871338883210386
0.0883067712204979
0.0894331867258451
0.088191814453159
0.0861882269133687
0.0841231537704099
0.0883704193298185
0.0869374631323903
0.0883977944179935
0.0874055386636435
0.0875285653518059
0.0847979037583362
0.0843989890657718
0.0836852365226207
0.0823348516632348
0.0874838773478897
0.0867023795364391
0.0816852087930692
0.0811401417753267
0.0834063988522879
0.083738588383208
0.0853387583236499
0.0812471812398543
0.0818109518274633
0.0828924476998786
0.0816845030917544
0.0822700887132446
0.0798817297929146
0.0823854139079608
0.0794949024938467
0.0817128117757132
0.0804823446864499
0.0774493824141071
0.0859506146661207
0.0805982514739694
0.0824331836255947
0.0758523886139635
0.079865351228286
0.0772554866062412
0.0785318864048924
0.0753131148580533
0.0788880403670864
0.0744315575875691
0.0782658892447735
0.0774128216945103
0.079273888865321
0.0783195019880259
0.0752252347818321
0.0747186590569309
0.0785461956297191
0.0729094081788619
0.0733978460833469
0.0759705911214923
0.0771794924198912
0.0726213954550918
0.074474119888933
0.0711518406096293
0.0744340198256854
0.0705129259709444
0.0754309320454605
0.0715471926682214
0.0740581941277171
0.0717785820822477
0.0726096156933357
0.075553399553354
0.0742739393898737
0.0720093087493957
0.0704734724412827
0.0724417984733679
0.0708913599183148
0.066889137595393
0.0697591213443869
0.0693901123902342
0.0680709514745232
0.0703357590309185
0.0717293058940081
0.0714949222598322
0.0713236448787951
0.0698216452523739
0.0711321737365792
0.0688288964437896
0.0701733152976454
0.0685834236249976
0.0709956663418668
0.0663337323810649
0.0651879928780998
0.0721162531191078
0.0701670405144424
0.0709231607585167
0.068238355992691
0.0719170676585181
0.0676629050121944
0.06844842829464
0.0684754800308643
0.0689711837084277
0.0679276537422934
0.0687904956123463
0.0664964448315532
0.0655627087862721
0.0650463203406455
0.0664722068998768
0.0677925862198349
0.066642763520202
0.0661518906171145
0.0653418168281071
0.061090087329727
0.0664000292558592
0.065291930193622
0.0657151028156573
0.0590318379172092
0.0693317680191202
0.0596353114853454
0.0613797550094478
0.0751426049115392
0.0685119248701833
0.068431515503497
0.0636757248759335
0.0669024659505261
0.0628208203503979
0.0635951591427355
0.060986545628327
0.0641285781046537
0.0635794407533025
0.0633980945104908
0.057718789195765
0.0628395171575336
0.0629971821638921
0.0639770673539863
0.0622145563468609
0.0661413278542644
0.0608720369106036
0.0661586428698737
0.0583518564146407
0.0657826858184999
0.0683826527196818
0.0641780157754559
0.064510091405262
0.0648180398184595
0.0488849778829189
0.0791093538358577
0.0645068245920357
0.0707933324864929
0.0572038612091157
0.067199533671883
0.0558598789112082
0.0673849666049704
0.0601865860350984
0.0645089814123621
0.0641486334364181
0.065674552199017
0.0641180464747463
0.061816608180171
0.0577789774054674
0.0597764661217918
0.0600174168811659
0.0626470204250462
0.0624742936394657
0.064696317024008
0.059268708963481
0.0648939217939768
0.0582875607679116
0.068910100980107
0.055227828264738
0.0611757432674227
0.0625794981471251
0.0672740458184034
0.0591914482190145
0.0658794045732299
0.0548296361788194
0.0613451606347396
0.0771182696873272
0.0614471512415555
0.0684177344849168
0.05912074477076
0.0632051185030296
0.0632391321360504
0.0638084864126131
0.0588769174426724
0.0641628019582745
0.0583093197185475
0.0624764587995382
0.0576697347093438
0.0618946909086466
0.0622088236636667
0.0608726218353326
0.0629931497558618
0.0607812102449372
0.0622119558446594
0.0600106278950578
0.0681018265135693
0.0519726534125765
0.065691442050542
0.0695243041887836
0.0692702505278884
0.0668225018118356
0.0671768794277585
0.0622185338144873
0.063632942846811
0.0618934234613848
0.0569111570764055
0.0614524255641261
0.0623854384066954
0.0639882566797519
0.0622621676679099
0.0632457142696523
0.0610334629451045
0.0651463894635688
0.0597925515321402
0.0623252456474
0.0584786810213431
0.0633374484732382
0.0566286566684914
0.0689913777727013
0.0528303708779395
0.0734787063262901
0.0595384634282756
0.0750187838016755
0.0335328911942034
0.0907532358153709
0.0788341734894637
0.0649918830647327
0.070120375564299
0.0615073575122785
0.0679777440899739
0.0588010113877312
0.0628664558207786
0.0687524388997319
0.0626139676027313
0.0607073103090525
0.0640463394067503
0.06426589248238
0.0693226986219353
0.0524899744864093
0.0576379962356592
0.0878003527214879
0.0636032788378224
0.0738405410627991
0.0596426872782227
0.0543808096436791
0.0907917362463264
0.0608771581279943
0.0731412356777795
0.0638210587623423
0.0699328093613745
0.0650418475812466
0.0710635112601166
0.0600250091018593
0.072596075157874
0.0664440465201189
0.0632279592548192
0.0652405773391768
0.0621159934686474
0.0711666352434574
0.0621499437559189
0.0711977174045223
0.0820217887453941
0.0608205365038801
0.073214907013804
0.0700122898632341
0.0696296755496602
0.0676090170566352
0.0737566423768019
0.0615478919020638
0.0701177774143346
0.0817534554952583
0.0608986623379389
0.0732484063779749
0.0797993193443924
0.0642065458892156
0.0751237342394007
0.0663516515920302
0.0891636715908875
0.0591794526342704
0.0647415208666535
0.0905350532900706
0.0647728018439808
0.097585652324682
0.0658849559447309
0.0854181322288732
0.062434748854329
0.0876612476600817
0.0518506014009328
0.0972166436811656
0.0652766731526985
0.0891758946553271
0.0639946778465509
0.082441275772149
0.0787663784896241
0.0829583212556618
0.0787989772326127
0.0782121262500623
0.0642543807431342
0.0832137153684755
0.081473921390337
0.0503010045464439
0.107682121724519
0.0868264761216101
0.0986913454442853
0.0889541262418923
0.0568029858788922
0.121365782022335
0.0780797940394025
0.0919719419324718
0.0744849526526035
0.0919174937566083
0.0779962408259202
0.0639401645565879
0.110813781156402
0.0897585428354333
0.0837504282843446
0.0981330093293173
0.0645859335528123
0.106848849138492
0.0951416935664839
0.0972523751537247
0.0826964898200241
0.102421377733783
0.0568345945262444
0.131249541718715
0.0988088825547566
0.0922562448931297
0.122426141775214
0.10020303520344
0.116282942290944
0.102934727997675
0.104896234530649
0.0960094829434673
0.118722440109026
0.108299982817078
0.0961849771177589
0.102264183212176
0.137771106533922
0.0957956058160342
0.127733026447626
0.102755620205861
0.0975117086716393
0.0983712295312723
0.162608438268056
0.137261969018002
0.132265371786966
0.104113980733717
0.144252613991023
0.12113975565899
0.129883418393907
0.122494061332183
0.12705713440465
0.125483270047468
0.120966907009696
0.141841411535247
0.131673531054378
0.135414294275901
0.139965692372634
0.117638873016109
0.137673541002024
0.145252474285439
0.189711926263461
0.121210613240348
0.18327953914931
0.152793795484231
0.159892335996468
0.150405317263924
0.147471201927221
0.157650037859415
0.159449799843693
0.16001812647852
0.144586488659196
0.177872688066007
0.1705387498974
0.149697056206768
0.207824366246599
0.155675751593954
0.188806212680765
0.0735289233677994
0.403655926539299
0.190613958140412
0.213621733808255
0.189328156698496
0.166410485699366
0.290906220621522
0.230345397887922
0.225905254344551
0.241409609632422
0.23630057456899
0.243424625440424
0.25544813935197
0.258258293439991
0.273516714239691
0.288126649617751
0.255591039514638
0.277213976200886
0.320539328988712
0.345799860669607
0.335728784234962
0.308901638064399
0.337402336014339
0.361016804068444
0.334249896127121
0.359789569752876
0.358630609052539
0.337104973102122
0.448426562568077
0.380360675361704
0.408357724061961
0.376387675274838
0.463256611521582
0.385539137336653
0.463707260525947
0.478180120906392
0.448823958692735
0.473893596863066
0.456257052940036
0.493067864285614
0.452657500799846
0.526292005265452
0.524289975543117
0.502335108790211
0.523233475288616
0.526344534007666
0.523007241661916
0.525455290586262
0.548621070244922
0.525844649781074
0.583140772125497
0.510270644217303
0.676372151843352
0.605820701307386
0.542404461168963
0.581649122299778
0.511839445703969
0.614853473581409
0.564051727203808
0.619430770394586
0.616880618245346
0.567011728409646
0.582379607680903
0.559644295880206
0.584887133150204
0.575122732862965
0.590028156302556
0.553621216011215
0.595847953337062
0.572488849614786
0.537838676386604
0.69039124775325
0.580546039503362
0.589625678749477
0.569410350125272
0.582534984110961
0.572605250563884
0.577103333335947
0.527847225459762
0.609813401237028
0.555250789689057
0.588657139264666
0.535595018202895
0.570170370330828
0.591614774863025
0.542905559725939
0.531055229759587
0.535915610502061
0.537834926444765
0.527584170687664
0.477816086848486
0.611162665501126
0.499953655532702
0.524861321573961
0.496502520740396
0.503529196786199
0.499604524204349
0.504412425692939
0.504466603310269
0.511332043335781
0.48412846399239
0.512183430785008
0.490903923687641
0.496277618737404
0.494651339666216
0.503750053577776
0.495817846167868
0.495213246012728
0.496929970485657
0.488514714887379
0.487607847919873
0.496347671123706
0.489537315785679
0.498560638373181
0.48673660824255
0.504948708770922
0.489092579081268
0.499205710329984
0.4905116517661
0.487396876734116
0.487352170769328
0.49282378429296
0.485332980329251
0.493483634738688
0.495692606818866
0.488952719508097
0.495590463785284
0.495441935288748
0.488607713431655
0.483652772724465
0.483698300999826
0.473063278397197
0.483853489614496
0.45606646741806
0.512173536238096
0.528295268885205
0.456566297574645
0.490308097629958
0.446437331978263
0.485589857717225
0.430199553151928
0.491756455622499
0.492759562457348
0.455851161895494
0.458653099131788
0.441740421907581
0.431691159355239
0.476810136430752
0.427591034168046
0.454347294038212
0.405015739294683
0.436866083435001
0.519433744852996
0.398389828750431
0.551267381993654
0.445947766604026
0.427403624801088
0.387817212724664
0.487430510401907
0.416816752716299
0.432583328938123
0.414101376011862
0.42357214583254
0.446698595251742
0.406690386662887
0.429618089957568
0.40158501483153
0.40594680118267
0.438010779951103
0.405938054998841
0.385894342459493
0.456085251690512
0.389289042103908
0.423310423848373
0.446480538001398
0.429261366805509
0.387170401577823
0.382763116299164
0.387368952335943
0.354300469689462
0.429219586037449
0.388878705872025
0.373337397624545
0.383803884242915
0.349672438220622
0.372734209646467
0.353130061519162
0.384886833792567
0.312561896323837
0.402547775796241
0.340144866080878
0.334815517242641
0.359086328518779
0.340684249918723
0.403567699040978
0.349033937272023
0.328801222746
0.322062064269586
0.385034418283183
0.328720017861284
0.341002535267569
0.327028232066977
0.299057237421218
0.351899307629288
0.314638779716876
0.30949390793703
0.33188224746996
0.292290421405716
0.337565698313537
0.340245929446386
0.345130875145341
0.31924800909994
0.291326333420123
0.304276656929978
0.296222733363537
0.306579684067572
0.288108005559297
0.271776439599309
0.337078520055001
0.256045868943528
0.340937500428941
0.312536644429124
0.299800710848131
0.306146714307937
0.304065415221132
0.296624720262419
0.315220711052177
0.332514681873042
0.335209805419233
0.289325926258278
0.34958479058011
0.321810949845022
0.335286989413151
0.324430573883224
0.342680975648908
0.327134731345797
0.353376826501405
0.353780731097894
0.358817167900199
0.355699215419096
0.373332004168415
0.34471969192688
0.431225930716845
0.367748407616448
0.402456815559053
0.423791758842257
0.424643705898105
0.455592029223646
0.415402280944692
0.436207705651639
0.430490867330318
0.451118905267224
0.459155353511417
0.426120696445729
0.504815650320553
0.479332315849226
0.473878460225304
0.478593376181585
0.48859596284142
0.491516177828696
0.494321691936483
0.517668176317675
0.492437224813306
0.583813278779565
0.501846715402827
0.536423114614223
0.511281325110577
0.524100122474228
0.521315030021715
0.517611472713706
0.537018662954634
0.509761105327206
0.541931888444419
0.539683941302271
0.531551572591297
0.548461880837247
0.535024706004075
0.547108623922696
0.54225176633905
0.558922758137244
0.55931278631466
0.553159501032057
0.566472524611112
0.528058594488654
0.634185278098425
0.607875600700787
0.566303861584956
0.60248810868241
0.5729254599742
0.604447750945435
0.584281705584656
0.605102976850134
0.625146918961182
0.613660011987341
0.618911645143348
0.615967799600727
0.628229411859075
0.627855349465878
0.653280532006372
0.635139633619148
0.626057679078727
0.646218374292011
0.572114316542129
0.730570167931756
0.62723335787341
0.683384387778915
0.666081134265311
0.653767142275672
0.659564395048585
0.672042706459286
0.661903164711962
0.674934091437832
0.664289876940894
0.668213450381859
0.6691800945338
0.667223852661037
0.669165989694422
0.660189969698595
0.692955828033517
0.682052567610504
0.661097940124432
0.684601151044899
0.67294813260852
0.670666932232225
0.661113574611393
0.698478283116366
0.671842212852777
0.678275439241311
0.65709603315371
0.684049969834113
0.686727877276183
0.671886649856229
0.665413941962841
0.683616166881929
0.66116307515222
0.678333619763575
0.645695668923116
0.711271768786834
0.691755845403044
0.685129111784033
0.67701067681596
0.686289318047355
0.68571062670401
0.699722436948587
0.693579809190609
0.696904417271732
0.692303246062344
0.696034339361797
0.703856063293486
0.690430202651878
0.703249788674598
0.700322538121024
0.705161107311403
0.698714424212013
0.685502495756665
0.70844614162392
0.6899915605641
0.703103196239279
0.685040518481782
0.686755187908123
0.679770840024426
0.682135169370222
0.661870633779906
0.685538351870925
0.67483193275964
0.646471081334012
0.661615191994298
0.632521323199647
0.645926926861109
0.632424298272149
0.634302246029944
0.632089897329186
0.628684857961949
0.617696009070109
0.619248024248568
0.616685947169889
0.61588569806394
0.615986199834449
0.620226968180205
0.613093260959483
0.608302787083656
0.607649934425604
0.599710726531926
0.609705052092242
0.607445890949896
0.600420666312052
0.602838667736981
0.600842512117022
0.615308178271476
0.610246740066589
0.612983121855509
0.602038607979917
0.620780746484871
0.598828965312548
0.603244066496498
0.600996283823111
0.599376836388443
0.597874491912864
0.593197473737136
0.602020355458662
0.600983484745114
0.599083137679988
0.596371477014245
0.59726634520423
0.602950079052851
0.599399482773669
0.595299658412349
0.599194646625927
0.590478170548636
0.600528040523623
0.595894728650814
0.60006398690156
0.600057380843573
0.606896649004725
0.594602207012882
0.598960752494371
0.600487999099069
0.60469313966942
0.599787137373558
0.590027528685868
0.592642731308098
0.595903750608637
0.596014050470197
0.596267475504429
0.591925115399417
0.594679405142199
0.591869641706443
0.592703128626653
0.587504856236305
0.587438359166237
0.576781864833498
0.574408717060154
0.570277420521669
0.569816478786534
0.561852594909244
0.561164399806053
0.553056414387241
0.548630386137969
0.543416505473796
0.542677827514255
0.536352990609009
0.533246083146264
0.526946099530618
0.521964523213886
0.52977637839382
0.528481476911742
0.522787170830776
0.523442422378573
0.519889928267438
0.522131835919072
0.521603730581158
0.519721643872128
0.514258936358753
0.517353849924619
0.518824981702295
0.521050405877664
0.519087647759442
0.52372949947771
0.524494332051179
0.523835948390928
0.524317885653396
0.52774119815202
0.525969676447118
0.537403313151507
0.535071091161998
0.529598003327726
0.535157455212982
0.538813737968993
0.53750463654523
0.54326751738202
0.545453285427316
0.544211277380756
0.544709624503901
0.551116939157995
0.551059611527361
0.548791959850468
0.553578104675676
0.556729398371257
0.548173204060578
0.549977356027013
0.54915290249998
0.551914743041604
0.548774163028519
0.548295870489732
0.544737106053032
0.543479892027688
0.540448822850312
0.538684630194415
0.537456476316101
0.537879649474124
0.539894284261371
0.534238273847752
0.533640816540819
0.530823523820294
0.531180172357675
0.53100783845607
0.52872098845605
0.524935215549536
0.526510372275343
0.517629108430792
0.520758472578749
0.520154114515218
0.51193408544859
0.518714800855526
0.515373150110309
0.509703044338726
0.511731541725502
0.511291212245114
0.51027736814624
0.50818456392509
0.506568844896158
0.502322189151399
0.500545300230403
0.502069431738155
0.496026924779398
0.49519972113678
0.496047580690882
0.492413919218957
0.491086923453512
0.487585794055903
0.48420712562939
0.481240398403618
0.477497433670541
0.473012811563784
0.470086014719114
0.465052392433639
0.461473080226163
0.457501118849438
0.454692878480681
0.449893402132255
0.450762396717286
0.447238014396646
0.444222182489813
0.447662164792614
0.446293975486698
0.448307642026797
0.442260488885767
0.436722626867033
0.43962134343283
0.440834805679193
0.433597511547215
0.435870146145074
0.427822434278508
0.427097566382765
0.422203371566419
0.416313798024855
0.412862345306713
0.41161583211003
0.402524872381659
0.403849497523279
0.392408582326895
0.391991342505572
0.390864962733355
0.389106567309846
0.38662757853393
0.392523527295506
0.39511878413823
0.402397710263212
0.409981817176245
0.418919400189145
0.428286559239734
0.43610239687048
0.450853610498698
0.465344814473253
0.481426444454494
0.497681200313548
0.519178228569531
0.541390509635136
0.549187678635124
0.567506387816771
0.585442775042304
0.609501293062945
0.623997756159106
0.635762536872032
0.654462609395107
0.673723041563413
0.688216288180249
0.704682234490984
0.719242944374836
0.738056819101945
0.752274737825051
0.765163596902176
0.776447742317267
0.787118665410223
0.793354915694335
0.806163388336207
0.818433937777463
0.820145150585031
0.831374586552068
0.836785797111544
0.855354649785382
0.84593036958111
0.851636959888547
0.846474481144214
0.850090691119731
0.851338328400809
0.854798106238706
0.865719054273089
0.867016995566257
0.859546875188851
0.864147965516093
0.871837028353409
0.867564029753112
0.866378154288989
0.877747650118315
0.873924616433161
0.877133126726625
0.883325489966181
0.897057326266889
0.903315484044103
0.893845082360868
0.913539967468089
0.915317027009007
0.920937931758279
0.941672010340447
0.954444247636065
0.952393483519266
0.967862343142894
0.982716874906418
0.998051042183524
1.02175763412872
1.02287010256869
1.0420318221973
1.04411854192973
1.05499840661285
1.05657574160065
1.06907028759527
1.0676260499172
1.06011108791555
1.09029186621148
1.09251237797821
1.09188251515434
1.09174422796592
1.08310450856344
1.08992989492603
1.06805289333449
1.07346047081535
1.07174251580627
1.07343212997655
1.07431584287562
1.07144866287237
1.09550509164571
1.09258780918789
1.11222417414729
1.11724494267082
1.14698075088925
1.14382170135273
1.18424912469806
1.18519598937405
1.20891920630872
1.2258071233745
1.23746250891125
1.23856810288382
1.25779923659604
1.27013702923317
1.30649902072954
1.30195032563908
1.34157106038864
1.3056889006146
1.3608744344802
1.34387634311311
1.39410997512932
1.4284136623049
1.53157274192956
1.46455192444772
1.50229119465508
1.51497231077315
1.48354640726506
1.58775296634176
1.6412198575875
1.63538380587003
1.66683682465153
1.69229562973841
1.59916494884847
1.6851805242455
1.83112071358632
1.74276295723285
1.84163062173656
1.78006980656132
1.69793720175934
1.81808919076554
1.7725737886896
1.71685428536546
1.76550017920923
1.74315326442655
1.72676127408422
1.80246530957727
1.7920482671262
1.87516297305428
1.78587962715659
1.75673126473537
1.88718721369682
1.84154109677308
1.69620766838042
1.67747023895989
1.79795795960779
1.79628642780622
1.77020291185457
1.79730724101329
1.87066884298262
1.89653118601386
1.80217872426315
1.86936948445574
1.95406499698927
1.87307207967384
1.98526773666934
1.84476864857602
1.92053815104227
2.03406050344707
2.10473234956898
1.97828187386794
1.88295391866123
2.13838910687846
2.07081524394807
1.82169553498818
2.25198928578892
2.04113486108927
1.97993084801402
1.95161501372807
2.0761429497784
2.05051596161114
2.05588561266253
2.08368004134681
2.03922823792437
2.09901915159287
2.13782847006527
1.94418273005779
2.47904643475322
2.05760116644168
2.21716438797036
2.00470553245948
1.98538138662606
2.03606950361374
2.46139396204637
1.97410527550706
2.12275938543961
1.86768250238209
1.98381710122047
1.96058078460192
1.84792100447073
1.85714066972518
2.02933714943788
1.87703086167806
1.78254068473739
1.70723671540625
1.76911827497125
1.55836479344594
1.74525096717878
1.62831792742151
1.59998499923321
1.57141931124142
1.56124618397023
1.48524319000543
1.55985568135833
1.53471601177925
1.48005373549764
1.51473226508692
1.53048653369096
1.42566273903909
1.45892960501264
1.39159848677327
1.40000155936851
1.37190499573491
1.34289679737676
1.35158500790234
1.35464246343216
1.30599339111151
1.37900607652336
1.36102989724907
1.30133249433972
1.23501791747586
1.22832066479983
1.19021444422155
1.17394150683752
1.16768155581327
1.12890338686374
1.07829693700869
1.04858959371014
0.988480147849211
0.969252095682696
0.925708005285878
0.87994999833377
0.869399151883147
0.817188393049833
0.770920967854395
0.762309766155761
0.720485545240576
0.699010678113425
0.671558989285141
0.653861877462588
0.62986521700565
0.605752292208585
0.593877875814166
0.584474257692319
0.577974620473707
0.563009809287101
0.562029465717739
0.547995964092201
0.53200960163225
0.53308464736237
0.530477822926044
0.534271496384806
0.522293775987751
0.529459093816792
0.518020913569367
0.532021861424142
0.528522701556728
0.536765102233055
0.53961362469949
0.540569602035728
0.535017461537197
0.532074551569117
0.523089581191098
0.530563549177313
0.522260062058731
0.519934181930004
0.513520932672693
0.509761841524064
0.505182481499216
0.501380255607764
0.49398073722463
0.494076996812668
0.483882437495241
0.487128543872043
0.478798304971186
0.484209904634611
0.488516734269647
0.482525564779849
0.486878126960169
0.491026992880115
0.494096579207115
0.492662830029881
0.497032322222706
0.501752108707108
0.498304664754864
0.508465967260975
0.519360781997854
0.51620478936118
0.513074122840116
0.519526219389789
0.521701811720371
0.538847779586391
0.529033556736934
0.520224746698068
0.524609972476881
0.516628242824476
0.521180663978847
0.529548591814327
0.538395691849162
0.536161798656496
0.521407228696114
0.547099214087514
0.534055668987515
0.546233856074474
0.55108072088997
0.550669731336423
0.551430203022855
0.571719637338614
0.584219552128236
0.582978775590404
0.602403140002825
0.624221931714188
0.623728766903551
0.665249844553094
0.677892124275808
0.689921126226552
0.692266690507402
0.705614051079052
0.69216365833986
0.704567628505061
0.694814676663369
0.675799461306877
0.683914213221703
0.667314965384816
0.65536282467951
0.657332386007596
0.623390888935044
0.634199581291861
0.607330692396088
0.614107369595341
0.619594028406066
0.624854871253061
0.625071355384219
0.617461639193925
0.630269567675841
0.624866324545289
0.62526707375775
0.614043277129331
0.606212013380341
0.615771154579358
0.610669933001391
0.637201866338783
0.58802373458536
0.591041888225692
0.585885810624301
0.586334522003848
0.564339985584211
0.582719103592465
0.566088918368316
0.554841488321192
0.564554522614655
0.572292861601816
0.558074104332165
0.553245357001649
0.542411146791786
0.538462246511827
0.546301189628194
0.552240774658412
0.542105449073635
0.550731612553667
0.530085222628224
0.532463608030955
0.531635320501767
0.53273503556457
0.529983875304577
0.504028756437567
0.504052365924024
0.51936364456406
0.509560226423579
0.5291377835926
0.516704085937588
0.528884459042749
0.496029647421619
0.505832622067174
0.491744789703184
0.486943536578856
0.485613960556362
0.48872987506483
0.484959611066208
0.494027997925603
0.468305790024828
0.489597952089041
0.461786186080434
0.492223684018866
0.481120032027875
0.489183595801272
0.483312884251299
0.4846817287606
0.468352574785446
0.478271733156337
0.464541259450522
0.4814888878892
0.487232591562104
0.489438835110867
0.466746648012611
0.483820933525347
0.467109615783708
0.484815110718578
0.472334121126625
0.504126371956502
0.481092233531506
0.501604133919378
0.494486741724913
0.498507159677657
0.502530995026674
0.51623113653825
0.488216270862385
0.525903825247842
0.495730734893519
0.529392207868656
0.510263324681915
0.53603268273082
0.522288586708916
0.57099696164657
0.523989656940207
0.580548192890328
0.567049250469433
0.595950034740847
0.550331498240027
0.614684179424254
0.598436765654522
0.615769876856952
0.611455107367577
0.647046017009802
0.652114224222692
0.691085167401056
0.69752178935385
0.719721935469966
0.74366766471052
0.77394582292037
0.774095341101721
0.817487356886866
0.747178685633658
0.788017299069751
0.859603527133263
0.872453996366357
0.794679814581146
0.828016777729025
0.795746563331589
0.75414773599006
0.778192827244884
0.866770908019174
0.812573566412589
0.810204279216562
0.774407324474492
0.855250601044829
0.810771390792213
0.792932364954806
0.803373258220979
0.82107821023212
0.800835045858591
0.800950951856285
0.760524862323206
0.85649970122841
0.720697130431759
0.786885567047416
0.724295334053704
0.76355334494765
0.790259587341543
0.800290919073521
0.745945440230304
0.768267194341139
0.721835027314837
0.744561991466623
0.71636381231666
0.754847375695261
0.675058729411726
0.720180883746001
0.702586243606701
0.754678774241457
0.70621260605362
0.698698037157846
0.694569776712032
0.746457451530284
0.785439268332715
0.769112987382044
0.694700028764768
0.696717756208069
0.688205444636349
0.791660848316029
0.678264011412799
0.732193660535825
0.740022207766565
0.75438300221128
0.691383614616767
0.721066619992183
0.695630304340883
0.792813090204174
0.724166867438551
0.744686133418799
0.741212657753097
0.815199010887176
0.730339344015641
0.733489501830877
0.715979659060708
0.82814365953005
0.750172298139836
0.842373695817293
0.632492531401849
0.788538811910591
0.740245978590269
0.841215021424665
0.78404048389949
0.766531934075015
0.861828180608941
0.829886626400884
0.747400830930318
0.79907045198005
0.817312801430791
0.967640952221817
0.803336606041681
1.04318813716899
0.999688068704519
1.0876775265077
0.952570984459226
1.06494755960866
0.734229666792432
0.850662856888951
0.965658359324306
1.08602228870457
1.01870316789787
1.21992495509075
0.927091407300227
1.2855600419988
1.04837397364556
0.944767263943231
0.858500317993933
0.872314073547916
0.901493744141897
1.4689192263669
0.77638137141862
1.08392039655278
1.09197861927285
1.05875596806102
0.855604787056094
1.00494450870063
0.786565180362648
1.20612720768739
0.931792683096798
0.98750438603378
0.872309888172435
0.964184173234341
0.887072025932674
0.93051381276696
0.842857126897551
0.916788164740446
1.03472726968212
1.63235258125268
1.04010359349446
5
0.883104240026131
1.03963994259197
0.637898876650832
0.750311219743451
0.984379889298682
1.60355460595081
0.806544069600436
0.766729695711303
0.83771187675997
5
0.880019726725121
0.705394234743312
0.847498927916104
5
0.989657073710844
1.03717384984428
0.84770611515396
1.07911341637965
1.00604123460265
5
0.96625328389365
0.709888370157266
1.15616551111681
5
0.755015409882258
5
1.40010635184436
1.55810313141983
0.739482387908477
