3596
4000.36533379555
650.420452594757
1
2
2
0.076814372457618
0.0726949133783837
0.0712650780731231
0.0609893478387127
0.0919966487331179
0.0705648335093894
0.0938431147338632
0.070176037492726
0.0767182086961987
0.0690399900720966
0.0842472939917804
0.0715126392932686
0.0836383535648479
0.0660636298420568
0.0839687058518995
0.0670633849172408
0.0747950757657986
0.060550299620186
0.0862307037145475
0.0632709211743439
0.0813174550609863
0.0735541083229538
0.0903483398754801
0.0606658204411628
0.0784974445811432
0.0735945324602413
0.0763256082339696
0.0541845747988628
0.0896345806705185
0.0620060660626232
0.090680689170658
0.0739450075237506
0.0887462476669341
0.0681932307226144
0.0886844302906255
0.0679613594411715
0.0765484208617841
0.0639742747372764
0.0826153167349578
0.0658465859268756
0.0899232270403055
0.0665286004432063
0.0753040517148982
0.0583737715527014
0.0756681091666317
0.0770018793643726
0.0790235880858255
0.0710374340320769
0.084028439995891
0.0658345800166046
0.0866629696393782
0.0579299374130037
0.080323722384969
0.0634367129306175
0.0754932623395892
0.0722795961113513
0.0807095561365907
0.0717647608927232
0.0778736602210772
0.0427972829889735
0.0926764555410401
0.076845676125901
0.0857816541803817
0.0744781948605557
0.0838730066215647
0.0576474361942574
0.0677760858138615
0.0562720214237276
0.0654517898685337
0.0547645883762537
0.0611156940109079
0.0762810474039947
0.104845607433651
0.0669274962042381
0.0722594830223842
0.0585015988622321
0.0776578422834925
0.0621913867162553
0.0682812709692706
0.0619219056182802
0.0766589531996639
0.0664240067640271
0.0746158733052123
0.0569879988254183
0.0720088177324001
0.077562245082183
0.0708211974409021
0.0485594219366249
0.096287189110126
0.0754411077074199
0.0739063828615196
0.0587476314021068
0.074213228260899
0.0606005797418324
0.0737269334917389
0.0647117738970665
0.0787418786454649
0.0578234334917026
0.0740857145320823
0.0502937434002274
0.0785386553251043
0.04981242697496
0.110400381054775
0.034480123686634
0.124830588975363
0.0829156116522222
0.0558139266493195
0.0819559362961009
0.0984875075488369
0.0624420394158679
0.072392936770907
0.0548950240483403
0.0754919043459202
0.0558080211648014
0.0553321335687034
0.0606433891080134
0.115984565658193
0.0716659296423239
0.0683260252463307
0.0525721974253346
0.0247673051477568
0.0489752825845617
0.110359389686948
0.0589617899988433
0.0883784125003907
0.0513076900432972
0.0447163317245679
0.0835113845960334
0.117273368459382
0.0614872988839019
0.0672332469053465
0.0431541172905286
0.0607998638463162
0.0283641989648843
0.0932159236212871
0.0658544844714409
0.0692175013178009
0.031649891829509
0.0856695989804977
0.109384196567348
0.095911305562512
0.0559838069445116
0.0469631813718145
0.0379300411487403
0.123338161007013
0.0690719426308323
0.0566589662732888
0.0607688854279878
0.09552472141925
0.0491083262630175
0.0731378154390267
0.0386359492824403
0.0894623538940195
0.0557968407074355
0.0173629930382156
0.048887923754263
0.133243283791618
0.072311390298058
0.135099282200524
0.0619293724120827
0.0872082082385867
0.0623385514385119
0.0707903684222881
0.0405761358620106
0.0657199736023486
0.0386428363945161
0.0747075898217026
0.0847508479725879
0.0585797039548369
0.0345237300438558
0.0939132224885537
0.0546392517791056
0.0462520043840473
0.139350007014631
0.0840892449656356
0.0253830609355217
0.0842753766864711
0.0627913994709824
0.0545999155672381
0.0539668857735729
0.0971216789952297
0.0607415049766668
0.0754873281432471
0.0441326156718971
0.0651719231977662
0.0654686987097154
0.0802513405302887
0.0626361027265074
0.0712825686653129
0.0139860504928111
0.0717931529001999
0.100552399666788
0.0989341105753195
0.0606451568780646
0.0660757483034636
0.00246641615332572
0.0982729393419605
0.0894764586048292
0.0776564065790159
0.0491214314469957
0.0705453137424479
0.046449645426322
0.0578396766835142
0.0584331743798842
0.0542729462080738
0.0112934825839997
0.113263369097338
0.0781984483345029
0.071828753442508
0.0413150805188433
0.062382028915663
0.0101782733984188
0.132488611905127
0.0987528761131989
0.0733424249801383
0.0532944796804668
0.0539406192274258
0.0517851042441489
0.0928279519054818
0.0635575347895055
0.0782090417793228
0.0534736985259279
0.0750701052126683
0.0547272568340384
0.0712899911537383
0.0615758190925753
0.0695062527554485
0.0475380313666294
0.0636038514490477
0.0582006252615527
0.084112924928473
0.0566040369593932
0.0801869902784297
0.0540150612654444
0.0534871272037544
0.059254495335255
0.0948686299784298
0.0612296770005708
0.0700429199001701
0.0486657137086648
0.0581080303628341
0.0544803029304384
0.0689425981470857
0.0539617838060666
0.0566664841650256
0.0377800107486183
0.112595004806318
0.0620011575637864
0.071132067676113
0.0335163551118146
0.083216240824062
0.0707766842696947
0.0821106801982175
0.0588800826381304
0.0848225286941184
0.0346302276799551
0.062343470725594
0.0762077375802334
0.0767072596575733
0.0385857357177051
0.0861552040150888
0.0668594060734223
0.0821009976643026
0.0287552406979995
0.0350627822702402
0.112104479713215
0.0721642054420116
0.0165164244525694
0.142783399189998
0.0827192288220697
0.0930942908660867
0.0416434418893718
-0.00481019082107192
0.134438020758281
0.132019203105861
0.0585466625942062
0.0728373393182173
0.06816970217719
0.0713381177461412
0.058354892006056
0.0759486729158859
0.0586229152805013
0.0854806852668804
0.101699010674234
0.147560524107588
0.0278086888359934
0.0933922264642627
0.0826278530029713
0.0794281340981079
0.0625892767520942
0.0759638660602666
0.0449488027539936
0.102959910942492
0.0774568380609842
0.0969648426836883
0.0595067257197826
0.0828624580558385
0.0991707532716268
0.0944439057139539
0.0557321578869521
0.0820508655687076
0.0677627790751065
0.0741213247025404
0.0777769375618747
0.0676402646045822
0.0754971389002212
0.0621885459105602
0.0268470204343694
0.133419033193861
0.0632090897099194
0.0640483943524076
0.102258048504876
0.0842995545621287
0.0675876276307687
0.0763383840404644
0.0642653865276028
0.0827538681524144
0.0497846301315123
0.0647587871384021
0.0950956018665178
0.0938420993559969
0.0725463414676581
0.0777558809633031
0.072338930519003
0.0815391756835133
0.0772558528819242
0.0807093640630353
0.0740181597551785
0.0873909160434697
0.0448081507061643
0.110106731784993
0.0885566417950735
0.0670724020317297
0.100653240272842
0.127662099137476
0.0757357340491914
0.0949876432725229
0.0743552512784492
0.0954754560920178
0.078107915117532
0.0919666682871385
0.0643093108142494
0.0913089304223148
0.0988467909404523
0.108782365886225
0.0575099489712633
0.0655689961894192
0.110628098516003
0.167280658346483
0.109817657392762
0.106218211572373
0.0547978447046833
0.126120223424128
0.0972872996369711
0.126875990813592
0.109625781623785
0.109199477885941
0.0917643023491809
0.107315980269174
0.088071419024777
0.115065409607673
0.103519645722254
0.107892062989401
0.101508111437864
0.107833143656233
0.113660606213473
0.105244519628538
0.0856740131596763
0.162206727167966
0.125088155908184
0.129032387716991
0.106124333174692
0.110271928237229
0.113007486018834
0.137758586897172
0.142708590936446
0.144620146024939
0.129885643574554
0.171225235589879
0.124239827749873
0.148382623942239
0.123450763971132
0.140983145686281
0.13473935759698
0.152996803009417
0.135899754376986
0.141017345323353
0.132425414112583
0.160649076073272
0.141381083494863
0.151741042390062
0.128865696281289
0.186903200584821
0.150501861669844
0.178621061040997
0.134828369313388
0.16595099217955
0.184793978010585
0.237819481820066
0.158674804584677
0.190772248729119
0.175346425045042
0.184230116246042
0.174656644377136
0.196606227674823
0.171822883052258
0.192459136559513
0.195861788804871
0.221113958386296
0.209630839094206
0.229853758913851
0.180027325035088
0.225552207178147
0.197435603130494
0.213626393151398
0.237586772819944
0.24383732474624
0.175749412100011
0.245693887692564
0.238435682477081
0.229663677438812
0.225290922771918
0.23479153568535
0.220654109183955
0.258126093891269
0.22749659260786
0.251375883174906
0.248829788313765
0.265862156336147
0.239903654871477
0.27886448705406
0.24650257341158
0.263758394848185
0.267306805829342
0.291474117773501
0.259273380632116
0.309226686690595
0.28146853709963
0.299097282413114
0.244437697062434
0.317472648792792
0.284251647921016
0.31203097765684
0.303535034405497
0.318877930695635
0.300704408094512
0.337597623218272
0.307801181379136
0.338103244124286
0.315149997250721
0.341316588787987
0.312711033522344
0.342523927767403
0.332246223658712
0.341514861841822
0.32056060978785
0.362300244769833
0.337558405528634
0.376105752282171
0.345775391242446
0.366178404576327
0.352884262136319
0.40268923341855
0.385300968099438
0.440633005719906
0.39273796887793
0.399718955854015
0.367198231851511
0.409459645905579
0.386898161461642
0.419502704430256
0.401090431605821
0.430867777338032
0.408810285867125
0.451570477255144
0.42661570801081
0.445197677608912
0.436494884701804
0.452623906949489
0.430844438948033
0.485255013176253
0.453464016619199
0.484998620834473
0.44089061734823
0.472232756557932
0.452782037248432
0.492478966144043
0.463212803438342
0.507443243014649
0.45995004120156
0.51869272908888
0.495798629764616
0.512433991237971
0.495800236602065
0.540588446863553
0.504840150702961
0.548295554366639
0.524154084397614
0.558860397069783
0.547965929189948
0.576507911512926
0.524913367624915
0.588979417472755
0.531319940064203
0.557562061125905
0.585473852234165
0.593897509657408
0.561734135801617
0.595692952513605
0.569424563235222
0.64481016879968
0.600691701588844
0.647249941509769
0.589320656456003
0.651540619433388
0.650222384946505
0.669213452344463
0.620247426075131
0.651806843483032
0.574522160039906
0.654847519360866
0.615276648378667
0.727258348313492
0.707643530099995
0.677801251043796
0.640089794047314
0.688982346369062
0.639133186953956
0.77048520227567
0.684018343829561
0.729249102468877
0.696723518031659
0.7419666802463
0.706374190955653
0.779085955884946
0.682564002709497
0.746132399375324
0.711544673972341
0.748531056469214
0.725101135296901
0.79371156625703
0.729224002130669
0.78069061780053
0.736309340725398
0.843259976683035
0.798165757043213
0.854600117812798
0.782903915549226
0.864441529781432
0.747267899789598
0.81229725068378
0.809625359786809
0.89430337619421
0.807234905130607
0.933437775912774
0.785853631914899
0.856690669692389
0.825678874039763
0.894072061675591
0.811877742176182
0.902220478681996
0.840839526294555
0.952247986411828
0.914447148202203
0.913014726624527
0.86767416219021
0.913692797372677
0.878220239667708
0.900582965688578
0.837777381554871
0.916478056092077
0.89454238741831
1.06294507425844
0.874619808569968
1.05183543045651
0.970602713468678
1.04052508728381
0.918580303588578
1.00991479665477
0.865128791267669
1.02701405419801
0.97824528181323
1.01387866653084
1.02540780661257
0.962148407262855
0.914740682924311
1.08561285909383
0.978036940015066
1.0243077852033
1.02066695035652
1.15580707231682
1.00360578475377
1.08254394520916
1.04484864415359
1.0610912450599
1.03790481583805
1.07586227729909
0.9890661506565
1.08660685960681
1.00699101794601
1.18594456989814
1.0241531126248
1.05211821972367
1.02777540633842
1.26032208309205
1.11503501317776
1.15970450853861
1.03962484445894
1.2410202896468
1.09287142152811
1.19623843789472
1.12629027622074
1.17946971440697
1.1350597446932
1.20589037020983
1.11183394639877
1.26699829904113
1.1190805775021
1.28469758525779
1.11817438744987
1.17883988565247
1.15236265305179
1.31170669490115
1.15281887202096
1.2489467015529
1.20373339884014
1.27513362052951
1.10566552597312
1.17774915432906
1.25825063174778
1.36445353464996
1.24844292896039
1.20906083250155
1.18182867196812
1.55355168077409
1.11336618082026
1.25603802325089
1.36557922338479
1.34441782985803
1.07901966378853
1.17273799420365
1.11636866246565
1.48081913620695
1.20824681547898
1.23432441818776
1.28350043904282
1.29562333040605
1.17594070668944
1.23986788945133
1.21350181483158
1.4087269860318
1.20880446075773
1.39878813840369
1.20494724769774
1.25456559269803
1.47124972761448
1.50123350817696
1.23964228917989
1.29727684792992
1.24912091957738
1.54699177175156
1.34717979095211
1.33128603253302
1.31763285504156
1.2984664606032
1.31933769811237
1.43086279059829
1.22919238258535
1.45363493768542
1.37539257402837
1.45349412701717
1.2457063390913
1.30681064149688
1.34249058834043
1.44290734413466
1.50765804802427
1.5464586103549
1.33260438662126
1.43539581501886
1.28333824038633
1.52289408945069
1.3425855769613
1.39288562995936
1.31919365652917
1.54964794910726
1.34940890177174
1.45351320073331
1.3361122759544
1.46992662260087
1.42058640106511
1.47009999745912
1.33511310812216
1.58016981683474
1.37267460366957
1.44232527254445
1.46661955405996
1.35674098158215
1.39765790023652
1.55339670861502
1.43918301423844
1.42247629719845
1.42747242479609
1.55930614436939
1.42508095254826
1.46420485788664
1.57164797529347
1.45918784049457
1.51247983129305
1.60650114263662
1.39505621675035
1.49229263578624
1.38019915764441
1.36449484023128
1.34717114954897
1.47831417789986
1.36651344367936
1.45310680371194
1.43411484003619
1.52035708345999
1.39396426419189
1.49403797478691
1.42927039441372
1.40385653117374
1.3879670573029
1.40840991984571
1.36246646924997
1.5183367204063
1.43001890977762
1.56385136867441
1.31551445351788
1.49192817682601
1.47082290916691
1.4490140230335
1.38775947447757
1.5658493380433
1.54268481207841
1.53124519484173
1.44937531720241
1.60473882707271
1.4478308802325
1.45989557515328
1.36220798567468
1.40576283295488
1.36673284561844
1.40498960789703
1.45875919593578
1.49780492202434
1.47966701683207
1.48377070115837
1.48375527845855
1.49508708545824
1.39445900611511
1.52095538613342
1.49658803391149
1.44957274907233
1.37774390271689
1.53606382428866
1.60011302977876
1.47082186100469
1.31081713138205
1.50884625655581
1.49330317241821
1.34823418265275
1.40628306690244
1.4484408007222
1.59159069859647
1.45533078904795
1.35306241082357
1.50695130195147
1.4445168601771
1.57794590926413
1.49910440774889
1.56230252001931
1.6150613994128
1.51376312342547
1.45435397683466
1.58043040145827
1.53208008681463
1.48954962075224
1.48022333869496
1.46406912992965
1.45773869000771
1.42544816095879
1.47382979084459
1.45499255153041
1.3294746046701
1.39055713735295
1.46771865515874
1.50814082534673
1.47564578463534
1.46139077721848
1.31667997666308
1.45381318295964
1.47951417605997
1.39615839077145
1.4758598795645
1.58456847812435
1.62482821392817
1.5057175575472
1.3976106698841
1.35590597447281
1.37899721759718
1.46912131671936
1.42208465102759
1.30665682582466
1.34357650011565
1.39738474743242
1.34365740158174
1.3932886486607
1.42363488255789
1.40817251529557
1.37163749240846
1.4129895705507
1.39860996764328
1.41011122303613
1.35803646624123
1.29156961130791
1.26352403052947
1.45062679225287
1.4538378142352
1.34816320406679
1.39288215000227
1.28563725751004
1.20198590042208
1.29685664298861
1.39549993862356
1.39916010202813
1.34580165654543
1.37818317844724
1.37904903002518
1.39252260310837
1.34110139570179
1.30263732456132
1.31803524175431
1.24232274443761
1.33966087082568
1.26374129193599
1.22394849753696
1.33688439224541
1.40061905618837
1.29212266624275
1.24524650700973
1.28153082394278
1.25336061805265
1.27920353229733
1.27231446336008
1.21184948953089
1.22135670712191
1.26136583170633
1.18389493670293
1.18420989677597
1.22870594467694
1.22979772457993
1.2452789619577
1.20142759989732
1.1637182476464
1.13444192250951
1.21842951840612
1.2143234678213
1.22723110298008
1.21280591559847
1.25783900500145
1.2554691939934
1.17037341263716
1.23842830261735
1.20962024033291
1.18575247127386
1.21005392654001
1.17798222299853
1.23267320233776
1.15794076376522
1.17834735151477
1.18952609016923
1.14196686624554
1.16830711758306
1.13838925108335
1.11612819312138
1.0909246599165
1.11239536718901
1.16903409191831
1.12159220632447
1.16379580476199
1.1487923258434
1.09096431026385
1.10827153294868
1.08179717988845
1.02498386802398
1.10023592005293
1.09420799722151
1.14359466488315
1.13157760189975
1.07257710607329
1.06369028193348
1.04950738308659
1.04471359255446
1.06131283998139
1.07124209202858
1.0853072305008
1.02193168985166
1.01528940465269
0.990809372163418
1.01273931140099
1.0094097960536
0.968549915057479
0.98826183839536
0.974101822504691
0.970445922836995
1.04454580916546
1.00711246852869
0.996350658881031
0.999844994632325
0.98770829270317
0.976001332048817
0.995059010149389
0.99490589015239
0.974009541655949
0.958430649790165
0.930875437273403
0.940356413733094
0.940963346584947
0.924772499539428
0.943549963952699
0.941818224287282
0.93716708760821
0.925389619641264
0.93561366024578
0.914263159372319
0.922896793883678
0.90006702994381
0.892356198276499
0.897278836295953
0.895123379349644
0.872029073086961
0.89355831923416
0.8752741517003
0.879116211778366
0.859577127276485
0.881722326981064
0.870896867193736
0.861800680271069
0.843160049540156
0.862988312396772
0.851541140452192
0.844315416207641
0.800232839505384
0.806291671689081
0.817040154686343
0.826797953821281
0.848118437148296
0.84068143703622
0.776421123738835
0.809503063607332
0.812165329387875
0.819510581630679
0.791210767374435
0.803267908822589
0.784763851416301
0.79566509942634
0.784689742887178
0.771819792251682
0.780246339209913
0.770919945426139
0.74528638868618
0.757695177729893
0.773883352597372
0.800577658770452
0.769663885226767
0.762890015682541
0.759333743787381
0.760572477406587
0.745480811247454
0.750619600754257
0.722634183623369
0.739777365288154
0.724510327488118
0.738646837961824
0.727959324324671
0.713126324679455
0.710146701136804
0.73650873463207
0.698703594916351
0.706076362518445
0.704424665190775
0.70693308305036
0.685327745132917
0.714183920796309
0.692792557831793
0.688748582632775
0.685648532882926
0.693072032558601
0.663439306534719
0.689195005393174
0.682625796248686
0.682433293858909
0.661270549045763
0.677937485777826
0.645500111291726
0.653884046694225
0.648920062280513
0.667073488969551
0.649957086533866
0.658382870503791
0.655491946697963
0.650575464224179
0.636907934023402
0.656466453801428
0.630039636379751
0.632853868863858
0.624545270984821
0.642729185307742
0.608389757627508
0.620835899820699
0.624258802921605
0.620832062818853
0.602277224915485
0.614604271192558
0.598160836513994
0.607114263911829
0.587542672682886
0.597353105502014
0.587166253874221
0.607937439234536
0.586795899193771
0.606242937684534
0.58627757629398
0.577159077067436
0.574360189348228
0.583971175089907
0.569408117634709
0.573385311330204
0.562310804458093
0.576504526116116
0.566473621318851
0.564165044020287
0.551249173143148
0.566085437811105
0.536911762550564
0.549415513403816
0.544576703980465
0.550463417221107
0.548868597407054
0.551468321706247
0.530824179867907
0.541307225381952
0.520206519147429
0.544292300728823
0.532190731595202
0.536016986920201
0.525772166535717
0.531173420549732
0.508171294877634
0.515336815338889
0.506906890621178
0.507177958995062
0.510217904253368
0.510215204668474
0.499406699934428
0.510126836544417
0.498003655411259
0.510240084212999
0.495049944661545
0.504820006108275
0.491177234369944
0.503500336251603
0.501713134608949
0.492457811120161
0.477229186914667
0.498789108881707
0.486466865528378
0.497066231209924
0.479506069784685
0.497727539670319
0.483312815047621
0.486601603428531
0.470779639662867
0.489284359895843
0.479806554981932
0.480324154015667
0.483669022986604
0.498246760964258
0.478063755457723
0.484906612422929
0.479868053174307
0.49606977536024
0.4668499239198
0.483207085294347
0.482474389452988
0.49138856413256
0.489350487445831
0.492406621233038
0.488822959735167
0.487904015471501
0.484416563718141
0.501929709093258
0.490334407985499
0.499558077430869
0.503367241256327
0.517134143410877
0.488138605131269
0.518772384738587
0.517398837816487
0.517074389586604
0.500253737452772
0.534852228104195
0.511855449779594
0.523377751081823
0.516149469712406
0.531934525307805
0.520679465287046
0.534432937692077
0.518918517392414
0.552369886958728
0.54327172053887
0.551328799027088
0.546195502644173
0.55007587347115
0.543606962360908
0.565978233660142
0.548334904919181
0.563227880207288
0.547733833398592
0.576891274497004
0.577378585759807
0.571741157377562
0.550993735116138
0.58158410995473
0.584771054378566
0.594748002592713
0.571806889545017
0.5850618677364
0.575868884608706
0.596595972079882
0.583702102739648
0.608791309920888
0.610802074786103
0.623662916520426
0.607387271370466
0.623668700299302
0.615014433107649
0.647295137095272
0.6272630601845
0.644568791796652
0.633563366301532
0.646167179309755
0.634101465645482
0.657972281885339
0.640712855647025
0.647176897220372
0.652164009411363
0.670172860194302
0.631376180014063
0.667960804626684
0.648754348451415
0.669808897271381
0.64379158615837
0.670986762253409
0.657702425676494
0.669760907107493
0.663184374477625
0.681216686029646
0.640031531887778
0.661463358955028
0.647965290237054
0.655453653967524
0.638325474317724
0.665806536757388
0.639487886095403
0.6647449353159
0.644663053952543
0.650333622027951
0.635356183781964
0.659543259890896
0.634775388809562
0.661686752914012
0.62875621644964
0.653524955462573
0.650958642700134
0.66565355117722
0.644188808731813
0.648453098432844
0.627293150071473
0.651453463366575
0.640812072648917
0.65610013781117
0.629171146879938
0.650042139642584
0.64827834230467
0.658560483076607
0.63615319813865
0.663004217753286
0.634728629560576
0.650857854181011
0.656648502171765
0.650607130038283
0.629442499137132
0.661526956722614
0.641281023812832
0.662592530273417
0.626014905699285
0.640247724934057
0.634890422636704
0.650579948527629
0.610403852430344
0.635297473198485
0.628257569358191
0.633786593502676
0.625629104319062
0.641078033023897
0.617018676486871
0.632302738329575
0.604997348976045
0.637632562404116
0.603783063778235
0.616402541168252
0.610324137165572
0.629760374582205
0.588560170457377
0.61919907173812
0.59626555010824
0.588536945191332
0.587467687313722
0.598370278206114
0.566662641748205
0.5916544508515
0.558941890685412
0.580557213440027
0.564382482538527
0.579253081706172
0.548379411418345
0.561715038319698
0.54392731766925
0.552769439017552
0.530649380630977
0.545802901429212
0.513448915077398
0.534383874885466
0.51177196458976
0.519388976122622
0.522219912537161
0.524804922111579
0.508601185803565
0.510677103714348
0.505669568454929
0.509019037641393
0.481498251666761
0.50635468748687
0.475479291633504
0.496438162888877
0.479132988472848
0.483989595661872
0.472000167431762
0.479197675925064
0.461239531463447
0.477877384891365
0.461942042080001
0.477245815559782
0.471544219555311
0.459441204979388
0.454458355990638
0.467340023463194
0.444477120198169
0.456640731069378
0.449565616693866
0.456285239385479
0.44053795563919
0.448658901767633
0.435809935937152
0.442587182060706
0.436467361755552
0.441716395195676
0.427680450283183
0.433368387735619
0.424954500234316
0.431605748391985
0.422783371307273
0.436171548355712
0.417867176322687
0.424444009448441
0.409869706734356
0.432411760146326
0.4190609786737
0.412786757565635
0.415194903501327
0.422686626909979
0.412473776152409
0.421486790188786
0.395439145517323
0.417744473755569
0.404908679988905
0.407162767736376
0.401908906037536
0.404654107983637
0.39516632506934
0.406645236076178
0.409221519644315
0.395828562622502
0.393408910255734
0.397873919476576
0.387482806663978
0.399183656687074
0.389561463024247
0.393134022512306
0.386527422224129
0.39315497306448
0.385577222658233
0.398743594146578
0.374871154905721
0.387188092416876
0.374709479292101
0.377323480779555
0.382321476650761
0.381144659216854
0.373426225513863
0.386220997447198
0.373582072355941
0.380200737286745
0.370768351156181
0.38107055309765
0.362708403750891
0.382753636700302
0.369270498734211
0.371350923063883
0.35734388532776
0.365062059366245
0.362614541258482
0.374922521254718
0.359020146459823
0.378391307524325
0.352801173612338
0.368035976460838
0.354382904994742
0.365139582997095
0.357940091631037
0.36247236132919
0.353166817434587
0.364881253197964
0.35591351690625
0.364506556296282
0.344912733552477
0.361644300946352
0.343588370283101
0.353349904089187
0.348646051763519
0.349549823806628
0.353873449012532
0.362861447259848
0.345920410858691
0.35651300354166
0.342708535807928
0.358807705568603
0.343403337243808
0.357194434059023
0.34585866052118
0.356838926278023
0.34234574823847
0.344247397732831
0.343775359604574
0.348814401799609
0.337037732367397
0.350860564711256
0.343804674926996
0.350287517354541
0.333675485719718
0.352865372283548
0.337830427646918
0.349412601107295
0.338595110380429
0.339919742707735
0.331435842000857
0.343438200095571
0.333677587466147
0.343670782740396
0.336615899819784
0.347293738911276
0.330247811658852
0.3450301765923
0.33438900252598
0.343260142750236
0.329754228394642
0.335182767568585
0.325791902596591
0.341036788078783
0.316220898299084
0.336169417428968
0.328676390151632
0.335650888867923
0.329664984377621
0.334109840470703
0.318325104061789
0.335306816271209
0.318122409518535
0.333620850621837
0.316869082456751
0.330758636790192
0.320430991436738
0.328874594073293
0.311325254976435
0.329548498368035
0.312332738521995
0.320674923264639
0.314031284957979
0.321503121783328
0.316984337219855
0.318052839819886
0.307838131977939
0.324264910799966
0.314426308672717
0.327408641369775
0.307878311637691
0.325588276084161
0.302647046906085
0.323257785413333
0.313531710722354
0.321754728195894
0.304316545797205
0.309781238538604
0.301911512908023
0.310874593252968
0.304184013859317
0.311947480410206
0.301771472760182
0.312081707605747
0.307639617129222
0.314659768477879
0.29138857921999
0.309464001933256
0.296140802935099
0.309998739641879
0.295064025227658
0.313627767930161
0.292561927580305
0.300736284936753
0.289638088771283
0.296544122268748
0.29380713640436
0.296910570933135
0.285944055717106
0.296272035373348
0.290642939302526
0.294733798454271
0.279559058555337
0.289824082095734
0.288074924036076
0.285532822108125
0.283224614501023
0.285943352116508
0.279480676905786
0.285466592842425
0.278918951766128
0.284148881024321
0.277704851619087
0.281400273449236
0.273640141126136
0.285127495464821
0.272970304048868
0.278570543286204
0.268474007590095
0.279156411052352
0.262698563603615
0.280919582530378
0.265163292436219
0.274366651938479
0.26179833468419
0.270948561378378
0.260809368513931
0.272826647773509
0.260044073216183
0.26792081530278
0.260842173502997
0.266445982695789
0.259619720207127
0.273853462285607
0.254498991342722
0.267274797868182
0.25856035856129
0.26606615350802
0.259211776706641
0.265660065312075
0.253743807659796
0.25965133702678
0.25138838533557
0.258134178132613
0.249594507755467
0.253143167519482
0.250156009392223
0.256196146335218
0.253792478311635
0.254352869914691
0.2470615770447
0.250074157305623
0.242410074312027
0.253427169946265
0.241074209873627
0.250086948959732
0.239152375249125
0.250127789805803
0.243715676694507
0.245084182131989
0.239208339196565
0.246390594634782
0.24151243543031
0.242743985671326
0.24418240315355
0.243070373199584
0.235295205010496
0.238728435197955
0.232609408796478
0.242604926896811
0.230369508892784
0.24474638405392
0.232015226362544
0.237745362361871
0.232171736060262
0.235259650725188
0.227536858522098
0.234096265614352
0.228942904609758
0.233911745636694
0.229044187226901
0.234665696619322
0.230873591445178
0.232389981586984
0.223885780668918
0.2335252185041
0.223998225828217
0.233480618932917
0.228843069899964
0.229890303995855
0.22946488857574
0.228045258478827
0.22552039649369
0.230511235402155
0.225395214587629
0.227038847301281
0.222653499458071
0.226998467722486
0.223584494853271
0.223606124157934
0.222722215009987
0.23112305048915
0.226674159338376
0.227049521819975
0.218393719098702
0.227512518921916
0.218125540284501
0.223857344357544
0.216223452306512
0.21945085925374
0.222442157835564
0.213832538820091
0.21689396392974
0.223123527976125
0.215040291429471
0.222230961168295
0.216343709652448
0.216575161317691
0.213583566392914
0.217640506396819
0.211352232315893
0.219029211895188
0.212113686408069
0.216903733570869
0.209040806393246
0.218810910431253
0.208015788220221
0.21641749187385
0.212175651837053
0.2123978599942
0.206719924421152
0.213194909059003
0.208426113337638
0.212509828402182
0.205852440766617
0.209753623378765
0.208252768217217
0.211859126651845
0.207879496914852
0.211392268884713
0.206651952048945
0.211805054096394
0.200714358038074
0.207971171573323
0.20282168689791
0.204587997591883
0.208477817238169
0.206094458838747
0.203681348725249
0.208564227223047
0.202308751181648
0.206928938970588
0.204344524961068
0.203451045624574
0.196677589881588
0.2028548880244
0.196286453397602
0.199632302486218
0.196112198791404
0.201778356108822
0.19949653060436
0.202114966448958
0.194577466483223
0.20074202037466
0.198049774515093
0.208559653819121
0.198989610383814
0.2065817567872
0.195388742973805
0.200096559488084
0.19394767175223
0.195526636161845
0.19584087238749
0.196732451251904
0.191317147021166
0.200377003597088
0.188865075675039
0.197259861853589
0.194964945837565
0.198018162105718
0.19387460866594
0.195528585244613
0.191119684121678
0.191961844516792
0.192352576015358
0.193140126045464
0.188590508125693
0.194267642507857
0.190088627623135
0.194575765404728
0.18652994038083
0.18711535051186
0.182145052910038
0.189741858602856
0.186523245937709
0.184613706078056
0.182954986183933
0.188517826010436
0.178860521452003
0.187144979106211
0.180789517334474
0.185291291434686
0.179902914948236
0.184053069300339
0.181275615861261
0.182813370560074
0.17591959029108
0.179578848098425
0.176813933985887
0.181135504053901
0.177226093223769
0.178482378662519
0.178689433020933
0.174757328060362
0.175246423207418
0.178558791088292
0.169893197694159
0.176856480523717
0.17344146077446
0.177101648426088
0.171994194074846
0.173122196133231
0.173823219022782
0.175840313573072
0.170497067309421
0.171905793463542
0.169092054166083
0.169949139119296
0.166435528106644
0.169585197369827
0.170164293048849
0.172031471872646
0.16661041568659
0.166767072520153
0.164185125822493
0.169786901696023
0.163426009899137
0.162077012034604
0.160761815822866
0.167653171423866
0.167572679590049
0.167934121541005
0.160506724423066
0.16136483199087
0.157158878947442
0.159571511185775
0.16071760846975
0.167315781413524
0.159745100132947
0.163480072844377
0.158546362637228
0.160745473422868
0.155163397067822
0.159781228644682
0.15605073109837
0.156658511193569
0.156766207489875
0.156727045580601
0.153786825928828
0.156661215031637
0.151811327998622
0.15294472398703
0.153075191294674
0.154168810367978
0.154205448082454
0.152966702392064
0.146458050097219
0.150045128112746
0.149352223621639
0.151870806759958
0.149018474664084
0.149983358312349
0.146616779936501
0.151798554965143
0.149179198727807
0.146272494464621
0.146789822097897
0.147591822591153
0.142884944109864
0.146221826058168
0.14538330929343
0.149289295277366
0.144000161869885
0.145957345870649
0.145346638197153
0.148001114835579
0.143782067502876
0.142433632055493
0.145203121478836
0.148485054649259
0.144348912545559
0.145404367772639
0.144796642663829
0.144939072226749
0.142115330926616
0.146798831901729
0.143004671661508
0.143487017855718
0.143548555249644
0.14399979106218
0.147200271394216
0.147260408279949
0.14264215467313
0.143167603325844
0.143111311916127
0.145444999260173
0.140377636695817
0.143790439277032
0.139763534299744
0.140166757053295
0.144236256871408
0.14680492641282
0.147127732308135
0.151337522346955
0.144758216736798
0.141191011137544
0.143293516491018
0.147979568301931
0.147304783105777
0.147279741782825
0.147411212246165
0.143939286366914
0.151415819865094
0.153595343114769
0.138956279680253
0.15353446870659
0.146893908282503
0.140078853431024
0.14323781080578
0.135954667883274
0.146199365047053
0.141055298327186
0.141759180952587
0.142742362568874
0.138533378360115
0.131689571270685
0.141016018907529
0.140536379542122
0.143801469869503
0.135993170982374
0.140356566612766
0.130094080877981
0.146996956809418
0.135091397939157
0.15126647490267
0.12740564084809
0.147728838452862
0.126023264369887
0.147453882050773
0.128294192488425
0.159081159800605
0.129201794355569
0.154388462074046
0.113061196384979
0.14938207760956
0.120343921323276
0.163770844053475
0.119669292903931
0.150213075618593
0.103032042901047
0.160976168521839
0.122577915217293
0.15666362206309
0.107119396969337
0.159443162310202
0.116516672234773
0.143801665293701
0.124437123352885
0.141029682640158
0.131849936210468
0.127701274474215
0.143847132442181
0.120328228554414
0.140798053381194
0.117289479725873
0.143281468734708
0.118472466229148
0.140955590776971
0.121628054312409
0.136169416726062
0.124625360164019
0.130184249652506
0.128153560276784
0.127960253552606
0.12448438595815
0.12340007480705
0.123214717769663
0.127345525750791
0.122289133303372
0.126574980484876
0.119544468962355
0.127092093172578
0.118688065229361
0.126040870750548
0.122306583433123
0.124161737739066
0.123841876817878
0.128353052261321
0.120708223862023
0.121604620211305
0.123999312524356
0.126993901702108
0.121845838433486
0.122478178325895
0.118601790937071
0.124777477067611
0.121357589368757
0.124692070868416
0.117582939615305
0.12487317186215
0.11776770007634
0.122564443997132
0.125290767707386
0.123158404834058
0.120639821499264
0.126568642428273
0.12297838236641
0.122575808318007
0.118331818173645
0.12328023068361
0.121873959551327
0.123715759839532
0.117840637450442
0.120522819594275
0.119085761382341
0.125460852107227
0.118297474601967
0.122616174125898
0.119312396989634
0.124886908144968
0.125077591941147
0.121738490287978
0.11904981625843
0.121378357044809
0.122615522937451
0.122960674305081
0.117666376154543
0.122481645765338
0.119952826387418
0.121557418318349
0.119676389267798
0.122342942664261
0.120436298737049
0.122253207082578
0.118626808220726
0.122578119220652
0.119835659341603
0.118081689848923
0.116123546005029
0.120629076417132
0.119398492249285
0.121843633655915
0.116453709727688
0.121605440311905
0.121734191585096
0.121510203850634
0.114718198318047
0.118288869248781
0.116662784800284
0.123186144078585
0.119861273455675
0.121372339297686
0.116240978424873
0.122859445169773
0.119289479143734
0.120838128475784
0.121166620013174
0.118959731350532
0.118918885820832
0.121278349343435
0.117710338463224
0.123796620694056
0.12105692155722
0.122546844561679
0.121166347986199
0.125833516663671
0.123879928959691
0.122039411021712
0.118321790608526
0.120068702789735
0.119190147165998
0.119079437503686
0.120390773183946
0.122878820519405
0.118550798105802
0.122350215159551
0.120290986465077
0.121528819982563
0.120000440974239
0.121431529574304
0.121189862367821
0.120827279577208
0.121858302866443
0.124454422420767
0.123683951523503
0.122199238835085
0.120984831995144
0.125825668347369
0.123354410900682
0.120693103272404
0.119407570303775
0.122574745663348
0.122350409980012
0.121095128592365
0.119746591778831
0.122496199874582
0.122960919519269
0.122928319851512
0.119969412308995
0.125178225535825
0.121916123742265
0.121762751256135
0.120051995825869
0.124266712959564
0.123458453744044
0.123879163458135
0.120527067928902
0.123957917569114
0.12470082973522
0.122715973754898
0.125838426729745
0.123012708958756
0.122969937790506
0.125635548974887
0.122028934303978
0.122249248549499
0.124401969393062
0.125486176227118
0.122366844594045
0.124834571623483
0.123769623496577
0.126217780266863
0.125281125569375
0.122652677332212
0.123897524332631
0.124569671633083
0.123580180360231
0.128148432565485
0.129322109886191
0.126758037107014
0.124702241169757
0.127899830861251
0.127740303977882
0.125477454789733
0.125577228836921
0.123894255949475
0.126148371844793
0.126987007032789
0.123234464313511
0.12428950103114
0.124220574067311
0.125847999889182
0.124787912546542
0.126813042887094
0.122867780765634
0.121887215109297
0.122524282976396
0.123571918148392
0.124280049204371
0.123155313477791
0.12517478410472
0.1227099226273
0.122885276397741
0.122532369296976
0.119992629361567
0.122802910425711
0.12374402610893
0.120989175366875
0.122765449643175
0.123043494681122
0.119648337901428
0.120954510925895
0.121719015786178
0.11966184488067
0.122882517065188
0.123989242769156
0.118400804836308
0.118907014249248
0.119536494785794
0.120511207771891
0.120377988193808
0.120644863764068
0.120595960186018
0.118779412980621
0.12005842498045
0.11956920930627
0.117126410528565
0.122841426472212
0.122829226304285
0.117531045753352
0.120383356014868
0.120692100903174
0.119812792925246
0.120968194921164
0.122782646994396
0.117432687062199
0.118082159823661
0.117293989332146
0.119467339134268
0.117898542311181
0.120670060735493
0.122337167854397
0.119978370119834
0.118112903185958
0.121501584840524
0.120519947280848
0.11812027161743
0.11797257936501
0.114566812879994
0.11824623415483
0.116114605466679
0.117938141924358
0.116311120255823
0.115649703470351
0.117321659447867
0.118229532818656
0.117692170546087
0.11614899286255
0.117170134358433
0.1157089067313
0.114562894609652
0.118078406576249
0.117325261537664
0.119058048018153
0.116537413183556
0.120383869316831
0.114068157165151
0.114559514799578
0.118456826563094
0.11808224843761
0.115006231616297
0.114462885493947
0.115541097997461
0.115336692411812
0.114987061865338
0.11382671843718
0.115559647844202
0.114557913714912
0.118237387511835
0.116926083701908
0.116280816776564
0.117364156254366
0.114411418759923
0.112983878660742
0.113688330765779
0.114933421623459
0.115399272540763
0.113624199529873
0.116703260592257
0.113748032829155
0.115934116718181
0.117179382658413
0.117856007228381
0.115566653614618
0.11740479250731
0.113964981806615
0.112992075136028
0.111261574821002
0.112709580170379
0.114261149557238
0.114067351523032
0.112899275168419
0.112358342000291
0.114526148500562
0.113038335923285
0.113528731215831
0.111170067957753
0.111065530426732
0.112207871794108
0.112118321138252
0.110175619353079
0.11135769350164
0.111965487991725
0.110251421425318
0.106331876533216
0.105995158987224
0.108562164229738
0.11092861070259
0.111057388237203
0.109272574260681
0.107883557658105
0.105771425105165
0.108068597024189
0.106899971194264
0.106629435314521
0.110314652055119
0.105517470544053
0.107865422919529
0.107774251106737
0.10252805445589
0.10816246206311
0.10588582766795
0.107761569726794
0.101284141056348
0.103427208736051
0.101703906022363
0.103140902873745
0.101499253530821
0.104058943375223
0.0986453932170069
0.102440478501998
0.102749175306393
0.103866800955416
0.101948103928835
0.103643326316363
0.101553105856877
0.102449857532671
0.0997526949230327
0.100669069205471
0.101034064369037
0.102581604836915
0.0992412373448883
0.101409564861548
0.095948453624791
0.100643439681754
0.0969954027948075
0.0972369343178948
0.0974626595297141
0.103427809661603
0.0977918846591786
0.0967588614171555
0.0987231849707421
0.0985707589269637
0.0978766207928527
0.0941879152019011
0.0977731117704863
0.0982061557820107
0.09467074547476
0.0967912433948721
0.0966215853275036
0.095524033609939
0.0949182682236135
0.0974824822120979
0.0958439032208154
0.0969030031290776
0.0965167175803806
0.0982298246137797
0.0941643873828041
0.0975984548568573
0.0940187895229123
0.096897713877614
0.0926226627752507
0.0921968758783398
0.096405798234511
0.0979779428841232
0.0963933697709732
0.0923264907369891
0.0952698022535538
0.0912754483830705
0.0963616666999089
0.0949768120603466
0.0949189444680276
0.0917942265105886
0.0930010719568221
0.0945595697090219
0.088373972026436
0.0918866064604575
0.0927922025153395
0.0915633200295271
0.0946256890698937
0.0896161541571365
0.0918980149161294
0.0902570360006773
0.0926952248915527
0.0886237231394992
0.092090850521851
0.087227466823485
0.0961920711734964
0.0878221774868789
0.0911248228042486
0.0993312922203676
0.091963609879962
0.0910989474478161
0.0889650175615545
0.0918194317028894
0.0873667192462121
0.0900667152373712
0.0883271442820442
0.0867358152587394
0.088530622331211
0.0909874832639602
0.0859336108671509
0.0889693071924119
0.0867291550445385
0.0886795087252736
0.0870813412040724
0.0908124783282486
0.084972430974523
0.0889438996329319
0.0829983167658479
0.0882401749642888
0.0936999168911418
0.0902058533021327
0.0884285528527311
0.0901159068443899
0.0733365295383726
0.106782915621998
0.0888429559086322
0.0953940518632481
0.0802131935980678
0.0945468364944457
0.0814449320696638
0.092316986693497
0.0817863703860618
0.0902668336388764
0.0900461295105887
0.0851604488016192
0.0866863467065015
0.0829306756291339
0.0823902957726213
0.084080226381616
0.0862809612228
0.0879987424375719
0.0848666953997116
0.0860712862297882
0.0836487844473006
0.0882729415609324
0.0801266562886599
0.0885315616940977
0.0805001365233549
0.0861537392600115
0.0857282424734824
0.0893468859491186
0.0837779061082782
0.0898505111496871
0.0768549870828105
0.0850922674670705
0.0991038761661956
0.0858510969064393
0.0887101387180254
0.0807779354089304
0.0864246090625065
0.0852131350774991
0.0847958303085155
0.0837468364925824
0.0854482557184406
0.0836461151806318
0.084511033333004
0.0839212245726936
0.0849676624025205
0.0831884443305138
0.0850447607454972
0.084905645020309
0.0826952629300577
0.0854684892423806
0.0812001881276088
0.0919293520555865
0.0750135449503769
0.0860424085793276
0.0912754693769507
0.0896693706265349
0.0880823899757766
0.0870627314142327
0.0833041665610253
0.0854454267605609
0.0847349723997111
0.079842654307845
0.0847572163622053
0.0836284555673323
0.08527765287931
0.0831642398104617
0.0843542633587602
0.0809613500179321
0.0858009739250301
0.0787774800041181
0.0838021521415722
0.0802161423922299
0.0845175458533423
0.0778179690024832
0.0907896894727508
0.0733119101074788
0.0915684541880511
0.0810756703706892
0.094502271601203
0.0524774175599626
0.110620712167624
0.0945533310726996
0.0860131158632178
0.0929741224074857
0.0799005311103344
0.0890682568810534
0.0761039473448143
0.0816187476903155
0.0873012991354012
0.0851349639684966
0.0825653426847643
0.0832879536713429
0.0864966157033955
0.087006514472207
0.0763599928130295
0.074126697558612
0.10980910449557
0.0830063895190225
0.0946756058609565
0.0797167448442504
0.0760728181137278
0.106183278542409
0.0792679246109318
0.0963321435499578
0.0844468656712617
0.0893606922020069
0.0834986022929195
0.0899746433704941
0.0792892753904535
0.0915970035943136
0.084949118762993
0.0807134143990504
0.0843502589510722
0.0831672382658013
0.0892042286152581
0.0825610713775029
0.086775029569393
0.0979169794393653
0.0833912951675951
0.0921389038686268
0.0904691656168778
0.0872353474574641
0.0887786928110561
0.0953961576187044
0.0824904583405544
0.089604173744921
0.0986110080057361
0.0795858857016208
0.0925227154536437
0.0974561451464095
0.0842439660967956
0.0925390062850149
0.0855196600174229
0.103666150608734
0.0750681203813845
0.0870132573258937
0.110790352124951
0.0842024245057524
0.116825247641111
0.0799016169836314
0.105038310453801
0.0814695956981457
0.106140656989342
0.0697152206728483
0.113902516414772
0.0817382332105143
0.102606128405647
0.0805269891340593
0.102593155176775
0.0939811629133522
0.0995250419942541
0.0984788001420135
0.0962592149775162
0.0849353135303461
0.10256734898194
0.0990508372862596
0.0690594443747736
0.116562596237311
0.104040731211212
0.117201887108663
0.107861777601785
0.0748002018543973
0.136871535385526
0.097731086540187
0.11199312786812
0.094284898563662
0.106667819422898
0.0967711736476599
0.0825944969745278
0.126289831880871
0.106882278166808
0.100149278202095
0.116760175631593
0.084448162051242
0.126060807264682
0.111748590649459
0.115485664462301
0.10444410098046
0.124616039100916
0.0739145205991795
0.150811325317916
0.119165533872529
0.116098571699017
0.13655371034794
0.119164907997553
0.131768446852166
0.12063597369878
0.12501969985443
0.115577553360361
0.144140194709687
0.127771422292316
0.113868814563061
0.121865988009643
0.162127052566034
0.113685366047702
0.146449151573783
0.120081162513756
0.116557938191278
0.117214879042606
0.184768766740255
0.157708986341191
0.146097992466807
0.12307364422617
0.163090115406766
0.135661635887684
0.146724304061323
0.140435874949863
0.142285738440649
0.142941976025927
0.140897724086868
0.158297279240074
0.147797812001797
0.151036517845172
0.157078156876904
0.136814190202954
0.1547243383105
0.155410316974473
0.201849090130129
0.141440587452013
0.20307731945322
0.170078750074023
0.176222989348828
0.168176946799697
0.16673319394058
0.178564926923765
0.175508606517681
0.179539177307603
0.159626074590167
0.194165079978041
0.189157151647068
0.172410800331686
0.224926806882274
0.17866124671473
0.210301889643795
0.0932444806885702
0.390199758737272
0.218819840968113
0.242527255077465
0.217752134799864
0.191481686702733
0.306963255724312
0.263526183357423
0.255257559473818
0.271066995923931
0.268585758719091
0.275639791417483
0.294912722945897
0.289516030677126
0.306796123370707
0.326824206552525
0.296976283922469
0.301825681305108
0.357187581988606
0.378227158400254
0.384295115478554
0.361805208873456
0.383986564738668
0.406857422320346
0.388393787613248
0.407278635414034
0.409058610242287
0.370050341519818
0.517876485440178
0.430028316654435
0.463908045937292
0.438819257972923
0.514318820081222
0.43741532750033
0.516642093726775
0.538867554484717
0.514051947854321
0.525598547843625
0.513308174293367
0.56527359957933
0.514772962747438
0.59507714987303
0.583778989154945
0.585009647293795
0.596291818037469
0.598426446517944
0.597174975899995
0.609290808638549
0.625133581076417
0.594011664208829
0.647836231040993
0.597363614432564
0.789522086889503
0.697538448053755
0.60968340106596
0.661891851639994
0.603573604833842
0.708205680721444
0.628873260775846
0.68005234521868
0.694491003557681
0.644720889744788
0.65202605194074
0.648023894258565
0.65409676680302
0.636664436599597
0.670758193727109
0.633672719712621
0.668167913232086
0.666707271166745
0.635538290547994
0.780504808687523
0.642547414971137
0.676954976273077
0.652888458287883
0.678844008025936
0.645737136472928
0.654205323434703
0.609887317187556
0.688390275487528
0.620675360333338
0.660067834505359
0.600519264210282
0.642672395643199
0.657656622854315
0.626935150492634
0.604924980393864
0.592827363761878
0.596995722807577
0.593867326343122
0.542738794850818
0.657784602554467
0.57196729169158
0.580620588773846
0.552264527850401
0.573165277470969
0.551029114471968
0.561582860611614
0.546617921660717
0.565900462549254
0.52569574185891
0.563681664910468
0.53371555266707
0.545829933647552
0.533522046492944
0.558055384374367
0.545181019807989
0.538894313297943
0.539585519535116
0.541624929516503
0.543127765136501
0.536394530834837
0.532774803936861
0.542751412511071
0.538793501055998
0.556910910362164
0.530846466927058
0.548751648439731
0.545426304932684
0.546319266256706
0.543032896504665
0.539209575645027
0.537472671259718
0.540469463405713
0.536472575021069
0.539407553987877
0.544597544688894
0.538789862504727
0.529168973285375
0.53728444045031
0.544707261153053
0.521909687791805
0.535070189302746
0.498013258409891
0.557839796857463
0.592464579066375
0.51921183983046
0.547678340687287
0.506786063293626
0.538809323929225
0.479626598890121
0.545121543435576
0.553218093347766
0.513717375116823
0.513241114059995
0.508471627498291
0.502967167543715
0.535469674667758
0.490202226731742
0.521024001460046
0.473025543624203
0.492899073958997
0.5695692538979
0.439323971890163
0.600662184731287
0.518902656060771
0.492793157494153
0.44948974040192
0.56546159435387
0.484686547650395
0.507068859861428
0.482152787454181
0.498483068480906
0.521479357640548
0.479145195231549
0.503278123948317
0.478070231801159
0.490453536955276
0.524756293157071
0.486385984061902
0.462480321593498
0.538956679367406
0.467083881611923
0.472162885500821
0.52251396539864
0.504778829803546
0.460326878369257
0.461021774104414
0.457404931654249
0.432879134962024
0.498572750720173
0.457829367944372
0.446288150752858
0.447998686636281
0.416661510364655
0.447818155808348
0.423956061031938
0.45455097136834
0.36958528178799
0.465884134549289
0.410375822686417
0.416793245095478
0.417604949968806
0.404310936543726
0.469851904856719
0.408160077571077
0.386482564492031
0.390657044442117
0.454998854373011
0.39543585720242
0.412148588906201
0.390629492198602
0.358089406627006
0.411996773514699
0.36912057025281
0.362876189224518
0.387451068509897
0.346797250188283
0.393579829608056
0.370547854753269
0.38406073382723
0.375328282550113
0.341979195150705
0.351513393836117
0.349575006340003
0.350985146775714
0.331719629931528
0.323628223980758
0.377819633847536
0.295299133821394
0.380506750944312
0.351009191907221
0.340221283509607
0.345025044517387
0.341049188858862
0.336514742797345
0.357390133668852
0.370523581571689
0.371612720666995
0.327143821371278
0.38877659158439
0.35344663889696
0.369068046878413
0.357915230799903
0.37426204869262
0.362565555427988
0.389425830460359
0.392736073474663
0.392082056531523
0.390987231356148
0.408858080452869
0.379481625412228
0.466183944260965
0.403656141323442
0.429873541622906
0.453635498671505
0.454158299781119
0.493907460196252
0.45819756017302
0.483247087810909
0.479730345336077
0.494513874711088
0.497676708986055
0.475242360328509
0.555129604723694
0.517940330790425
0.522980324282969
0.522699626797961
0.52788395204802
0.534077164995392
0.545176673773974
0.563477047393627
0.503335709951862
0.624914162810727
0.543099352314478
0.575066484453019
0.55767053191385
0.569919549273127
0.57864627520707
0.564773353097701
0.570864691146588
0.551521378449061
0.594889750750225
0.588542271906362
0.579753852602439
0.597761070245068
0.579120481580509
0.593525467137567
0.595205651356181
0.594709612009461
0.597816264997291
0.59779261805718
0.608071198066663
0.568216962538932
0.675659904997755
0.660208291766127
0.613508602445379
0.637607287170344
0.613370534987442
0.644320050248504
0.620174180164683
0.649616150782463
0.671480606297549
0.654283912368045
0.65680229498143
0.664262464951019
0.669226533735846
0.669248363347515
0.690971139680743
0.67621736178071
0.679127622314227
0.696612628679658
0.611290722875859
0.778431194906881
0.688998906103706
0.722995648532364
0.700297971825179
0.708094325697888
0.702901349277361
0.718943209950871
0.708343800745004
0.722983478374271
0.718591386447898
0.716304138065946
0.717996992445888
0.717674477543162
0.721273846159676
0.711727992008781
0.736763253301368
0.737347865327586
0.708197325779555
0.713061361202208
0.718491682261418
0.720470659320812
0.702810212950893
0.752642718558842
0.724560766739829
0.719031683511915
0.708496934033266
0.754335688192958
0.734069903431908
0.708230401098365
0.710734653327751
0.73070894714122
0.721619134649997
0.730830040879117
0.686142532772079
0.738192199032767
0.728417644907638
0.733885149130537
0.722830402870981
0.7345638582684
0.727364641927845
0.735589858143401
0.741491065350529
0.743826064052663
0.742369992877481
0.753458931911227
0.743830929200373
0.740776867982658
0.742438145170071
0.749673516862064
0.757454867969541
0.747263142995396
0.743955404095738
0.743019137949785
0.725410151574246
0.745959206127182
0.726764366904719
0.727638249933358
0.710402343852425
0.711806032888713
0.705949756854334
0.718752881364438
0.708707699893373
0.694264903178557
0.699385103361231
0.680299667272194
0.700899345170437
0.67043593348513
0.676643623018873
0.674652075695464
0.672782504427399
0.661445411908007
0.653822907522226
0.660171770081299
0.658548087085461
0.660024592516268
0.659617184258155
0.64701063895048
0.641336240581774
0.647568672506066
0.643508852393253
0.648993233711277
0.642376953203955
0.645602270357671
0.648274372237305
0.643195645909968
0.65404746455605
0.639996305605584
0.65346964107814
0.643064574252772
0.655763203120917
0.635091772556715
0.647494863532773
0.646286978486267
0.642177830839741
0.640354260497087
0.635906079869988
0.63529880066313
0.634902429443143
0.63315334806292
0.631711516198596
0.638722260469211
0.638125850215347
0.639744095859721
0.635052790944983
0.633921298011601
0.629681915080734
0.639293939782755
0.630388870630807
0.634103997404072
0.630014985519968
0.637410995632117
0.630841754569599
0.636040638824653
0.639897622007869
0.639903671870076
0.636032621917925
0.634816306360054
0.636932818362009
0.647062121023952
0.636858410768899
0.628797209184158
0.63014491773678
0.631491586223459
0.634729275614975
0.632074405253599
0.620973949847891
0.627711577904385
0.621270117091868
0.609807076910668
0.602138480433965
0.607271381125782
0.598965258384707
0.598735294872478
0.591097817057896
0.589529968472377
0.575955927320525
0.578434383353054
0.576351230147009
0.570957135184854
0.569265585098887
0.568960223642305
0.565217607623567
0.561761887442691
0.565026764648276
0.560144659617259
0.560985332644671
0.556857885978652
0.555833685391159
0.558763777236225
0.555867690290101
0.555645826642277
0.555677016671361
0.559711270377495
0.556331508120387
0.555761060598878
0.56471577964334
0.566773658579921
0.565121219126916
0.564985851508794
0.56497319922545
0.566974561594902
0.572560337254536
0.572509794440792
0.575605385331348
0.57579536507588
0.577339512121029
0.582947805949217
0.583471630742398
0.584475493809082
0.582411246701861
0.590459531891941
0.588433025190567
0.588596614907585
0.589835739762621
0.583249296315408
0.583637352400327
0.588693403808565
0.58730698751038
0.586636901758341
0.585694505096835
0.586101373215401
0.585894445080529
0.582030978706037
0.585256971640591
0.580006030118326
0.58034807717522
0.577222441503114
0.57341680901887
0.574942527024088
0.57668524067082
0.572863691426543
0.565074472616351
0.562019958789083
0.564477213475135
0.565119740956013
0.565110118895711
0.561211192177253
0.559862667874484
0.55784175180771
0.556401502201187
0.554219718531346
0.551832430587759
0.546425616537961
0.546431736911258
0.551053590323973
0.546521857642732
0.546434810443256
0.539236992999939
0.541018898677144
0.541937766767898
0.540079181081703
0.534728070544063
0.533952443252935
0.530896291256745
0.529502424020138
0.528360567684333
0.520620649212324
0.516403545728141
0.515342431153375
0.514503362172519
0.506846239587558
0.503509309802799
0.499681434067437
0.493304245797912
0.491614272736957
0.489980650075696
0.48652508730971
0.482956866735999
0.48218066822022
0.481122900992587
0.48105216842742
0.477174011137328
0.475961773745161
0.47341811386875
0.470052783535845
0.469160375652754
0.468660420306737
0.466138471043515
0.464199960856952
0.461053945508261
0.456376326992708
0.45467019366799
0.451156695580418
0.446239154789144
0.439408710780983
0.432137369916252
0.430081219455198
0.422441467684273
0.421935076535759
0.417860230216918
0.41849670115928
0.41855355270612
0.420005383115808
0.424897931132449
0.434092117966347
0.438967850318416
0.447183139384813
0.457714853969263
0.467024540676856
0.486062372953622
0.49821363687976
0.514111561141582
0.533277822288026
0.552400646368449
0.568558551766226
0.592712284348806
0.606437643192688
0.623659660481888
0.639682036551362
0.663287010452104
0.678673037727078
0.698843071471268
0.710762167793039
0.730571812232484
0.751623389613785
0.764971003927798
0.781561000761449
0.793199842604692
0.802390320303764
0.811488414886495
0.823849649977243
0.840854872332953
0.85703087473786
0.856893851427071
0.869736453527699
0.872766130412842
0.878261469837963
0.895006265201954
0.895169147588779
0.898863933439407
0.90394038983369
0.892129355091966
0.892045232994163
0.890876056650319
0.899974377421155
0.898156338588476
0.902919694424564
0.917516918677805
0.920287525221619
0.911994692432556
0.916504913809495
0.925302529372243
0.928600128348618
0.922496534717349
0.924091807190141
0.929822847571404
0.949172068283141
0.962287876820233
0.968549015121471
0.972153307639963
0.978408151066195
0.988132434788378
0.99743516069709
0.996409340979874
1.01361240664099
1.03298324128564
1.04529402150275
1.04137836427451
1.08223095214827
1.07641000692613
1.09180884901754
1.11418080404504
1.11621752357624
1.11035658385096
1.14663094185618
1.1456513340268
1.14537684773548
1.1532918854006
1.14106809049888
1.13035843035703
1.16523670755781
1.11994202674042
1.13791297540956
1.12517827030191
1.14050477032307
1.1112614681005
1.1238982635763
1.14118047515469
1.14924130688278
1.14327729257901
1.14887163544189
1.18743799904435
1.20664469932979
1.21840215351553
1.24948099704118
1.22727974044541
1.27537752543473
1.3086473372835
1.31011945043558
1.31728023237868
1.30055244147443
1.34477959778631
1.35588955086415
1.37576941422911
1.38479495213023
1.41432248242934
1.45711187997707
1.45148478142336
1.5061697621787
1.49775619256238
1.58730029694957
1.53928933986977
1.59924611603407
1.55836697470913
1.67146496866714
1.68321189688778
1.68094492572771
1.76980901951069
1.78567037311634
1.71052615183083
1.76190577252365
1.78269254267009
1.79595008117458
1.79534216916146
1.93497454718204
1.81197345817523
1.78200259796688
1.77163920158422
2.03062503209453
1.93093699308294
1.82913598490068
1.83481609597125
1.86478608318663
1.97459399086172
1.78630676269144
1.83471881209896
1.84609267540089
1.78511065215173
1.81860804886798
1.85092834103954
1.88955312099548
1.94627284908599
1.92739365661679
1.88881588174472
1.95279966502589
1.94572541133041
1.99440422087733
2.0440281856145
1.89124764105211
1.93439925800231
1.99700387461435
1.94360666142297
2.26534371698872
2.25342873479082
2.1758315023443
1.84838111621263
2.16499818249095
2.14673774764631
2.11716930920856
1.95400923661072
2.18278360988249
2.12255532695391
2.42587406339067
2.09369471768745
2.22626992894365
2.06719073983192
2.12611403205853
2.00768082311664
2.45102327594525
2.07546496018956
2.12880538663585
2.17189060524821
2.2466971922553
2.05893393623645
2.34887512330755
1.94337595682869
5
2.3477860443146
2.39789214256549
2.34755846772704
2.0896392104516
2.07885108861382
2.64556003811558
1.84025350243843
2.07074353619975
1.97879835039497
2.10874708462319
1.97819686795056
2.03858090786581
1.8094803443372
2.05560255826836
1.76863399449182
1.8000589414351
1.61226705906973
1.63302865176508
1.55170178870307
1.60508532182905
1.51285655661799
1.48861448169775
1.46110120590869
1.47467016404503
1.42457037158148
1.41742239590687
1.42563514401062
1.51375202330919
1.42374601150162
1.43096607653551
1.44786320524661
1.4187709336873
1.37038816649192
1.42126189722521
1.30015338146516
1.35869480913
1.28091297711193
1.29901992619802
1.26451552737386
1.27858502124983
1.24754650211801
1.19387791970767
1.17357958731032
1.14910996537394
1.14750846625578
1.05893016680851
1.04695341301384
1.02122589851049
0.983970716812472
0.950245226758675
0.910271894800507
0.872782587267384
0.845930812373471
0.822636996052329
0.771783247468504
0.764137110175273
0.73348169898673
0.708870148305286
0.681451027516977
0.666596240808424
0.636970932678237
0.627784941855526
0.596193512039342
0.597960528472586
0.585392337565899
0.578022817866513
0.568881552469072
0.557668545661531
0.543277641723904
0.548530382505469
0.54623813649083
0.54923457323801
0.531130195564355
0.541617539986314
0.535327140231867
0.539476824791594
0.540426107859726
0.536463447030019
0.546251354845457
0.540511194769751
0.540442555592963
0.554072813174317
0.536516533346762
0.546837624793217
0.526377538212854
0.534730384706151
0.527461242418428
0.518771650617008
0.518659179291655
0.524836350214649
0.508031754126667
0.509434629483527
0.506686175354674
0.5041653352068
0.499624309344999
0.505222292386306
0.503698021198104
0.502189017770088
0.503269186755587
0.501843345348057
0.501387558929396
0.516325516825534
0.512142889414447
0.523968473709288
0.522764115980961
0.524070133666387
0.520840309632653
0.52696780317911
0.527085455176725
0.54026319369059
0.531652824948025
0.547384911083348
0.543631906064144
0.55145692765967
0.544214561007924
0.548992276975077
0.544774066691809
0.539146295511876
0.548016462523297
0.552153839102076
0.54297404764605
0.571490303493985
0.551551543740176
0.56940591955627
0.566772262709446
0.57394998617159
0.584225413448012
0.584579175885984
0.587327427556282
0.608390146233424
0.61780130196405
0.630154347730561
0.656283248021388
0.665278548395515
0.675136286283474
0.684361377904707
0.700114677145404
0.71216971354358
0.69736708517036
0.717224061077508
0.695440503898836
0.704432298840925
0.68706768676516
0.693669328975594
0.670236344291749
0.656896969874542
0.643080946939802
0.651232173206951
0.628450840750367
0.634869678861752
0.634810202966543
0.656642471184698
0.626629493710423
0.655151962595908
0.625497293821356
0.649680580153351
0.634667165269826
0.658576922818665
0.624302182011919
0.623586122822669
0.631335062738765
0.639251568110464
0.629198570128772
0.608622785829131
0.587926811261464
0.614404949110469
0.596464003467989
0.60058487848611
0.578686702501307
0.589161152220482
0.584361691974398
0.59080753180444
0.590134812064164
0.57886840761182
0.569490274285955
0.562266336478768
0.574972303278862
0.572774780298695
0.553075458583127
0.561116862597173
0.546213233354762
0.539866842250342
0.538757338508453
0.548146158022497
0.553133276268271
0.53632561749071
0.531150474559658
0.550631657482177
0.536732646088359
0.557546880086408
0.52377472689912
0.536271007081698
0.540702270291856
0.517344163146319
0.514055611089906
0.534680485953869
0.512847067601206
0.524818220540463
0.505577597663862
0.518307835404039
0.519292821723058
0.511088875496891
0.515130525826422
0.507601977722243
0.511866094403897
0.507645972079053
0.477865410465965
0.511566755022168
0.508303934029707
0.509602604383978
0.500923922197737
0.516775892125564
0.503580154688528
0.506315069221699
0.502985214283594
0.504020572211166
0.502588524092683
0.497862121271953
0.511528038423745
0.535487643994342
0.512366477076639
0.525341736518996
0.530250423094179
0.535839884413025
0.534645693010929
0.541288716076803
0.526073075277996
0.511918903493338
0.53474620193861
0.54824589336465
0.552308127098825
0.56698087371386
0.545319705538874
0.547444561761307
0.543718703017648
0.593571100165224
0.581796304170428
0.611982870681934
0.595324055085032
0.639661030617949
0.593595321025079
0.639435989364538
0.639756369087488
0.711664744976306
0.668926958912439
0.764161833281837
0.713768525503724
0.76527804124836
0.753283580845635
0.807444585770543
0.763246726837117
0.833749681174626
0.80450224165332
0.830707190121025
0.804885734008632
0.845116023548272
0.797070772059424
0.821428470129461
0.866092559226869
0.865761100734831
0.791591014991329
0.873478995141979
0.835165957564628
0.850440314661133
0.79209525373952
0.827758697673299
0.780779374903746
0.841358998571635
0.798804330445197
0.790336571243727
0.843851035481389
0.795360775885782
0.786206429911995
0.772436908367176
0.77026685188056
0.823760769324493
0.790597307705493
0.814280263030459
0.763718094713933
0.778372503166212
0.723338590316421
0.79156901444213
0.766216858238588
0.751380531360561
0.716088836075179
0.77259118143915
0.780079209295645
0.83816981590691
0.752811334314056
0.736916257183229
0.764680347156064
0.784639185556684
0.659286055214019
0.794867481920962
0.730270999534165
0.786346309420767
0.694485322803042
0.774782104102548
0.698188824908293
0.76837773449872
0.716103817742437
0.791432857701286
0.705310746497169
0.743575103015389
0.745693753609406
0.799502461576808
0.785181390668991
0.782667166533596
0.739690275375048
0.773599282664078
0.717929532873972
0.769482329842754
0.70764270963978
0.825890664911824
0.806160905190095
0.741599592359514
0.708445811953022
0.764900197147312
0.77170474158687
0.968956523492933
0.761486250547211
0.945664361404755
0.867339609125181
0.780809247184947
0.778872006897646
0.924277545553888
0.748994487241004
0.918122781187634
0.878803485121521
0.873681287293494
0.946812796800943
1.03300299591173
0.862264664398646
1.15559680293927
0.912011980330415
0.962085273460851
0.948247593289482
1.18779161581612
0.9696643977786
0.887486692159853
0.893484451112529
1.43377252760464
0.948606403714837
1.20547262628995
1.02361164726163
1.05222026839038
0.836225571672924
1.16279554800763
0.904195966151404
1.07230511171032
1.02451453738159
1.10948200850644
0.902565317384243
0.925631828629906
0.788925176316076
1.14531186874659
1.05741881189048
0.854354763317386
0.742574776675944
0.994008747453329
0.847761057307878
1.2827219188495
0.884465334509443
1.33109063517263
1.10423310740791
2.21779498934513
0.972935675785406
0.762045395700627
0.856376405423488
3.05764963487056
0.879695097803372
1.01796110587028
1.28391414997907
1.25292566994909
0.964666245763443
1.24873266946609
0.734076180347205
1.37442014884926
1.2142087193686
0.824509538943661
5
5
0.759349553790419
1.26576027949912
0.501223758841359
1.16942470201975
1.26516429418113
1.12997254294698
1.7126034999105
5
0.87857626436182
5
0.968476806967857
5
0.558373402498877
0.922977659130338
5
0.98015935751932
5
