3596
4000.36533379555
650.420452594757
1
2
2
0.068853926261781
0.0615912214584356
0.0662395924118715
0.0516121538812255
0.0703908493489866
0.0592263003844388
0.0821291953022073
0.0542557063574658
0.068212906636938
0.0581651522985947
0.0700337554952194
0.0636759501076996
0.0683307469662933
0.0488391669642161
0.0722584202755274
0.0498405993565989
0.0695613258749823
0.0520071310072248
0.0762653362777907
0.0584220181561396
0.0660540514791454
0.0600821580693806
0.0744514547809919
0.0499690754317183
0.0717224700423199
0.0638882281847634
0.0658307485086526
0.0495718342215392
0.0759166275018046
0.0577797427144728
0.0731968959417044
0.0560472423079687
0.0800950358998584
0.0599638804980596
0.0739027814541592
0.0580858913681333
0.0685929087485089
0.0521493198982434
0.0731755097802666
0.0506335315996568
0.0878090915450896
0.0613963115615073
0.0687012554567834
0.0482620253779097
0.0721939576680122
0.0605216048275418
0.0685403572128432
0.059429581184332
0.0710518477333853
0.0541290904047505
0.0791506329582427
0.0491967139946503
0.0772651260672279
0.0581588476639081
0.0717318450649187
0.0635085989137967
0.074560958948145
0.064010327933345
0.0595709302015495
0.0316943151266976
0.0851721925168767
0.0611817651355354
0.0663867844897488
0.0556000174481753
0.0692340957305682
0.0536068034332053
0.0647948231688813
0.0473947927860145
0.059779091107246
0.0428942453533625
0.060679251647818
0.0648811520050502
0.0837971585660068
0.0519894955611557
0.0686064412398633
0.0508348690504846
0.0747914531155441
0.0541630457676865
0.0532659046065453
0.0590656664247422
0.0711089253776332
0.0541498452861873
0.0629720348849788
0.0500396487915952
0.0638566246439663
0.0677050645907463
0.064751657806187
0.0410128547005134
0.0939992790031914
0.0638751837688578
0.0702406363313944
0.0523867544370015
0.0653314826619154
0.0478677526114482
0.0595988332732443
0.0511787823994882
0.0711667978893045
0.0516526556678483
0.0616924817284247
0.0412650782444116
0.0597501038335708
0.0420111635414416
0.094662502844064
0.0334302957414552
0.112095537356429
0.0638350350115062
0.0556675202419057
0.0735697454360279
0.0898635241161593
0.0476444193164652
0.0611486589308863
0.048785096746739
0.0671562590388641
0.0552726395039293
0.0477515504554227
0.0436839813442252
0.101965079535165
0.0611758381925615
0.0630989017270683
0.0477431124247181
0.0216393842525967
0.0422823945747906
0.100214268077612
0.0438906447761939
0.0757635945414781
0.0464587023363
0.035436792696711
0.0594712520321049
0.0986876826190315
0.0581786305820708
0.0601495420900252
0.0441800350766638
0.0498059152563878
0.0140139957843945
0.090046405127264
0.0581094930905094
0.0580016011781772
0.0230996590776188
0.075197959138572
0.102625254962549
0.0857501254590802
0.0431518982113249
0.0399220495866122
0.0173882484068157
0.105019924521802
0.0522928987402005
0.0514405166786802
0.0494353611984719
0.0819177296388994
0.0550393758204467
0.0630607972178096
0.0312682596310417
0.0748752350799555
0.0488124407165883
0.00223778177339711
0.0619216388708705
0.131068085339974
0.0559612318125786
0.108278336425386
0.050070549772886
0.0744953404494024
0.0472473325431154
0.0642739048160618
0.0382717345382029
0.0587077433559221
0.0360697179338249
0.0607159766121332
0.0694234523906894
0.0608595264594916
0.0340711730102857
0.0880382968532502
0.0348206960270912
0.0432240426942624
0.114296043701486
0.0742323292706859
0.0167535400907388
0.0884215545269193
0.0556395405511123
0.0414272430469244
0.0339660194585731
0.0952897503893797
0.0554050736390397
0.0568767854445429
0.0350195051543678
0.0486668765431096
0.0610170628407259
0.0682551188407738
0.0433146798322933
0.0608802479626786
0.0131932536864176
0.051376512137767
0.0926231350334351
0.0987956131070772
0.0564182552855351
0.0619644075670747
-0.016715217382465
0.090022203583774
0.0748582016832305
0.0690648551545955
0.0504723871034
0.0625492778336784
0.0385031580690415
0.050402493711688
0.0495467300370108
0.0450548428775236
-0.00219743581387672
0.102709589622532
0.0757505205670332
0.0568526838523187
0.0331811140840357
0.0435289303609681
0.00614472129730683
0.108277202522274
0.0752067664054519
0.0565733175584758
0.045054989192086
0.0364577361397696
0.0414505473048191
0.084303204104104
0.0457661833017217
0.0652080180830133
0.0462262242396867
0.0659751273313772
0.0409232333192332
0.0597110604265045
0.0491549267447774
0.0582382686213603
0.0417265948420292
0.0546904444299301
0.0402325366559533
0.0764552573404756
0.0456616456662903
0.0624246692535973
0.0427399133368436
0.0517587148458524
0.0416466816136385
0.0869827918689649
0.0485619100627205
0.059942195826245
0.0375055177049359
0.054962923158154
0.0447143981662422
0.0595973354065756
0.0487174118584354
0.0456504460726141
0.0204376437601514
0.0914544364415842
0.0582185835120406
0.0663211988445035
0.0211143013718569
0.085699595453472
0.0597657062220781
0.0648129933908502
0.0444403549994375
0.0713290659706236
0.0237187987426043
0.0507167168541633
0.0675839076706409
0.0669662381480512
0.0289828207766606
0.0801623027038164
0.0522604732722528
0.0545718027533329
0.0207465427761176
0.0243303609704236
0.101249187234876
0.0668902846593023
0.0124288324281405
0.12315816036672
0.0692979937992542
0.0827346765196861
0.0289257949876151
-0.0112923169325682
0.113452680700834
0.126061455701916
0.0477401922485474
0.0641441043078863
0.0685091054565012
0.0562864303200722
0.0430876229341708
0.0639045811750105
0.0503566643551038
0.066952625478661
0.0792838100309408
0.137933905749254
0.0186107567390233
0.0893288557338797
0.0735244592329289
0.0687761720165269
0.0437167491865378
0.061996505567535
0.0338644724838783
0.0772601100563943
0.063648178275159
0.0816606481409345
0.0532840731944815
0.0770680041640585
0.0795317582408735
0.0830224583886734
0.0478298038382562
0.0710944553431475
0.0611008918306905
0.0662646948698989
0.0610921817148397
0.0551093974253054
0.0659793486333845
0.0526923877200304
0.0163477439365015
0.132768505302304
0.0541304740657076
0.0593078098317663
0.084738699389999
0.0751380574873382
0.0537744434917958
0.0702262892642918
0.0592809358326208
0.0717182194386703
0.0420510705547926
0.0475355077649466
0.0879445960222738
0.0778324073979001
0.0655999054059482
0.0726998005058468
0.0604591708105685
0.0719613594893682
0.06691746894766
0.0694259970008555
0.0609365550815969
0.076230147943018
0.0419172846436583
0.100993063157705
0.0788126822488479
0.0540227489689307
0.078145394976228
0.119174127000149
0.0655324869684707
0.0896984735937914
0.0630298651518925
0.0852369492234733
0.0729267659729647
0.0855063959253685
0.0646005027228624
0.0794633071994861
0.0905520908586076
0.0980276431110518
0.0589391038769278
0.065983902889551
0.100431342428833
0.155362128345021
0.092269826803531
0.101778725824624
0.0337556653977522
0.11415674313738
0.0986449393464421
0.112939117764412
0.104871353097511
0.10414840842492
0.0880968337910071
0.104766976172437
0.0856520640169816
0.111341951357428
0.0982008862428127
0.0937586869097865
0.0927915183803798
0.106000069603557
0.0986652557923799
0.102865019596325
0.0921348965704006
0.167632892779815
0.108031760998534
0.117585602651971
0.107076426604231
0.102740736911313
0.119263318172381
0.132519205650873
0.134214217213937
0.144047851291869
0.124727041199168
0.167324749026046
0.121530389091252
0.134041715290512
0.115111152145855
0.140981808183247
0.121449032166652
0.144696881876442
0.120998706780334
0.137173078736172
0.128475455345714
0.154789593718918
0.131658680689692
0.147061037043337
0.125783715243295
0.179512716325954
0.14607454438325
0.162963185429251
0.128368933241976
0.167395162989367
0.191635097067969
0.224861018961925
0.157463558394741
0.173006051963763
0.172327702934919
0.175974253420174
0.163020044077786
0.173316474753091
0.160027483465118
0.184286939365521
0.1998553240459
0.20564624378488
0.175663011754399
0.215528751588072
0.161966283665912
0.217339501591669
0.188604753332063
0.194275033732659
0.209904388179131
0.222935273602216
0.175525729539056
0.239994005802394
0.205144786224712
0.219840152085548
0.225088439472751
0.232880319209384
0.220163978090001
0.22817811760415
0.213938442821723
0.235041857982856
0.219996447075555
0.250768177449297
0.215592333141483
0.246593684283636
0.219823639779539
0.249029391706966
0.240498225133578
0.268794742596406
0.256015484007657
0.273691221153957
0.261875425735756
0.286176915891098
0.222722880324953
0.285123575584297
0.274356102392873
0.293138553392051
0.292987809356059
0.28395133622196
0.258898614422896
0.300045918608081
0.287943450866322
0.310499032002749
0.281247921508949
0.310432402093534
0.282531955830598
0.312649319584559
0.30470366902385
0.318673439898731
0.297138522553504
0.33401542335838
0.318223518908153
0.340442023223214
0.334879508538696
0.351352703743761
0.304306156202363
0.385281163519846
0.336255013803523
0.378703337614409
0.352019649328312
0.367012129403852
0.339058330584922
0.361705530090238
0.379559325538668
0.359030585947882
0.357227650748048
0.384735973327292
0.364464491010757
0.39736530456842
0.377131157492674
0.408898661860101
0.38938162394407
0.411217514134359
0.38720965279147
0.414508527281125
0.381043929193749
0.420296225311401
0.415038058892003
0.412581787601988
0.410978230565268
0.414789628575467
0.433857611070318
0.43491745064569
0.432209937481276
0.469303621351266
0.431692345877587
0.477828779612411
0.435608138984735
0.475783521265728
0.425855241043656
0.497798008556415
0.480509793423062
0.491433996146635
0.466075391252636
0.512205829543406
0.469331113587648
0.515476038669325
0.48588921912422
0.509899004986528
0.500659520732049
0.532703311546261
0.482682378033233
0.53538535073236
0.495738056293537
0.555763932008777
0.536247838751102
0.546748700120984
0.507750173188012
0.558159408711413
0.533401135983715
0.560292297253547
0.520407843009624
0.574532393388042
0.522350750038324
0.552803677480256
0.543156714310541
0.608177377210154
0.59066849067119
0.597143382024521
0.548196388594517
0.641520630036284
0.567069965223967
0.587400696538551
0.582690838790252
0.639602965738257
0.603488306932878
0.660332302517576
0.619186236679003
0.676217086826411
0.588206327926946
0.652940450423106
0.622612539980858
0.705905998987546
0.636963770911688
0.650860998261506
0.614376029581975
0.657630812214471
0.640300549857878
0.698416997391685
0.649172784995001
0.715276482185961
0.632093705959192
0.696711018399336
0.677399800876262
0.734591432710714
0.672437817333601
0.736200688635092
0.690002414745224
0.733223393829414
0.670649745478603
0.709216061468396
0.707317964008144
0.775041269168664
0.750828854684339
0.791227299430144
0.71959963849346
0.765308935756432
0.754369453699881
0.781649853054859
0.761442904991788
0.793798566555414
0.753735488104812
0.825416720714388
0.718044153370497
0.826904997424893
0.780529196822231
0.869361155817684
0.752309992347973
0.816592682748952
0.784040164018835
0.837231894152071
0.799985687368932
0.843514356590673
0.811127980374312
0.894884336077069
0.809175861610655
0.864886999134549
0.826525556567318
0.848124355923235
0.810001077724123
0.843588805679931
0.863368531847569
0.893520736627609
0.827018805991771
0.887403462381813
0.86693397072893
0.90497863252825
0.871810266090829
0.874195575848782
0.87427721730969
0.885613816457876
0.8820176062291
0.983858966725809
0.912847203751024
0.9446931799765
0.825666246468905
0.908056712438268
0.892529097989738
0.892791843335971
0.877079014093761
0.974301108927592
0.916588545120443
0.924975324740972
0.879730952142177
0.940933884803836
0.973983816186058
0.985903757480722
0.886537577537977
0.955607120627874
0.944356154523971
1.00255433492997
0.988363582643932
1.09128685759339
0.969253376149522
0.987059054494767
0.98845107314151
1.03699151381416
0.93802113820381
1.01428596821263
0.88650064668768
0.952228626100868
0.962231676449004
1.03943430770353
0.963197252544715
0.997411313819579
1.03081438772151
1.08847645337589
0.928361907849289
1.02774987309594
1.03858445573952
1.06108552441057
1.01022843865982
1.05448297870557
0.976872470572878
1.07832738153075
0.983284668556229
1.11568327083399
1.06559731307979
1.12260736233222
1.14820137103665
1.21011969817501
1.11470236065819
1.08411979717079
1.0269724348166
1.09739437120862
1.06139180549503
1.08849880878948
1.00478623250292
1.16622493631894
1.08019433338848
1.09674058304612
1.13601956754178
1.16579130058565
1.1184030092592
1.13424219602291
1.06962274402144
1.15296001948659
1.11027917204234
1.08083628191811
1.1134106113378
1.17463791845766
1.03093008467632
1.11301214184157
1.06999548866539
1.10735967954139
1.09048310546274
1.19209533345187
1.19183597571379
1.12514411149876
1.1211837679653
1.17922432972485
1.09952739881016
1.13672169437592
1.0661329082664
1.20013869887371
1.22097890234682
1.18640386190575
1.19187912505386
1.18770643714299
1.10218700201909
1.18605664926677
1.19091041919956
1.16381986551123
1.14376691076204
1.1608985243595
1.13507779711226
1.28081032133171
1.14507555200003
1.11309867174297
1.09889844562602
1.18412055315048
1.154189814275
1.14208769915526
1.19045577484322
1.19421481484665
1.1703452855016
1.21752057279806
1.2089189142433
1.20606449523684
1.22936426989404
1.30447455199263
1.21588621412526
1.15863130344152
1.13175063963884
1.14389718965644
1.15273632684686
1.22867407696505
1.19642791517062
1.30811190021392
1.21090760448066
1.22959655936682
1.18420801735586
1.17054652436111
1.29367638358912
1.31512663615188
1.19649030126026
1.25235395999346
1.26278593389184
1.24711207834618
1.21000865992653
1.2799915162909
1.20505124725787
1.20223482721577
1.14740783328159
1.16899564025172
1.18154391568144
1.17270755651974
1.16949564763155
1.20714771900531
1.17039439989556
1.2741473360953
1.23471481291817
1.18587144596091
1.13944823604389
1.23004911928808
1.20478523651451
1.15607050992423
1.20653248051499
1.26129258920864
1.22752590640281
1.31415468937909
1.25580081872196
1.22867213943113
1.30282813778292
1.24566864124692
1.15146461147612
1.1981309759278
1.21137875658265
1.24192204078475
1.24772422889458
1.28649984087057
1.24266401264318
1.29239528558791
1.28526057270764
1.28565351086765
1.20703912694703
1.23383386297784
1.22068638786407
1.24632300264882
1.2542704088854
1.26408435928752
1.21923584213082
1.24311995806217
1.22555246208752
1.25361700148211
1.26401400343719
1.21416345919656
1.23975042252115
1.23710157852312
1.27511086236816
1.18777460122603
1.13691929598538
1.20074826557403
1.22285942027581
1.24197053831835
1.16551063859509
1.25884729277712
1.22113057841432
1.19670037271858
1.21900863898784
1.22179041063163
1.26307248349069
1.22623018373939
1.28129191086457
1.19582158686569
1.17346844493206
1.19800912509918
1.21087189744677
1.25001053192091
1.16428087289736
1.18927350524038
1.23499468422149
1.21029316226993
1.14816992127278
1.2653043529692
1.28458853464811
1.18384366388912
1.16032344629844
1.1478390731217
1.20124635510211
1.21870427113382
1.18294401915628
1.28064743109722
1.19066619640441
1.12073470870438
1.19207234280246
1.20992500648283
1.18315805728102
1.16082844297417
1.1759335058034
1.174758499026
1.1924570931724
1.15842301266607
1.13884428929994
1.10991172439136
1.15905430203696
1.17075854764724
1.09338376122821
1.13885317487959
1.13104737993081
1.12423700707326
1.20842873675372
1.18177430616891
1.16003585806217
1.12319676170491
1.1592854912457
1.14022725417178
1.04488693938728
1.07507005190173
1.13770653470365
1.12859333192562
1.11506050735345
1.10267730748049
1.10648231052992
1.09045236611581
1.10187225263677
1.12599622851225
1.10717442997397
1.09816732520759
1.07199748770877
1.08903635962636
1.12312313652018
1.08438019272067
1.10735285734671
1.0729604287222
1.08588991303282
1.10904487936142
1.08102285937783
1.02760778128673
1.08091874521518
1.08373974405844
1.05233304348572
1.07686851355036
1.0798273018952
1.0422802834457
1.03170414581818
1.06170477904543
1.04756083805477
1.02736867103145
1.03438508022691
1.01423213065551
1.04144262359709
1.02730367902752
1.01839723083652
0.991659705509329
1.03264563489729
1.00821512456323
0.976900704773476
0.990650977634832
0.959520265122809
0.947418908117228
0.998181014948988
0.98515842664609
0.982751862468725
1.02722105988264
1.03159303703473
0.9614806495592
0.950726830393705
0.948362118021779
0.954625147879953
0.966383429297856
0.995766724141261
0.976851483126803
0.95708023778301
0.941325428854647
0.942339297968305
0.929792005792014
0.9308659981167
0.926433052800211
0.924971295882387
0.898877038394387
0.917629788223277
0.92329299095037
0.915149403142897
0.911647703530038
0.922899366184234
0.882542024870861
0.880130970542622
0.874892714102043
0.904329756968385
0.876326542558536
0.876889110635155
0.879433175800052
0.878213778888075
0.863906457149439
0.88743201017369
0.869828384707003
0.889800797050454
0.850975429944429
0.852950629754283
0.833817923285627
0.826811058458734
0.829210594065185
0.842652935736413
0.832760704257587
0.845434801372476
0.804947423700145
0.811319780465637
0.79694933093922
0.835524478842898
0.791069383981422
0.80411077314867
0.789318796613273
0.793446862489869
0.7816922977046
0.797712945025777
0.774932299984668
0.787711308572471
0.769833913707019
0.762935137417466
0.749197005689361
0.776254748567459
0.758421276636647
0.750156075553848
0.74561408453035
0.784147984838571
0.758018131114787
0.737598303745876
0.720262488937542
0.740067144887643
0.728110011711484
0.732526008202271
0.709973834340841
0.726297787323429
0.732468812178565
0.712155420485438
0.708036604674072
0.714900767201471
0.67526299205188
0.702681412518405
0.685034560596229
0.692739754655769
0.690464714564071
0.705780141963879
0.664078971294875
0.692644955309535
0.682012966480059
0.67586059455984
0.665888213968399
0.687085265341307
0.669207060556851
0.679380033380935
0.653960901315865
0.661894977670058
0.644960923831208
0.638969557452044
0.634765708532881
0.654331395465336
0.641924846084703
0.636188292323547
0.634366132401063
0.629178347532336
0.606996686951464
0.625818097488037
0.612692181828333
0.626664408227697
0.616012643356407
0.61157609169272
0.604955896647917
0.612467139637663
0.591542257457751
0.607987183596217
0.595959464498419
0.605061175796896
0.589446766378059
0.619459761284013
0.575517687115785
0.583364459117453
0.584374118326699
0.57823054997846
0.572066480709737
0.570454812240973
0.56025664200028
0.578095082217304
0.559398153517621
0.5512857032151
0.550027693771308
0.562751281879064
0.550754398108203
0.560847794757298
0.546128334000899
0.554969499383015
0.540047584483269
0.559936977098394
0.526366973983414
0.536011616176698
0.525711615545208
0.532290608517114
0.522859198657061
0.548161583301643
0.525092567366006
0.536178173841231
0.516476045087118
0.510320378919924
0.497591737502784
0.508423012456417
0.498667720121776
0.513935145574639
0.494819295894004
0.499740335982043
0.481858996954224
0.517142140283699
0.489808983866624
0.506145643245173
0.490489196367337
0.498873000558032
0.486989316168112
0.493124132436138
0.480226924037782
0.482555226892901
0.470072883281891
0.468368468754857
0.467311134955295
0.475231986955857
0.460301742788856
0.480270093650226
0.473284197834214
0.465161778833069
0.468115231687897
0.470163557641737
0.455130867199283
0.473486680600338
0.450543175179921
0.444178536333847
0.444674254940967
0.456413356321676
0.442927546539722
0.455158855664869
0.440469004044737
0.451367877949035
0.446306814607775
0.437351703109651
0.440253407585334
0.450572285969635
0.435878816569339
0.453179748245248
0.429670958528113
0.442099692864218
0.427405555753654
0.430437477010286
0.41788834851137
0.431708954531999
0.421274382791333
0.430677345811758
0.407978963863736
0.427407037510632
0.417985943641314
0.421861725521938
0.420938953749667
0.414006740835272
0.408538892087749
0.42760436114331
0.420404114604551
0.424281239651947
0.416994263914458
0.427844287785024
0.415257762837371
0.432555622140847
0.414565079123021
0.426201346277052
0.410787047934434
0.424463750998818
0.419571201353229
0.428825386897855
0.411785438230461
0.432987266871796
0.430418144005558
0.436605847685599
0.419204155288361
0.428506493206631
0.42174076735948
0.428214432703003
0.418959738215723
0.437662015393939
0.435794115315739
0.444532553030699
0.416499622002681
0.44421628502751
0.429148346270196
0.444273383762516
0.439735703121164
0.440123358758732
0.433138889449597
0.460341592311571
0.448550637525544
0.451570502323915
0.453032060364943
0.461112198726842
0.446655246550523
0.468348603960899
0.454689597365595
0.474200911904345
0.450982942341624
0.485011100929137
0.467490486381311
0.474300195234353
0.460741398887487
0.473004669960489
0.464296447619329
0.48186304318222
0.486656533274464
0.506865180479125
0.482133107800403
0.489885974611519
0.486118835738575
0.50298464534532
0.503745690819016
0.511447951217101
0.502472097084945
0.528977964827024
0.511717442228424
0.531232566140789
0.518958105796166
0.535268442866356
0.510287349573018
0.530060358546416
0.532931653156412
0.543483311104852
0.516114453413496
0.535815779597685
0.529399010609766
0.543786234309086
0.541738001688762
0.553263039930386
0.5257525772692
0.553453418639239
0.528218388519185
0.558041093075968
0.540029342298866
0.565490114001882
0.536989748194184
0.571597084884511
0.539948759859078
0.559011335280005
0.538035864096802
0.554553854121037
0.532221294487763
0.54865962858938
0.52783598720609
0.554859552366032
0.534822576590522
0.542400262954112
0.523720689600016
0.545899893997385
0.533689272155593
0.567872651653146
0.530584551902423
0.537858935456061
0.543285786468611
0.566443591344178
0.540029741444016
0.556173728974998
0.540012575651954
0.549706940691116
0.537512077356043
0.555911333557632
0.538197938291806
0.559568624041958
0.541105031358099
0.562360285310312
0.548319750944492
0.559682419382505
0.53916902163261
0.553953606888043
0.536923263781378
0.543713370030253
0.540345507745877
0.554031363630003
0.544009912637705
0.569899084558382
0.549260144570005
0.554862670156911
0.523687453439912
0.543654029723257
0.54417543649157
0.552842626548439
0.528395781869236
0.543974385298174
0.527732119872867
0.552225579993754
0.536341576754394
0.544566415487335
0.517953866164018
0.533381389188349
0.525252521342847
0.531499970689249
0.514464708200232
0.534539921706736
0.513113392706374
0.532477509919564
0.512437724047219
0.524732413645368
0.505938893490366
0.508839059024434
0.505124203592723
0.497554738558882
0.489809880014782
0.490729285061393
0.490525429255855
0.507634851651652
0.480690207672364
0.48960415463885
0.465808618515372
0.489531723965829
0.465412939286709
0.482057495229466
0.45343452329228
0.467939242376259
0.449475852829808
0.463315439162131
0.442063407382576
0.447940274522815
0.445410430254166
0.445919737407563
0.428442944251826
0.450565248807981
0.430539115999696
0.445947180942725
0.431435173445801
0.438170080784814
0.417621868426968
0.422428660744381
0.421393212399647
0.429877428816523
0.417731109829997
0.426402097991898
0.406038494028487
0.41096728063268
0.405865067659409
0.412382220866463
0.406523774134773
0.411855579772077
0.386483819300931
0.407273977841381
0.391565576308818
0.40786840514874
0.390421929866029
0.403880015488667
0.381602911707698
0.399530434307834
0.385763371904434
0.395172053436356
0.379212206615212
0.379340391156999
0.371238897197423
0.385896400655071
0.371314705066307
0.38685230240852
0.377155758493016
0.387857711451955
0.365638985541176
0.375482143785929
0.362836756027755
0.380875336219932
0.358372754730707
0.366947981666148
0.364735580721609
0.378304810449924
0.35486004667353
0.365888569759319
0.355812215434805
0.364665234829156
0.35026230420869
0.36062650597978
0.351264076524403
0.36472663104284
0.342281661383479
0.361380029395665
0.352764524552422
0.359081511343065
0.34678061559684
0.360176465150666
0.345247249104399
0.352291218564908
0.341835507820638
0.354247623549857
0.342080744754776
0.347658969830601
0.329916028491425
0.346219701928486
0.328365939010596
0.346482824158253
0.327538712659408
0.342087015026048
0.338704030636914
0.33811917458656
0.340093554960342
0.347276350376787
0.328170015849476
0.341099178770162
0.326012367851583
0.3405653021949
0.325268197183139
0.33230507395607
0.325569113325429
0.326212055356262
0.319510916784309
0.323935755793237
0.321427867623542
0.326541534838602
0.325165233535879
0.337614656758181
0.325383347411413
0.331237241846822
0.319484509470752
0.322820154772467
0.319063243209427
0.325738021880243
0.322376878343903
0.322256976059877
0.317764713679124
0.32453977411512
0.30745323459375
0.319700938379767
0.311385159609795
0.320175273328622
0.306333737448866
0.323488567505164
0.313618381684088
0.313685330480883
0.312291938908183
0.323514382326983
0.310309875954996
0.320130934291052
0.303218446089295
0.313353142381195
0.31169744179319
0.317401370915167
0.307847617977807
0.310705603169499
0.30311594482508
0.320308867604845
0.305883615924009
0.311424176392986
0.302430025601726
0.312321134886849
0.307069309110165
0.313297707594375
0.303668081477525
0.314294942249976
0.297634744396772
0.315115337349203
0.297455562836256
0.308360343641652
0.303659182837421
0.306185204752753
0.295984856020241
0.315590212384907
0.30062423391214
0.314213704947855
0.295830692637438
0.309918567583954
0.297329111573775
0.306959661948332
0.290130888042977
0.304232130742701
0.294357751349823
0.297546879271885
0.296101050529987
0.30443602003444
0.290100960452156
0.30328777650134
0.294009195289218
0.300875308222452
0.290467607021756
0.300586698093007
0.292757295077677
0.30022095855285
0.287927738004723
0.298303421588568
0.286000497558148
0.290916922824502
0.282159845540975
0.290180049271189
0.287485052745486
0.291046970742526
0.285576448047735
0.285112921692112
0.276940827577184
0.292827526014712
0.278447092806188
0.290936650397333
0.276081254878837
0.287998597464268
0.276506142147786
0.290505494808977
0.279281397893248
0.285085467602778
0.277873943489281
0.286511942648945
0.273157215552676
0.283742283326855
0.277139670932785
0.282580747072566
0.277851346035517
0.278847377403379
0.274262131477071
0.284153332789896
0.270263234846405
0.280618786484593
0.270472994226929
0.274599463008682
0.264783599732431
0.278021131474835
0.26856992935968
0.276013501672896
0.266648130937016
0.272436450749784
0.266850936077805
0.270484464157946
0.26285992968107
0.271340549312962
0.262781697709786
0.271799063884151
0.259089652597068
0.265912998699467
0.258077402578222
0.260579518442727
0.25911841192241
0.2633343682075
0.260568256743659
0.260118049868275
0.252537983388365
0.260220087352209
0.259660200529957
0.253844924303077
0.256183652107391
0.259706959146146
0.247882114179171
0.258375205390902
0.250196777029329
0.257874068642425
0.244631141272308
0.248315749657293
0.242130040520362
0.247439394436364
0.246080655712567
0.247087152238999
0.242619402214694
0.254260871280454
0.234696688866822
0.250126797430913
0.240658902441111
0.248364502523912
0.234304644262502
0.243817225651233
0.232799977105642
0.24029181136899
0.234507307158278
0.248937771075596
0.237604396691572
0.244896270946912
0.237557690039384
0.236225197627552
0.229585843777814
0.236064351823165
0.226314001160153
0.234634946435219
0.233392336550223
0.24164620250094
0.232053045848354
0.234396539449372
0.230261724078801
0.23689839688431
0.224549454103903
0.235810203498179
0.22290012911563
0.232242129471509
0.228793309389506
0.234169900211104
0.218558860804471
0.228833623862632
0.221769159002196
0.230341768688931
0.220599737088373
0.226869150321495
0.217844095476321
0.22175282146309
0.220429868600348
0.221262875653662
0.218401872072393
0.226009563176029
0.216145430870917
0.224817043596888
0.214368021753691
0.225599774386795
0.213426302365513
0.223650689230971
0.213638584782483
0.217671578596976
0.21224326110881
0.220774351981157
0.213013969913935
0.211669680850745
0.212688870610676
0.220360847788754
0.208053374537272
0.216099531025348
0.206967372676853
0.213417698982195
0.213007911663531
0.213784155023161
0.209038266528021
0.213245317642429
0.203871345313934
0.209348775280223
0.206069690625847
0.212588150035428
0.210755542910758
0.210555687285845
0.211204270882416
0.210077121428683
0.203292747349829
0.212649659671757
0.206779776059364
0.214143342847621
0.203847332153258
0.213244737324538
0.202620460829938
0.206983350789144
0.200656586653854
0.204466426361108
0.204047681070261
0.20490082580326
0.200421908347043
0.207765645601378
0.200773262733969
0.207025470784969
0.200597295666403
0.204088926252516
0.200316578739382
0.20665379984943
0.198371268121106
0.203728532859932
0.200237677699819
0.205603747304792
0.199251199315567
0.200716074469435
0.197326462993635
0.203268334653009
0.199163307971847
0.201258946404155
0.19292835662116
0.197673852692567
0.193081726843668
0.203009471879443
0.191949823925343
0.197572334849402
0.192443220635441
0.197171100916292
0.189921405302826
0.199714432692398
0.193167354858671
0.193421473033225
0.187982973160103
0.19472241830685
0.187787892493367
0.194906179823557
0.193068210421879
0.194309583745205
0.189818275393101
0.194352903379042
0.183955004726179
0.187899746406308
0.189938127366097
0.190181322497565
0.18480546381483
0.187827360460549
0.182896339095545
0.189563123306459
0.186690250831611
0.18972742539102
0.184163151844599
0.191147557986392
0.185954164107563
0.184795923469945
0.185775338435529
0.189924342011197
0.185174834615189
0.193711859150042
0.183635823692144
0.188006958678826
0.180303061008841
0.185767493299469
0.180225869879501
0.187250714326273
0.181706176773868
0.184439377681647
0.183069117616758
0.18358892574989
0.179860292530877
0.18586367792536
0.181927150184402
0.183722827858868
0.181546351544341
0.179548533888171
0.18015734869909
0.182583867360888
0.179074449599308
0.18408551357723
0.179738217626143
0.182093804100273
0.174571367898063
0.176617469953454
0.172931026498833
0.179854074816377
0.174776350604824
0.174221889905124
0.173607491989992
0.177948552634236
0.171942495090019
0.17823803128976
0.169828884651108
0.173469337646449
0.170498776120235
0.171935171879252
0.170878064100639
0.169659783087773
0.165623257602843
0.169144496617286
0.16762436670399
0.167749922554306
0.164330882405961
0.167516557618508
0.16684732807217
0.168950966001309
0.163190218734263
0.168380110325195
0.160880316582142
0.167497669235164
0.164934819048395
0.167302170069627
0.166572885397082
0.16841108312993
0.165891988164198
0.164165750212382
0.160387595871559
0.163531415056442
0.157487235081222
0.16279054757234
0.156771030492885
0.156624468444159
0.158427801779198
0.164306576919107
0.159909107867265
0.158211688292801
0.157157835209011
0.157869510057683
0.156250365428841
0.156625570111639
0.154845604970057
0.158770003598953
0.156511103155375
0.15701094160597
0.152235806299948
0.154815728152494
0.151369402055503
0.148180124463366
0.146656398205965
0.154332802005501
0.151764213309637
0.152576848913628
0.147788644652404
0.150636312111435
0.148012343198327
0.152093005903643
0.148550775409477
0.148821584616031
0.150981660617743
0.150611372221582
0.144407563572486
0.147981110794498
0.144361798375265
0.143564488856268
0.14327162001158
0.143496955387681
0.144355548183032
0.143869236352048
0.14059072542034
0.140909582901151
0.140138024029373
0.144130746257139
0.141139873022499
0.139712201768821
0.137474763810394
0.140267241014075
0.138205606523013
0.141145195843344
0.139860760595773
0.137846997419957
0.137308531568658
0.136605184921245
0.133775448666811
0.138257720877494
0.135648915737069
0.136195383471058
0.137535712815433
0.141596768087913
0.134931480576873
0.136130158369356
0.138880416869891
0.137343510188394
0.133771837838633
0.135372286043808
0.136781419393494
0.132734518034363
0.131217344563792
0.137136218031736
0.136367355918555
0.136934128094187
0.132362317398435
0.131746847094657
0.137475053659789
0.136447316208718
0.134461568452793
0.133291468886083
0.134929459347079
0.13735979490861
0.13168578398095
0.134237056096553
0.1314447018419
0.133467723910584
0.13181270753186
0.135605535488118
0.13552377405531
0.134295434542686
0.135579929721786
0.129516754389456
0.13037364127425
0.137393709767586
0.131085090560698
0.127339326683059
0.137066483574354
0.137863072067749
0.135787151680711
0.137140121066751
0.13072917975824
0.138488217003413
0.13476904286558
0.131547558579125
0.13143545447747
0.12554734698165
0.139588615740285
0.133335693409957
0.132111598880934
0.131208462578752
0.127328510434798
0.12005348961571
0.133272570718214
0.126757994013972
0.131218777608334
0.1257590704514
0.132181326763487
0.120781525071036
0.1389671552527
0.124998539267389
0.141791813333515
0.119107190376023
0.140513794181873
0.116299012512627
0.144060734873785
0.121105588663372
0.145096820868019
0.115852865405121
0.142788549302171
0.10423843223433
0.141400807580237
0.103656578493237
0.15216971657648
0.108796956888087
0.14425519305884
0.0965455428270529
0.15528069982632
0.111894820777368
0.141434735671691
0.0942997684732816
0.150012966713077
0.112481990990377
0.134209840789454
0.115624377982759
0.127869663285109
0.123712122855948
0.112355469602864
0.133031647081041
0.108660903093126
0.134780840044989
0.105476665931422
0.132236977584253
0.106410566424163
0.128249335937952
0.110907862736153
0.127632805768788
0.114009553053667
0.11851215065757
0.116556232516547
0.116232232189916
0.116711357417628
0.116649677181676
0.114488495652308
0.116890533314151
0.112240036409791
0.119933731707473
0.113059583487533
0.116651776477344
0.109998982058788
0.117045711592041
0.11213594523952
0.116126781827059
0.112089306400865
0.116343373761799
0.110577729116462
0.11241247655901
0.111418962050148
0.116349979836206
0.112563356994522
0.112220580726641
0.109693621186847
0.116506880154237
0.11355579999003
0.116430152646182
0.109138188760157
0.114087807966954
0.107607841091053
0.110025654695734
0.112375341050185
0.114278663360221
0.110641441961134
0.113984184801237
0.112003950870579
0.112832037365735
0.111487873446118
0.114659592504491
0.111828398565586
0.117833609499479
0.110945401328402
0.11312878768443
0.109590029089343
0.115403045086972
0.108949784019152
0.111297807139706
0.11090162827109
0.113450339823865
0.110257149717612
0.110028673825627
0.10946816230262
0.110230204781722
0.110098925023952
0.113498243887579
0.110026360725648
0.11124346621653
0.107063142188578
0.112380863189022
0.110004562922244
0.11112217539597
0.108338370990435
0.112902057711856
0.11090617813469
0.109624923912065
0.109555939845414
0.110403875486383
0.106073696018086
0.112603893421314
0.110405471055494
0.111995566028064
0.107397843980088
0.110807303039382
0.109091106961826
0.110170398029572
0.107173656730377
0.109560310505971
0.10739201419512
0.115104603142004
0.109491896230295
0.112618024271112
0.111716826612681
0.112411824403326
0.105869342368923
0.11017338400676
0.110555022097959
0.110928499879828
0.109457441605588
0.112249509604592
0.10935339815058
0.112814522120618
0.107193197772605
0.11165901636052
0.112648374149172
0.111789528010584
0.111525056493958
0.112528332316435
0.108316022453282
0.111586393594222
0.112018199352746
0.111678832322782
0.110276786227377
0.111171471845259
0.107862373497373
0.110529089518939
0.112813837282773
0.113784971122786
0.109020621845223
0.115042453822852
0.109766632637318
0.107897922251417
0.108499432703502
0.113600847314176
0.112656742362068
0.11128715760708
0.110942275345146
0.113143324914868
0.11044095363031
0.112097468293478
0.113311014569044
0.111751531828344
0.111610005883158
0.113836268327335
0.111438473687284
0.112875466263413
0.112451294399167
0.109790367668016
0.10924611859876
0.116704020012463
0.110823652945495
0.113553253760028
0.107640182283147
0.112225295652142
0.114760611832716
0.112610432310715
0.111950877180833
0.112855342133847
0.114356250627574
0.113434135837605
0.113822367835595
0.111382682084352
0.113476347422448
0.11683620173818
0.11128182100846
0.113065375221697
0.114143426052885
0.113638935019165
0.114502630276452
0.115211295962156
0.11404342185778
0.113551545716778
0.115771635207866
0.115947216237016
0.116901626172501
0.114788742244851
0.11454847556368
0.11593702923664
0.118366844420094
0.115067388902951
0.113113890810715
0.115886199399958
0.115190896309801
0.11592089627286
0.115286095504691
0.114457790498239
0.113938854703298
0.117469697311331
0.114940864187033
0.1142553306967
0.115593716270672
0.117074220052623
0.114399157695314
0.115368861909789
0.114250542860453
0.111788905272593
0.112414828116293
0.110210140226489
0.113935433801521
0.114799153655252
0.11647101654699
0.114454257433519
0.112337773779058
0.111780951936215
0.112320750563946
0.112405385470018
0.11051836084055
0.110690042589454
0.111237384454004
0.110776593857704
0.109028022132434
0.110592097881666
0.112935489363284
0.111025655309214
0.111402102909983
0.114594290131873
0.108620437449301
0.108726029712559
0.10895041370286
0.106411135957105
0.106473905796961
0.108217295763643
0.109553040512794
0.109792149058603
0.108999865630811
0.110034249045583
0.107453586466696
0.110290891844391
0.110445930522187
0.106065164031864
0.105693362447752
0.107635925493661
0.107642473041779
0.110160153672467
0.109758370266795
0.107321464188785
0.106612192094337
0.104829031705711
0.105916656905642
0.106918065471956
0.104899317440346
0.10605372850958
0.108799915231083
0.106672474151825
0.11073418696111
0.107355244866143
0.104776579421718
0.107178105137324
0.104187394999147
0.10525830460869
0.106878248314502
0.105840208669715
0.102185734190912
0.101835082510703
0.103914347125702
0.105185853493526
0.105670704026907
0.10549929432711
0.104385117666489
0.104756004096827
0.105143944801871
0.106019008596156
0.102913848624431
0.103700980108423
0.105331196133099
0.106490582337975
0.105214220789718
0.106107577095448
0.106499575123007
0.106794823432837
0.103911678331476
0.102622803990303
0.104273461310171
0.103956755957408
0.102857732837476
0.103430356409467
0.103247283316978
0.100462529856061
0.105405160548134
0.102022247238886
0.106951186859254
0.104609305878945
0.103853266373766
0.102305248112446
0.099935899188254
0.101498247032412
0.100321219484301
0.0990174904744696
0.10148999003581
0.101439665415034
0.102354293795547
0.101948769456354
0.10325184501642
0.103995401775089
0.101868693956685
0.103274497222244
0.101953271514917
0.098704492212735
0.102144178941855
0.103473669030652
0.0994509475850633
0.0972089390940554
0.100808381344087
0.101245689349079
0.102099637963013
0.0995778918512987
0.100212239359896
0.101269098026352
0.0997712543460616
0.0977739704423571
0.0958455265910668
0.0981577392307714
0.099155204585701
0.0961896054277
0.0956356348043664
0.0948188239816597
0.0959620833407269
0.0971133537669526
0.0964499984913719
0.0951899322238818
0.0947029396566766
0.0940001886460106
0.0939734902936609
0.0949461143982411
0.0923760688114399
0.0950675672216656
0.0893580917033797
0.0947351414661699
0.0957483113391665
0.0911421187129813
0.0997319628193971
0.0918113560325181
0.09525498550835
0.0898426119281189
0.0920680900858839
0.0893059903201268
0.0879366526411629
0.0909305159257599
0.0909052761203833
0.0868183731591637
0.092045093956608
0.0879288180313426
0.0895599098673028
0.0868917833986849
0.0899954726941272
0.0872874897384035
0.0895095938819032
0.0873031208853748
0.0875333295388188
0.0848531342857968
0.0879880237801381
0.0828842311639909
0.088555803671142
0.0803336778152649
0.0851310195687935
0.0808660913269485
0.0868493055292774
0.0841426478920642
0.0878120172085276
0.0827762936384784
0.0852062763241855
0.084702318638769
0.0861988581835688
0.0800902240060622
0.0815952810328292
0.0843867072908392
0.083994693088555
0.0817993103377556
0.0832117484850075
0.0837937271189032
0.0785271355300824
0.0842412963328171
0.0817849132533333
0.0808769780462426
0.0820725095786339
0.081161269866384
0.0820255314129233
0.0795095181584927
0.080736070411694
0.080575206643929
0.0834348391678972
0.0768587223705487
0.0756422677197376
0.0837685394487192
0.0837250461189421
0.0810222145847115
0.0809556513006808
0.0810245396153051
0.0767987701997185
0.0805045985301575
0.0787977822625778
0.0797043722035804
0.0780050681682955
0.0778920219798816
0.0790859478179669
0.0790005215797445
0.0770885443286115
0.0784778978728031
0.0788419001058726
0.0781685362084938
0.0778824795614956
0.0758891696995071
0.0746512331875754
0.0769005891898657
0.0765860056095938
0.0770637515765363
0.0718072417211093
0.0795621683926648
0.0702642104111875
0.0743554305532384
0.0895879456049468
0.0763507879672284
0.0789340560828969
0.0736161117597441
0.0801435061874274
0.0698930639604839
0.0786545957060868
0.0721315762451484
0.0757631654762945
0.0701910368961871
0.0748813100287878
0.0720987543956863
0.0745288888469618
0.0713539866367876
0.0769664889387305
0.0709041662235364
0.0767397194522103
0.0687120705434135
0.0766993691904155
0.0692401275632551
0.0755039061579831
0.0821027679319114
0.0766599859820076
0.0753123167364883
0.0780229949794696
0.0597066155175763
0.0892510173277254
0.0733186503520798
0.0834609670277892
0.069057026592133
0.0762176684798622
0.0678384918894316
0.0802199254468293
0.067527722128367
0.0756490170454816
0.0765284291001664
0.0727707823853526
0.0758066762095017
0.0716753290651329
0.0685665507180512
0.0713625865240517
0.0707369238118893
0.0721879843120729
0.0725513299894805
0.0743034041016603
0.0709510860807124
0.0728544776741713
0.069196404902736
0.0763436418283754
0.0661869160662906
0.0717985234376883
0.0738263227826588
0.0776463117229224
0.0687339822391448
0.0759529222771173
0.0661285812186086
0.0720905114891411
0.0861667695442074
0.0732974024889895
0.0789414090113807
0.0691489756608877
0.0737405982952444
0.0741157508431288
0.0735747364232748
0.0694982981716421
0.0738637496022204
0.0713779649922316
0.0724401511549373
0.0710912851263439
0.0733931124823123
0.0731247963511113
0.0720661904285009
0.0725527413066589
0.0708515893482213
0.0744929088043967
0.067881019121502
0.0778220058892896
0.0626372180676103
0.0750351595916037
0.0786582705424251
0.0784890736472159
0.0795300609469331
0.0754563014096877
0.0733667675816015
0.0722937837537231
0.0763427000443884
0.0725074613073869
0.0728487562518525
0.0723033268767888
0.0765110055977481
0.0732797591002407
0.0737536262238958
0.0673524986074702
0.0744042344713158
0.0707684959633872
0.0750489890604589
0.0686704404862055
0.0762300211254843
0.0678158211464373
0.0769108318238198
0.0634547701792381
0.0822608636369071
0.0709312579824655
0.087320499278854
0.0460022086244956
0.0992643147003285
0.0842262518616646
0.0763387397366273
0.0832531862175412
0.0717460226468923
0.0779277039546193
0.0701186047817003
0.0746915160988819
0.0797371325901493
0.0765417537351809
0.0734558838714733
0.0756361125626283
0.075809937950338
0.0796896529463624
0.065506216771838
0.0669036716803718
0.0971782671453928
0.0780164630280503
0.0881342745792099
0.0733539194298328
0.068565211281856
0.0991956752315999
0.0726537547216157
0.0842861676475402
0.0735489554851297
0.082831192286294
0.0773804990527613
0.0833701116478795
0.0714405198914851
0.0833465718060992
0.0780977797284614
0.0734544102554135
0.07760369736098
0.0744851692608544
0.0820948748330194
0.074598502901163
0.0813577819446396
0.0922532634146595
0.0739428037572581
0.0858447454696009
0.0852977173307137
0.0812529066291725
0.0794695547128144
0.0854553914550014
0.0749156798245661
0.0795315208180484
0.0898966724145374
0.076806930814303
0.0865995806771421
0.0928861267626753
0.0768180148745663
0.0874495441418816
0.0790099101150243
0.102102431533916
0.0740206478081237
0.0788191647563287
0.103311689671611
0.0746989558143138
0.108614750295395
0.0746120230097731
0.0979572684327592
0.0761564866380512
0.0995609509052012
0.0640184929257075
0.107234916060992
0.0776414288341651
0.0988674287037167
0.0759088468480694
0.0936850262223797
0.088096439971832
0.0947959387967332
0.0935476223483012
0.0891959562379982
0.0813186443211686
0.0975747429390731
0.0947531880346133
0.0646796292954739
0.114089132472913
0.0955577891075023
0.113741413296826
0.0988645908657171
0.0721970987850287
0.133071099917442
0.0885196766158895
0.103220789669756
0.0876713851752081
0.10211825731548
0.0913298469485621
0.0800373293316859
0.117100219041989
0.097365983842065
0.0905310117577162
0.110389651701688
0.0765218322331631
0.114214158844
0.104605892295324
0.104743366345472
0.0943091505318195
0.111772197197034
0.0666213497673043
0.134088837466903
0.106616689919075
0.0990529004199534
0.122116501811775
0.101802969471494
0.119381300690091
0.105115412683253
0.111247543818092
0.103710621904999
0.125922313824082
0.111250538934266
0.102448957106715
0.104170536517105
0.140048128629581
0.103843070623611
0.135756176092163
0.110053130841373
0.105280501238897
0.113419747500726
0.160055100751073
0.137367986036569
0.136426838200966
0.107158770397903
0.145126503155569
0.122986470952451
0.133313344024491
0.126987417020058
0.131665297091809
0.133620542789619
0.124685523990659
0.139842225095986
0.13378766338627
0.135258606779845
0.141925009800252
0.123431993344295
0.144846182644022
0.146189341642737
0.184019258802589
0.126883301531926
0.187080463350683
0.15743577310282
0.158197739918985
0.152696846877029
0.147013174600339
0.160301583461033
0.15897838527485
0.161165659257942
0.146342899976281
0.177122168019821
0.169521155858368
0.146740917318941
0.202094827232075
0.154937537384456
0.187079226006271
0.0660944858374811
0.359103521302203
0.179497407509578
0.205519730612265
0.180921768154487
0.155414797443298
0.261940151030793
0.214276142403162
0.209424502152971
0.218554986846756
0.211285405758543
0.220453872259556
0.229588962047976
0.229997999947724
0.239946951025994
0.252252085211403
0.228345930110835
0.230959158745195
0.279554458156994
0.298052754074979
0.298919854226354
0.269010409798864
0.289442140545948
0.304702930477021
0.293316840677256
0.307643479066446
0.310703588886832
0.276503125748829
0.39483181031358
0.324886768375341
0.350932416260437
0.318659718724407
0.389306240990963
0.318114094323033
0.396428109816823
0.397497338833125
0.374430292899475
0.388623527610026
0.379242551861158
0.416876932148217
0.376141098328105
0.444040032211908
0.426636844345717
0.425556109126814
0.42961352670463
0.434954437607343
0.440610608313432
0.441171888491171
0.461270121997917
0.429888172993519
0.492671373152762
0.441572047322489
0.580347500879665
0.509452054721802
0.458362824849015
0.493275806571412
0.435504193222228
0.521729872411659
0.458989476998528
0.490965103705069
0.503623502764749
0.471761097112765
0.484855995044542
0.466913277106257
0.49192031001804
0.476337766347481
0.502860482321059
0.465347798664312
0.507040477374526
0.487477589151297
0.429004000931973
0.575708300080096
0.493993425554571
0.503865489724031
0.484086902623698
0.496170834928771
0.482517851723133
0.492280993390948
0.454318269057232
0.528260556925744
0.47390796169473
0.512310460687404
0.450505715903126
0.495604780402226
0.501165858434381
0.470414960513713
0.473310823994214
0.462081777129126
0.463914715914162
0.459793448517299
0.402357811826309
0.517850818985139
0.450801342724523
0.474138100507439
0.45590638912115
0.458816597973877
0.439961315847684
0.454610022821716
0.448629681210663
0.461948733442769
0.432159636216683
0.460764325400527
0.44515042980069
0.445087737261246
0.433019318014456
0.449233131889245
0.441351307309486
0.43953669116184
0.433602497801745
0.432889412252711
0.43035576822535
0.447643061587704
0.438980848148467
0.436933779528849
0.436483197177104
0.448422748602487
0.431426491094796
0.435715124540909
0.433844528117392
0.436421248893763
0.437485837208562
0.430915003716435
0.427075253605363
0.431280099240122
0.431176997315502
0.424591832086523
0.426054802331929
0.425004762897563
0.428599877309718
0.421547589630939
0.421023570246083
0.416674836416229
0.427257899513134
0.385634711523039
0.420140325653449
0.454079736342491
0.39522276551775
0.426067459963277
0.386919870738651
0.419014343280947
0.367539651928869
0.416156199030785
0.425410913108024
0.39159559807017
0.386314323576598
0.381976578157344
0.373847829113267
0.39655885955613
0.359826012590111
0.389183080995311
0.349775763175724
0.347313386149639
0.424847652573472
0.314498221614921
0.440508668425194
0.365251160184225
0.358387019128883
0.311250118263314
0.398184912172421
0.340023623249203
0.353726701471451
0.335417112727488
0.340023807529025
0.356947736036909
0.323669299145421
0.33980113274065
0.319014394422356
0.314297117940828
0.351773102185722
0.316289195333853
0.303030071267439
0.358303509292055
0.303067015337868
0.330851608561221
0.353763225197253
0.350159686129605
0.315441250227593
0.313255069554971
0.310874914599578
0.275966793703745
0.339645895127972
0.312933090078803
0.295110211863138
0.306307399112727
0.277036435295817
0.302212518824266
0.283665658513238
0.31670235387596
0.247842254907302
0.332552398451449
0.280310729613732
0.27419371029018
0.298132922025804
0.282128073960401
0.326220319242577
0.285126330797724
0.2698268037102
0.25496306343473
0.325097460070414
0.272911094267304
0.287877540707229
0.275149366278557
0.248426004662826
0.294645992186859
0.265183723945918
0.255734897273638
0.281062222746497
0.258769157212593
0.287962974315069
0.264554085011862
0.297193648616465
0.282245078059791
0.255887525387664
0.267391223693188
0.255816548942584
0.266938709641308
0.25742847038879
0.238736798441046
0.29942714034377
0.221797733691585
0.305848376029591
0.279630320114976
0.265167168582741
0.275261727905743
0.27593144429297
0.269245802378016
0.29086793163706
0.298388991879605
0.310401917752284
0.261918927665809
0.313832401218062
0.285636284201106
0.303343048435774
0.292725638438285
0.311567362459935
0.299287773018372
0.320302093034615
0.320828300526025
0.32603028943806
0.330717308772748
0.344232962031636
0.30976326334034
0.39297338914844
0.335487007163706
0.363775754860229
0.386548348761318
0.380901790473616
0.41071980125614
0.375408509085248
0.401521703582149
0.392436586532135
0.40368653577462
0.415708830207177
0.386181811369788
0.456566900054584
0.427466056776937
0.42953125290647
0.433201857058171
0.438662893423481
0.430573564587808
0.439914398593382
0.471162164483854
0.419917685348412
0.518107335366263
0.451383404837029
0.480395607299479
0.453899352349162
0.46344706860238
0.475080803253711
0.465584088463336
0.479990388899547
0.46195798671068
0.495354033188559
0.486087807684119
0.470028124190724
0.491795620354055
0.48440351119215
0.494307157379476
0.494605369054392
0.500690857171095
0.50129012825569
0.502119263204018
0.510041255833229
0.465293317050069
0.552122164275276
0.558533473780431
0.511242438341857
0.546092935978557
0.522399754147049
0.552670641008615
0.527009426305176
0.543933584911781
0.565287986171736
0.553069437016971
0.563391008312474
0.555418095205779
0.561504897469613
0.561683792136967
0.582320938274503
0.586695675083596
0.568063948880186
0.591888776876374
0.528941465964493
0.66095625056757
0.577513484331511
0.614413895617041
0.59835912913359
0.594491098289202
0.596666842121137
0.608765924173238
0.594253542401205
0.614370858411467
0.612745114444421
0.610387280947678
0.605460768881757
0.60061034322582
0.617902928370755
0.607411053915709
0.615377941477981
0.623534284257857
0.602655112189387
0.608780939608675
0.601690423176572
0.602738172459388
0.605386672996098
0.63479798037872
0.603004166729428
0.617411023736903
0.588634521646011
0.621488114060282
0.630561629743153
0.611487221713189
0.607612951231455
0.622024109442271
0.60553962672392
0.620177375171211
0.588934149379826
0.646399977420604
0.628836909283654
0.637167393704263
0.621121564330708
0.625878271523383
0.63384258939453
0.639894343414784
0.63622161265953
0.64956534502251
0.644374096053183
0.644560017568888
0.651732655393831
0.649497986999173
0.656385583436964
0.650078626818224
0.658220352072647
0.658859374604434
0.646081174281107
0.659506697244201
0.644623824040867
0.656300764458694
0.649867824268287
0.646259546625643
0.630695952704893
0.633906736350974
0.615209349891753
0.637050288337645
0.62851653140413
0.609882253392003
0.630484478376413
0.595641600703916
0.606340174307786
0.59029052444838
0.587284876985352
0.588521008545643
0.588752408727527
0.574557867991426
0.584194821546986
0.58369585403713
0.573948539963906
0.577757854794345
0.58122513872704
0.574180900853158
0.569576690041641
0.568299419253407
0.558176902893249
0.567168980471029
0.56515102313703
0.56020820655883
0.564597964225189
0.570806869652355
0.585042441632547
0.563573682928513
0.57773453353867
0.568726184410586
0.578078405283045
0.566867141773428
0.563450304880039
0.563250605818923
0.566205666561176
0.567160846554708
0.56452300079856
0.562389838850676
0.555319443830046
0.554799761885397
0.556321898308167
0.563516586452911
0.562529036868694
0.561043137207462
0.558905140621351
0.55880514277403
0.560599674403041
0.56422890964521
0.558579624759161
0.562788486109025
0.557881959212177
0.568107875061122
0.559928327377532
0.559622504586992
0.56720939536198
0.564753268894359
0.566350205805226
0.560601910203598
0.561314261133306
0.558553596444708
0.557198444570398
0.560958586891882
0.562824789650067
0.561626332740087
0.549757897471176
0.555223783839222
0.552330184910992
0.551087061951295
0.54170957208468
0.538893390632945
0.534705107969831
0.537330338232402
0.536342922143375
0.535362465852645
0.522576892709395
0.520582758330175
0.513873288268545
0.51225542643336
0.509701972013047
0.506584055899451
0.502842524051223
0.499265753946741
0.496695161034136
0.496268510630318
0.496169128792207
0.498019434385248
0.496238771407274
0.493759734154509
0.496327150960286
0.493513727781315
0.488299827966398
0.48907902273099
0.488914802014152
0.488204645822173
0.490247403329764
0.496923127281545
0.491279684861687
0.496240645989276
0.494554771438994
0.500996169852493
0.500375451879259
0.497884026653879
0.502367584019648
0.502607971456121
0.508154718945615
0.507669097151776
0.509184344483736
0.511894778536933
0.513009488837933
0.517214122303755
0.514316532143682
0.514111796019373
0.519329030008401
0.521032884236491
0.519564636863726
0.518924007737677
0.516240887305584
0.518820651329452
0.519336478444441
0.517564823613642
0.514870089017414
0.51550631491515
0.511826691799952
0.512623969017997
0.515647423671387
0.513968330946641
0.511304349227405
0.510636367309139
0.502387842719232
0.503687246654909
0.503376534957846
0.49542143085695
0.497532303069281
0.498349884623002
0.495873275887651
0.494611877367231
0.492358190310353
0.48834599973214
0.493057840922292
0.490988782836396
0.488293535044603
0.486423280512797
0.484597338848087
0.482808598023327
0.481110450997898
0.478779705744547
0.477293900286401
0.478502567784939
0.476297100968444
0.475643707241409
0.474504646998755
0.477502449198461
0.473656477023495
0.472790841329131
0.468319077892953
0.469281617880635
0.466594661811569
0.461283665209443
0.460526140995116
0.456963351469736
0.454364467872275
0.448480367104199
0.447957745399093
0.443762233033687
0.439078228989322
0.436574471742289
0.433394225834171
0.428213165275213
0.427324126849162
0.425333398539907
0.430972280413509
0.423391792074963
0.420104814216946
0.424273115141767
0.419953748939486
0.419187240122459
0.420019483632389
0.418254284027992
0.41295770412658
0.415023547613482
0.410145714828413
0.407722545687626
0.407111292826811
0.400156390971902
0.395760498046064
0.392669778082906
0.382402211565391
0.380890195433981
0.372731381223347
0.369777028601745
0.367033654947266
0.368179057416678
0.368994266513772
0.369808063066216
0.368802946077434
0.376915935596057
0.379689408568944
0.385673828634956
0.397825717799252
0.409698147479149
0.418273295442952
0.433525253970945
0.441496638781263
0.460478126308742
0.4760221709946
0.493471436937976
0.506049200392111
0.523903454773429
0.540614223751812
0.555766597237857
0.569481852243191
0.586990045290687
0.601534907935935
0.61795625055568
0.633474701352092
0.647494086273986
0.660863831267397
0.674672910848096
0.687133424540051
0.696302839725197
0.700921726737672
0.712024190578471
0.725029724984218
0.743742275250241
0.746232628505166
0.756454171276961
0.753290130805015
0.766262923365259
0.763912995697909
0.773766560261751
0.785678294803694
0.770961539422488
0.77585263058626
0.791737468849304
0.779855842124199
0.781743408999303
0.785316586867029
0.790251852136174
0.793183237202306
0.791256961520551
0.796726145212804
0.796427569596524
0.794233197735283
0.806561625583077
0.801690733886457
0.804069616841611
0.811771329722243
0.826011810551411
0.821769702809742
0.830836996383545
0.847753467108685
0.845916992072785
0.849486633602133
0.864131632832934
0.867218618865706
0.882939916206226
0.890547102813889
0.890907109560378
0.914022683831099
0.917854661137212
0.941352698281312
0.948720875588897
0.961491270840305
0.975001875097888
0.966367539798887
0.988834917445684
1.00691461380346
1.00604006025479
0.987860430007306
1.00058753107635
1.00544605781624
0.993717526884611
1.00780119107233
0.982768494696826
0.983914374361295
0.984165241780273
0.9635752541911
0.984968828512438
0.98264486885241
0.98280429964606
0.979855901874919
1.00989394645109
1.02120040839228
1.03783258530475
1.03044386049321
1.04558290014693
1.05223678105896
1.07964274423921
1.08791181826378
1.10754583215519
1.13225576057151
1.11627349048437
1.1424352461691
1.15810400315763
1.2016873530261
1.18970870445511
1.19921533589116
1.21877577049463
1.23733704330858
1.27311999786231
1.29220944741204
1.2828960705803
1.33985786054231
1.3259265052744
1.35138396447066
1.41934601404084
1.3777748421275
1.47794585305408
1.41883332732647
1.47681348491857
1.52689460013603
1.53725604305627
1.51826203701905
1.59260806894075
1.67508032443331
1.57071217721212
1.55941809485754
1.66711246065544
1.60321928540665
1.64320025045624
1.69542065206698
1.67739398269095
1.6345314184636
1.6722426679075
1.54280329589438
1.65311603686072
1.59327962213218
1.64407155297386
1.60486411943392
1.65522321547605
1.58080138190959
1.76050651637085
1.61484160114489
1.71095847161154
1.68896346651903
1.66290555386571
1.69082635882232
1.75218758608286
1.6897941163916
1.84048953640083
1.80368465233041
1.81865685750517
1.79927588329253
1.83998137983511
1.76372087773068
1.9521640966996
1.91739950593122
2.29727944613441
1.86437753918029
1.79867997560275
1.90343203469384
1.95359064291606
1.79230744128046
1.99829460772702
1.89579801190624
2.1505793154687
1.93624602089589
2.1859806605136
1.88569745705591
2.01108174071154
2.05299217856114
2.12730506285596
1.93492553131662
2.02653019661786
2.30604253824756
1.91542396414462
1.96579534700213
2.15761850868082
2.01502181706223
2.07018346039466
2.1318384349245
2.06855241970744
2.17521352797536
1.98960537365479
2.01997014983518
2.20258259711281
2.00306353673625
2.35497688205158
2.17287819015509
1.99966692665502
1.79729351174305
1.95467728817872
1.69364494124256
1.89796343908996
1.69442038828647
1.9034553273922
1.61556687156712
1.69960687193874
1.62468578099938
1.71677281010085
1.61549392388428
1.74466441174042
1.55464145286723
1.66743547767925
1.54230840134946
1.66184284545475
1.56063335791662
1.64058831355681
1.49419505815817
1.53057366179392
1.48172517654971
1.55462068717371
1.49495967454093
1.50358480773924
1.44853996599485
1.4485301262794
1.40222432897926
1.41822352145788
1.37285022363892
1.39342927388466
1.31352884592916
1.36434072102713
1.32934973447144
1.27230493507658
1.20348771002506
1.19361510181085
1.16405815354762
1.10130601990933
1.05164266705478
1.04325161563191
0.948659564216211
0.935635503962738
0.886299654564149
0.856135047992545
0.827237678852438
0.807879031595576
0.775017215614182
0.748321897726343
0.705577674094543
0.691156345070393
0.671629468533202
0.662102838567292
0.648024441613731
0.639487617707607
0.622564617489122
0.627360873473632
0.609597617990103
0.612163639744265
0.59999321145685
0.595119280840184
0.59283943887916
0.591721774253437
0.582388952636777
0.59511563594696
0.603424595324602
0.594488544981164
0.582176323636159
0.60323156900598
0.584008533904108
0.60252325091744
0.587728001072289
0.595030633477013
0.577568119357583
0.573986250392001
0.575590599901282
0.570103086231065
0.573254899956333
0.564737180461628
0.564537753475177
0.556214742499657
0.546141306767362
0.545664617231703
0.537335441064031
0.535210630671549
0.531150588755488
0.544260227689512
0.536825934340966
0.552853708014988
0.538701373364822
0.558202104297678
0.545135166649512
0.544988273240638
0.552113245048046
0.55583542746924
0.565966090642673
0.569674205887691
0.565275648465471
0.574129559628455
0.572802145912471
0.582547437017207
0.581842532223524
0.591333951177375
0.580456736208985
0.593178418739651
0.577719300324781
0.57832963923076
0.571690105590794
0.584236649534016
0.587554510522526
0.587540909585764
0.579566834732857
0.596312499898211
0.598881306085522
0.611234974867441
0.606018774295191
0.6259250182933
0.62493034989246
0.650766990192154
0.650668720868099
0.689223269265465
0.695849281925704
0.719129714284905
0.727970071466115
0.742097790481693
0.73139060986896
0.772073319541575
0.758048917424019
0.776275035228795
0.742055533870544
0.757724517952981
0.732631219217627
0.73578998311205
0.708261221451801
0.733056123583754
0.710221962092583
0.715820621523348
0.681098151991581
0.673923526712787
0.673277424123306
0.698370877705123
0.675342085541054
0.694042792125856
0.685698567445849
0.692529968892395
0.702214610550295
0.701383502672789
0.676959845152494
0.696038810611787
0.671953259003553
0.698183614644209
0.665438311761026
0.666661573364141
0.654307787816934
0.653782740583617
0.640705120692756
0.660516282019211
0.636274502939217
0.629212893129958
0.619850703979493
0.632693893191197
0.601135661132507
0.624557660800313
0.59828009488167
0.612982829128923
0.595805083750493
0.606198519760557
0.587740104984366
0.598186048973418
0.58749789565665
0.575433610775139
0.597100812673161
0.590360081525399
0.586864710975964
0.574233976156121
0.550729762406269
0.588482301675529
0.559156459522807
0.587056469356244
0.554925148210784
0.56020592822454
0.54221091271455
0.57206239083896
0.542623362759434
0.557160047374415
0.542844868141928
0.548594850951303
0.532334224061571
0.572325544041612
0.544076830496126
0.553325543020916
0.54164512192736
0.527019851900137
0.526514554063085
0.534559862515768
0.541955293005703
0.53847352688817
0.528853862078213
0.55453314624574
0.516150569567538
0.531186108562044
0.524769306552123
0.545368662641866
0.529566386305772
0.505941990232662
0.53442842337732
0.541254310596346
0.541587175011665
0.5493844604548
0.545641858788911
0.549587638559307
0.540867760761773
0.566562985402272
0.53227094829798
0.559097486739777
0.532550134027952
0.575908856316944
0.551166429954657
0.568604133008545
0.576314567720365
0.596965624286454
0.574213923578379
0.584951423221839
0.585103630664675
0.615556080726084
0.597378210192331
0.613816928655561
0.655186735284142
0.653707001183679
0.641526745703553
0.67874770917289
0.687383698688835
0.704849746243683
0.707010767429418
0.775757811381076
0.729644427181413
0.763411229108854
0.733801035400845
0.816089501492506
0.844018710852662
0.862467948031435
0.825034269431933
0.875695549541455
0.83360977871146
0.861027952316387
0.912106301635574
0.920136837117597
0.870598718516031
0.943990947446022
0.82718100869366
0.883783537046868
0.906287773509005
0.966348121177661
0.896755736021749
0.886918110179933
0.926321631682077
0.916412917679366
0.817730659121248
0.961232755550902
0.804950040803724
0.867558440672367
0.869910239453436
0.845683876675564
0.823762404872741
0.866129274035662
0.808136421134009
0.815749672117495
0.775100286095819
0.817770286958472
0.820860065755811
0.853475235277429
0.765867102086182
0.800055487544595
0.789769159991219
0.798048876732711
0.718218030146196
0.815173760962954
0.774888232707338
0.869642361125192
0.757730435415819
0.773317652411223
0.779009729023553
0.805694691021812
0.825677902548027
0.913996813289061
0.704768807089085
0.79885913031911
0.791943072931363
0.784477033551758
0.836685672990798
0.834685538542055
0.813897254929411
0.857691872542476
0.758719211099736
0.837797331860809
0.732067523195918
0.857095042088213
0.789573604852134
0.831616100794835
0.886942306318969
0.906126000193198
0.762734906184408
0.903920387076934
0.742539551354353
0.902119184794191
0.838236162016419
0.894428533331084
0.784188289718816
0.996137780575319
0.828388372819954
0.882204105814255
0.836171479078193
0.956347117268689
0.85170106849227
0.886213216731387
0.8952245216933
0.868381004774411
0.845081936786872
0.971542446422582
0.925226842610431
0.986404984408327
0.903441722295204
1.00589057085398
0.993772878258816
1.02579560789365
0.850842617546864
0.984492094950396
1.16774254349246
1.05719456540705
1.01997918233035
1.09203821346106
1.12584601100878
1.39599099168186
0.963852391856825
1.42618530394698
0.995552518815104
1.65013834995841
0.930535117561338
0.93911129763379
0.844518019680686
1.42454697644347
0.904931913491771
0.97736162505542
0.989910027814999
1.12211177599189
0.837719414529086
1.06367857070134
0.90775785950698
0.923216958937148
0.858767259236385
1.15717713165881
1.09591330696146
1.11253136317507
1.19557535340089
1.89480012923687
0.712681876005093
1.07164562635458
1.28906120338045
1.40187347801333
5
1.46918123979545
0.738547042013051
1.36344703386097
0.952235629245669
0.915828636075871
0.762030485100807
1.15722905434226
1.5751257340047
5
0.749576364110406
1.19432936527126
0.639617400509926
1.9453753497346
5
1.2895781520799
1.5006793615954
0.750312091540799
0.769193328210952
0.679515883230951
0.910687441603676
1.06517029512045
1.13551231546269
0.806724613722903
0.608713467212626
0.781294921620712
0.681241005005536
5
1.30130697794943
