3596
4000.36533379555
650.420452594757
1
2
2
0.0457525971188369
0.0458628757515831
0.0312309640656097
0.0484770512445393
0.0398282177674676
0.0502392936521271
0.0436573339069884
0.0516975475283551
0.0392091086006692
0.0480364503302205
0.0360235653030249
0.0508875641897342
0.0419644789304135
0.0492325348754925
0.0369721421377008
0.0488721804452134
0.0438846855217516
0.0490274148530244
0.0393978607661558
0.0551217836253235
0.0307560964188002
0.0472473550479726
0.0383245172645456
0.0467652853813208
0.0369750457824711
0.0563434286282423
0.0358921196840714
0.0457067015825599
0.0436662160300106
0.050888319677485
0.0388172073463573
0.0556154698995109
0.0380387891184859
0.0485519653919887
0.0402544881263287
0.0425544751782045
0.0371020924923806
0.0472457455397381
0.0413878213218323
0.047778696447489
0.0423121728319459
0.0469031505349391
0.0414308391173348
0.0542206907713391
0.0284894180533918
0.0524247952886592
0.039395630587944
0.0420958665211825
0.0393021620211759
0.0459484330369039
0.0359345666777817
0.0435821993181585
0.0383934330204676
0.056655583969177
0.032389936196329
0.0540981527771568
0.0346266602051671
0.0505051141127873
0.0367387519443022
0.0446270626570297
0.0384294054674934
0.0536808538251154
0.032576226093379
0.04978454949399
0.0345914978815541
0.042525248798997
0.0306884887707972
0.0465365866264453
0.0305130361876438
0.0510633008749706
0.035548686040311
0.0379132457501435
0.0389543009893808
0.0528722343914328
0.0337059756927572
0.0433938519763988
0.0297137278422124
0.046651401368968
0.0346171193267975
0.0545928870034126
0.0393281882304517
0.0456475923396517
0.0343096282912369
0.0437773130221823
0.0314761049656938
0.0481187297987292
0.026803429038635
0.04458502703118
0.039919416284387
0.0409793214477027
0.0310887920207571
0.040280872299817
0.0320109547433329
0.0436350565645402
0.0365962446736406
0.0438775415079043
0.0362769714284715
0.0447358428785237
0.035656758920032
0.0404977550839381
0.0457131433973097
0.0286379230434324
0.0545301269815948
0.0221021530761956
0.0450798228055583
0.0553334444855894
0.012578950623315
0.0620378231606342
0.0227603043475937
0.0537646964609423
0.0319689371454153
0.0491716928138072
0.0278889513557095
0.0489614980317439
0.0198121489340924
0.0452172856517383
0.0455057470212027
0.0419073243949907
0.0365338015295749
0.0388547987168416
0.0319582705341185
0.0305052353189738
0.0441733783895839
0.031227907199587
0.0415773460616674
0.038943677761764
0.0170372110784886
0.0498683837135583
0.0509282893342299
0.0374584089057045
0.0466714156112229
0.0393047991211394
0.0271757625819901
0.0239074159555605
0.0471711556475379
0.0436608367069259
0.0343531120324282
0.0282005972762674
0.0214894235739145
0.0605424093019283
0.0364871930392834
0.0378610910190646
0.0195527046131743
0.0397932524896048
0.0447057165969301
0.0415387617319451
0.0276107079282729
0.0372155437738596
0.0361377331228521
0.0352590206304462
0.0278324299260147
0.0353208476901259
0.0327806185245195
0.037083844117015
0.00294544233467527
0.0251140374926951
0.0654408245054428
0.0209926435780516
0.0749721072389877
0.0281904495640765
0.0389200472541185
0.0340200206652409
0.0299140083311176
0.0403155234702235
0.0341623791688875
0.0364978427686144
0.0240521150717835
0.0525922863818874
0.0323991467315383
0.0368257336640076
0.0330383132673197
0.0349633629771074
0.0127574038311476
0.0604394367543266
0.0401261633734641
0.0265556900985818
0.0436332142315079
0.0415512090246725
0.03241352814238
0.0262707461456461
0.044769449626989
0.0416943736638628
0.0373106390053442
0.0379174133691751
0.0316351775994356
0.0436233273548419
0.0368747428199865
0.0357364260773651
0.0335792082454161
0.0236907672408306
0.0276911102239298
0.0456018355996872
0.0487705790911797
0.0245716870810684
0.0391899213027357
0.0133809685392858
0.0301756026897936
0.0443329663030229
0.0226867766453286
0.0432758047848565
0.0286023210357683
0.0401651876063812
0.0339779799580554
0.0399254413768724
0.0335169821584061
0.0189223995698247
0.0490141472336723
0.0437110826176556
0.0336354275904084
0.0362841968820743
0.0302383941065939
0.0252010085324923
0.045210427723032
0.0594109955030336
0.0296079649932327
0.0357080458841596
0.0326216431337397
0.0424052834676586
0.031972737210126
0.0435063382411131
0.0348988733945396
0.0428638342771659
0.0267286627345468
0.0380420857744959
0.027317284858243
0.0439227436778749
0.0336344884120425
0.0376179377996511
0.0301823170637366
0.0394430250981193
0.0332387721800447
0.0426532601115486
0.0322198423269783
0.0364386978265835
0.0274996896928525
0.035242018513342
0.0373222473517829
0.031907229494225
0.0293340318255197
0.0344485216332503
0.0351876111846647
0.0363544376664593
0.0375360639509997
0.0381600945707263
0.0296815948908949
0.0292143831220881
0.0528693367950556
0.0356530281765176
0.0320562435897471
0.0347152425383092
0.0338618002684324
0.0561858798815373
0.0336560037334837
0.0469106487000259
0.0315114614719175
0.043214242347938
0.0238739502425374
0.0542199899280234
0.0316993074909419
0.0332813073853598
0.030463282412206
0.05427228846447
0.0286330009793303
0.0400329037194301
0.00558326113095307
0.0699508507843958
0.0417257510558984
0.0248189415175256
0.0608344731289853
0.0484709212040723
0.0252118973117834
0.0456457329481037
-0.0104921347129599
0.0907669185710164
0.0617150658970692
0.0378310984619953
0.0221646224887375
0.045461108791924
0.0365184356979998
0.0401300149764215
0.0361884351810964
0.0346304047121414
0.0418933260173521
0.0218992143484249
0.0574290416909723
0.031131856503284
0.0287500790774067
0.0523734771195028
0.0352001701410259
0.0513863900950291
0.0390597733048878
0.038846796488633
0.0282716348047745
0.0503347370480196
0.0314365430717512
0.0504982869924852
0.0221850365077978
0.0513306712746128
0.0418821037032255
0.0459675143914366
0.0274506609875824
0.0550664660485346
0.0325150231086793
0.0435260935760461
0.0363034405630402
0.0419645002215621
0.0354607766432293
0.0403988115859858
0.0534432632350478
0.0521831601209014
0.0202175715853501
0.0590078301711099
0.0409644643709042
0.0466260394624261
0.0344256096866379
0.0533595047846288
0.0404293962868211
0.051176122446151
0.0350934365674683
0.0599133374397889
0.0447232264082464
0.0526575100504431
0.0429899554485556
0.0463382151607494
0.042888860629871
0.0464235941835724
0.0459655115625637
0.046779417297625
0.0414518881575875
0.0446293622988198
0.0297846324086647
0.0668678233764981
0.0276171235370081
0.0510413492979701
0.0723406546703715
0.0487782916138248
0.0480063018491846
0.0518607052298151
0.0547654543155256
0.0472843966110996
0.0553180895520882
0.0573364666948143
0.0537008393293196
0.0613299644061982
0.0581246057211728
0.0576817749401077
0.0441269194668023
0.0652083181899098
0.0680802817079711
0.0697033599788212
0.0598843998956811
0.0506764537985717
0.0525209781794149
0.0834222677590966
0.0497953185981666
0.0853134488053674
0.0464284691192514
0.0737263663117288
0.0610643536647397
0.0757364377144896
0.0681452624089151
0.0794921070648982
0.0636024317843394
0.0737640512727551
0.0677088418947331
0.0790125996415139
0.0784088187848104
0.0736005740373837
0.0896041775345911
0.0912129006064719
0.0714222780802586
0.0843342725409935
0.0693460050690718
0.0917257019027683
0.0898257364026179
0.0959257241039314
0.104715338465066
0.0833899704600335
0.109216369081652
0.0895987840193521
0.095499520496635
0.0973429604160239
0.0953090042993148
0.0978008386783875
0.103916455105927
0.109514607178257
0.103438021470134
0.109136919393197
0.112624228594771
0.109980236611345
0.113608072406157
0.113947866619433
0.12428419647031
0.120636734137657
0.112106399654372
0.118461395099934
0.100602506853986
0.147274650947765
0.128588064475641
0.134075324818896
0.130418720064429
0.143271158999297
0.117798328525073
0.144520096080876
0.132108220757453
0.145795837319236
0.125405114299473
0.165716701524353
0.149122198573105
0.152456365009628
0.150425102582319
0.137038007305295
0.149011990051927
0.15680881908866
0.152032926814263
0.163903900945387
0.150522607184436
0.165597600837515
0.15345321296629
0.181721611348216
0.16616742248966
0.192152412387503
0.169147400941032
0.181045036220629
0.172830264120766
0.183523844634539
0.176002462237159
0.189757497535123
0.181280877801102
0.198317210927913
0.187937370057454
0.194489041193354
0.1903270804998
0.216208003007798
0.192665143549279
0.198936817118049
0.215631505527622
0.212654963456596
0.198587006875041
0.200903400033141
0.216077646936954
0.236782808528956
0.20630526367787
0.240718366085489
0.20491451525248
0.239952262383177
0.23041311317647
0.231187757107777
0.228516593329905
0.238348606041505
0.232249532033149
0.253473184616459
0.232363014333764
0.255139864186371
0.251298630765024
0.250481178319654
0.259735883861864
0.2685511244706
0.270185638598293
0.276982380750265
0.2558374014438
0.277734014713213
0.254159872596954
0.292577137841422
0.277349164509884
0.303579921735722
0.275556151448458
0.301535132705679
0.288118746358916
0.304242867256769
0.300154144246413
0.325373893401865
0.308069998185137
0.314865073584306
0.316067802165221
0.325829305949896
0.319396813973668
0.344548423962195
0.322824891518646
0.332231962099624
0.332693009138003
0.344112563158654
0.322098841782228
0.333228535418878
0.333782529953277
0.360448264410672
0.355838013678599
0.369543597612534
0.334784371288901
0.35692361351668
0.379254768046784
0.390032205601822
0.383473923608424
0.386478727172279
0.381807458715743
0.406087296220307
0.386598929935126
0.396417409441131
0.387578025354586
0.400070508184607
0.38726840446872
0.412447060358768
0.416709293785141
0.419485129586022
0.427235134894304
0.435243945092445
0.42710989177229
0.436568063396146
0.411283375347386
0.437604033124277
0.417954191991889
0.446244613750792
0.439049753619398
0.438525890172217
0.429660737103647
0.452823932073283
0.461548095277958
0.460952101457772
0.433185641472981
0.495010472428032
0.472440217283338
0.471863975553222
0.463356690385113
0.480260600460302
0.482765162537054
0.525648134416831
0.496744215278481
0.485452713080697
0.486824196790051
0.516024993591895
0.495385027855418
0.508315285386775
0.50003192554389
0.549811529854724
0.52388949143059
0.527891962292406
0.53650150189029
0.531580027810581
0.534800172461573
0.560830769627647
0.553522704789772
0.556316886994357
0.544044062140116
0.577710117331598
0.583778583473139
0.585747973805981
0.577632859498863
0.581588886712042
0.56300540878289
0.590797331994588
0.586977471169292
0.630026080718378
0.572613959123049
0.58401996563501
0.611885446981499
0.608292204452534
0.600966265840752
0.624851650161685
0.616545702974229
0.626731524840354
0.6143023368084
0.643819450604577
0.623683319759485
0.654153929603354
0.639156689395777
0.646729513216129
0.661511509322312
0.664707021544964
0.646632362009001
0.68282127832989
0.672650688227255
0.685954977435128
0.668631974115564
0.696336897613955
0.688901712964561
0.673910800253033
0.673212040626449
0.698853189047126
0.696168528486178
0.690156556912929
0.690162014770655
0.726578173749313
0.698205204063684
0.725258594153012
0.718954686665827
0.732767254239989
0.725340630402424
0.745057803927746
0.72586673676341
0.729844460872554
0.719914888217179
0.765449938700027
0.770511762488515
0.761994969128688
0.74361265002821
0.766617708475952
0.786690314022918
0.769741181014698
0.73736425155616
0.807479903384655
0.751841049903846
0.738552615993713
0.754764800215489
0.795270211748112
0.819467535691495
0.813490865600698
0.771805472532561
0.826233529607168
0.824050929243984
0.824684002731208
0.799416541134016
0.804971048791461
0.804969841211081
0.823399479485101
0.816630596838594
0.837816759357602
0.836007326540227
0.821803488145976
0.816388761914584
0.857076045156482
0.814052400066337
0.815274654441843
0.830346433466155
0.849817427960582
0.856070670129489
0.87511717432139
0.862409902302128
0.866602556224142
0.863463715538326
0.881874427781268
0.900043616946927
0.889211677477603
0.84660808182171
0.852032615816653
0.897295644751183
0.910617534119883
0.862803482887033
0.89657943237228
0.908713281366147
0.92014555343891
0.890053104132117
0.900183980392194
0.884543184637886
0.936634627368976
0.941541568204983
0.904366697957893
0.904398765165757
0.923439101268628
0.938935659178896
0.967325985314174
0.915090706155309
0.934700305593904
0.933838751008398
0.998263096185582
0.958024215566916
0.92159153420844
0.930423757772373
0.969527053286429
0.957238002216381
0.940941058714979
0.995029749302205
0.976469726408659
0.953058107043632
0.945297456116268
0.948293603063572
0.958395044661368
0.955509684932479
1.01273500045307
0.978933557854825
0.981944091679332
0.953817996111572
0.972907025522701
0.992846240506251
0.97202678675395
0.94992312315178
1.00676254303254
1.00321855896388
0.9744215835338
1.00394644259266
1.03790017730063
1.01946211278204
1.00969636922126
0.993621520636001
1.04422767475233
1.02322467020051
0.952663900138237
1.002236406751
1.07796930379772
0.983426154927789
0.987322762714186
0.973561286125743
0.979025495821742
1.01256828899827
1.05811661151702
1.01997035766475
1.04711370725844
1.02447442046236
1.07034501963741
1.1126098645149
1.06602786966097
1.05448854595696
1.08229561758844
1.04206593499784
1.03578515351138
1.02482969986081
1.03613699512616
1.0189773547652
1.00690454470953
0.993366398469143
1.02889667773426
1.0509537236555
1.02118935052619
1.01284826610092
1.04444761409791
1.01998331654646
1.05207489384496
1.06090122954827
1.05841643068068
1.02291631064119
1.01963421022226
1.03402490679932
1.04805573388937
1.08469301086655
1.02897688314002
1.00972765253862
1.08590361260574
1.08894135777768
1.06821946909049
1.05864603431392
1.07973952312926
1.0608851443308
1.10688201062416
1.05222080909291
1.02865511866701
1.04430938355836
1.06166249478116
1.04035393791948
1.0120061344022
1.0674877683337
1.08800386641928
1.04959452855617
1.05324002600715
1.064956323145
1.05286176987049
1.01321410379102
1.05754558171925
1.07490034457432
1.06040919772131
1.06712663567273
1.07144248138175
1.03384072079737
1.07244756451733
1.07372255410708
1.02941159785256
1.01929114204965
1.01572715873203
1.01555823407223
1.07364723359779
1.01723883764657
1.03019562753506
1.08210168975079
1.07012936384942
1.04121212716962
1.05417384047146
1.08434431300016
1.09718751199313
1.05131153381907
1.05936987523337
1.08698964667611
1.05676607894073
1.02706569689911
1.04835390971581
1.0770286996129
1.05357515659882
0.995178861585758
1.00944241604891
1.02661095012786
1.0743935896581
1.05836363407507
1.04937042736468
1.07996701990225
1.03171100016455
1.06096523266156
1.09441264713493
1.04750093337672
1.0479774865069
1.01762001725728
1.01989304480876
1.02507367854949
1.02395276153916
1.03206966932277
1.07282101007698
1.06268598986535
1.0169333762705
0.98923209815502
1.03780161583672
1.03374153557927
1.01506192271711
1.04800383433562
1.04372924601661
1.03476141827919
1.02047790522751
1.00212025587807
1.03173238770107
1.01931188826975
1.02876651793554
0.994476334197139
1.00375518310825
1.04197911964912
1.02259710874192
0.978633362087382
0.996990663725426
0.996275083319228
1.00714776806955
0.977786415689127
1.0189916044623
1.004828559242
1.00771003303425
1.01247476037831
0.967742628732077
1.00372313367064
0.985325198205155
0.975777161908116
0.990662893663612
0.967628934207767
0.991458573103776
0.97444820412918
0.982934075496846
1.00814741965617
0.970845360076157
0.968210455268939
0.993057588675702
0.985002765510123
0.979844922038658
0.972255152248555
0.972181474012131
0.959368618591838
0.966050324355872
0.980258974264285
0.967764207031007
0.954912088742771
0.952550982858872
0.93463014176951
0.928140955319438
0.927787224490014
0.950116713823834
0.930903101953263
0.927535727388317
0.952511558125257
0.939345189994895
0.915230847063521
0.93312007498822
0.938784209890917
0.913120493009626
0.892835861185834
0.920878839773885
0.923011619901712
0.90986928434493
0.886590474284301
0.89178323230752
0.905168255231488
0.925354845148106
0.900467567503069
0.89355193349074
0.896387343398575
0.88093242246938
0.879610211705524
0.889842647680933
0.897875836747809
0.880309159983651
0.853238661057956
0.89827722821557
0.878302249246971
0.865477978276169
0.864461044486409
0.843317815025426
0.877453997401197
0.859040208683386
0.855107577194304
0.853234935139784
0.838441866566603
0.850598946767835
0.830498609072864
0.833683432070126
0.834555653284834
0.840528009015216
0.813561785652361
0.824261445346448
0.817872562930017
0.812952056375909
0.80271853163297
0.795901196341407
0.814461498248601
0.791161665380575
0.793684174865498
0.806729819284555
0.791984732770388
0.801818838203076
0.791572038269018
0.790583221105607
0.799278151035188
0.772909596795204
0.754598765503632
0.757794765906984
0.753643504579197
0.761690468417822
0.740299285214409
0.743369716035684
0.747345036513
0.752015776675444
0.7471296366205
0.750326042417978
0.752158208511045
0.744587575815181
0.728784388484845
0.731748103779246
0.72222649697207
0.718606848042662
0.729995050020627
0.718117133365635
0.713069080914757
0.722714015256213
0.69833009114229
0.702364982039956
0.704678033228908
0.697979806081376
0.687185131320609
0.680102474014665
0.67057848738456
0.677841887589693
0.679722700739455
0.69075893646313
0.684287497013696
0.67577313671235
0.670684271941636
0.658972913464062
0.652351258553667
0.669468282639799
0.6575531538306
0.652139930360897
0.64101417466135
0.642479512776392
0.634474221509701
0.625656020441739
0.627116760306959
0.63377564562121
0.639351997658911
0.634834900642683
0.627365059376592
0.631705106497262
0.623277124123713
0.615667071369412
0.617457364695885
0.624228282281855
0.611646067852878
0.612217179734989
0.603561753530612
0.592271524871015
0.598735682801409
0.607632289313138
0.591977907057574
0.591141539710764
0.587466700127937
0.575611196508477
0.57942298189535
0.584256489903031
0.569097315362943
0.570943239189006
0.574948696459948
0.569982585044296
0.55842070253272
0.562862945648247
0.566426521716809
0.554640148893802
0.547426598257975
0.552471717669073
0.552694313088318
0.545643557768354
0.545873263927552
0.549924047659768
0.534611338131205
0.540619410983602
0.531091712262698
0.519169975576242
0.527728345100198
0.530085877961763
0.519334376458654
0.529967602601258
0.519262802233274
0.527439452162047
0.515782662215513
0.514796111142941
0.512198708188389
0.514259772342291
0.50103512558629
0.498110494748768
0.497766651745845
0.504761626883042
0.501618655084275
0.48854167704336
0.490518701259478
0.491910918626982
0.485958317019047
0.495994919636933
0.483253534617691
0.477727051190401
0.474956167410165
0.47532548972519
0.472806230451492
0.468435864041731
0.462594274506511
0.467845237494216
0.459068611157986
0.459102273623945
0.460005540983544
0.457411436405213
0.45751245163268
0.459874157363761
0.44857967205791
0.447649135675984
0.448645335876129
0.45076683909576
0.443593428303867
0.438240015531975
0.435958737274248
0.433094849544934
0.433265866491978
0.436130546562283
0.423666215311238
0.430350154237121
0.421740547945111
0.41874903476359
0.424772905812962
0.431476481446196
0.414117173262346
0.408372403359649
0.415763989874209
0.424148339537153
0.413048717491866
0.410320459616745
0.402571861243
0.402117132022718
0.404922130870111
0.405693408617774
0.40159903975046
0.403780285660308
0.40212028429518
0.39970484538956
0.391173679140387
0.393268693556308
0.388222816401978
0.391376041707776
0.384768048489648
0.387648882971275
0.387332651933448
0.38613125535697
0.379696650970881
0.377286525522293
0.376145447390878
0.377082289232698
0.383007050825039
0.380600521095773
0.363264615778452
0.376161681099176
0.375277711886729
0.375176543582525
0.369408907186592
0.361153317692674
0.363635175645397
0.361221941245736
0.361059073933191
0.369040817282039
0.366367169826048
0.365641969776186
0.362040512697542
0.358332204611499
0.355625130682126
0.363034510128688
0.35334500683646
0.358118135798645
0.361003909960505
0.363892240717296
0.356831110456159
0.358224337258775
0.362982056286994
0.35949749518206
0.345055832867775
0.362424587847817
0.357272289175653
0.356492981089561
0.361122534594143
0.364639238110143
0.355564099655761
0.361580096838659
0.362779539084919
0.36506945321473
0.369025862527793
0.368096008457968
0.357307061757377
0.369275355790296
0.373596781667543
0.369512878947242
0.370635101193528
0.367284634839531
0.372427284489664
0.379862765886269
0.379415562640227
0.387314362866122
0.381978407471747
0.380949963536414
0.377094635090204
0.384980688863189
0.389306073878389
0.385660876725922
0.389523859413655
0.393356668605197
0.39017906607347
0.399566417213792
0.396219372319247
0.393736872238774
0.398183400485422
0.406416248023764
0.396701606545995
0.4047090776798
0.407876204611307
0.408554463907018
0.412303190458883
0.416506165495136
0.41600807404908
0.413884421964435
0.422887941280712
0.43250481925876
0.424866219872905
0.426041600448387
0.420830636035144
0.431193292176208
0.431728291596907
0.433780314375614
0.434071469538383
0.440410649694539
0.450074329728399
0.446601342770235
0.448503524905102
0.453863052147287
0.451993051736265
0.451076986055619
0.457286585441628
0.463339777066065
0.45678533496822
0.464302528407506
0.460516051116904
0.458965952443214
0.458861774850242
0.466945568755672
0.461953309389577
0.468977831214986
0.465815480549284
0.463703550300505
0.455527570363341
0.463506431872297
0.461070378393459
0.467262089556483
0.461354613801235
0.453400033364841
0.455948649502271
0.463016012963847
0.456754130359085
0.464607636772796
0.457314216957691
0.459620544026539
0.470657208978699
0.465384226612957
0.455204246718643
0.463065595234765
0.466875159885729
0.458139306168253
0.45561590617312
0.461218134773304
0.450723718650334
0.459367418698669
0.452242352387992
0.463720460528326
0.4657245114262
0.457282175264769
0.466170664248002
0.471443170385765
0.466356690170991
0.461106576530819
0.462704538454211
0.466877989147817
0.465200657502535
0.469321636387001
0.466559211258441
0.46721765187458
0.458587675946868
0.466203587583834
0.462611220035934
0.460261885811046
0.465252534666439
0.457405106528977
0.45828304192977
0.458621038074578
0.460496696302038
0.453216503095821
0.457826307373053
0.461699795382943
0.449600221950897
0.459986540244295
0.44732445546017
0.451632365323236
0.449549291105496
0.44924216339455
0.448010531491766
0.440538038690983
0.437594994855535
0.440156515611651
0.429168891989337
0.430495172121108
0.438294998117723
0.43272773047569
0.4251837099648
0.415662200615422
0.417107395808739
0.420786953977909
0.417982794543976
0.409705024009213
0.407467211762064
0.411124820065691
0.402557233131728
0.401046592599075
0.403063185533434
0.398958045287076
0.397615329907767
0.401051116281894
0.389054239455766
0.385619564693633
0.38218190504211
0.379166813938563
0.386019437838952
0.376976063459622
0.367425109286194
0.372931088161561
0.372152975471359
0.367664927936543
0.36737612412011
0.361871413378675
0.362834902695307
0.363984038351208
0.353858013342755
0.356497130246454
0.353115947998997
0.353079351204863
0.348074208260647
0.3472158321137
0.34834693621637
0.352885023180544
0.346752074039956
0.343657985901396
0.340501403441947
0.336015912931956
0.336030525360112
0.336536489126128
0.333030387030157
0.331171840122756
0.333622583462412
0.329269896480067
0.326665615254995
0.333981325701925
0.329480877180649
0.325866825344481
0.326487429189559
0.328479161034066
0.324100261488768
0.323464888290503
0.320154922509572
0.321721004271171
0.314026083228716
0.316009095226145
0.315357785282995
0.311873112331122
0.310910574224411
0.319901903490714
0.310091763067181
0.307474644690877
0.307079556795147
0.3074296163572
0.304153962845342
0.31154510025338
0.312507256354407
0.308261365093816
0.297601016862459
0.305609326776749
0.297376765635167
0.298096084528953
0.294767393845966
0.300529817356873
0.297050421027389
0.296495827005718
0.301369532706318
0.295042559889208
0.294885713279327
0.297947655012877
0.296620935053485
0.294440367120705
0.292753656369371
0.286749819411244
0.286699608919455
0.293930177181831
0.286356986158216
0.288351830922599
0.291070061379451
0.287453760575524
0.282674190143956
0.290548741086331
0.284828603125748
0.285921577574977
0.285774295102529
0.279655285431622
0.279432878840581
0.281261321070307
0.276018815728703
0.276076748289047
0.278396771153376
0.281896535238718
0.276185926382559
0.274203646417074
0.27220564838554
0.271765698966315
0.278582891430713
0.275563314951929
0.270408853411095
0.276133017479834
0.27543829761923
0.270077956183517
0.27124205615686
0.275691608261299
0.269041960886381
0.267856548114173
0.264858218743307
0.270408195298109
0.26880089664446
0.270452528741751
0.260858532272424
0.262471014896574
0.265411647052335
0.26604740115514
0.264709642928088
0.265672406656037
0.261832904709452
0.266298153294934
0.263190939297299
0.264972068147236
0.26506679533889
0.266690611863798
0.264156741851189
0.258699606476879
0.261648809776077
0.26273074437837
0.257279643841485
0.255666715013721
0.258324298538364
0.263708455372827
0.262157621970989
0.26112478724216
0.255478855303339
0.258744313866738
0.257147507712855
0.261872140742221
0.256068931731252
0.260947343671024
0.260433120243
0.25850987264769
0.254042922064098
0.257392923271612
0.253787528784189
0.254911132276603
0.256627165752587
0.253300448377168
0.251131674703382
0.252601532650686
0.256388531917512
0.254911381482767
0.252447398325941
0.252923138923584
0.249131824543284
0.254742759392167
0.248988135523437
0.247352601676417
0.250571707747342
0.249229420285131
0.248121299746464
0.250344397682034
0.244716297860674
0.248113815697282
0.242106765004932
0.24257399042543
0.242439403978226
0.2431206245447
0.241184675839619
0.245440004771727
0.242619532881399
0.243018141090582
0.239673127247777
0.24179812938017
0.240477032310129
0.237727611029149
0.237917874685898
0.240065810260519
0.239858917265193
0.237810018229936
0.235073217967025
0.236778352582302
0.241986009194203
0.23825664293374
0.233793813827709
0.23367793253136
0.231901951047154
0.231553949907208
0.231256339668218
0.229688356475928
0.22885195914688
0.229988722002292
0.226388373299306
0.228627454760821
0.227876594157248
0.231273175777757
0.226957488919812
0.22681153066851
0.228196515543692
0.223131128701212
0.219186172647792
0.228902369383238
0.22290974693167
0.223320304308372
0.219041466554388
0.224046985046213
0.222496953131825
0.221600751455049
0.218483928221542
0.221574881685888
0.218346650619573
0.212500614317275
0.215434008130593
0.21665983645016
0.214775022924142
0.216200701577877
0.213414115449602
0.21345931840326
0.212992278883686
0.211774985124374
0.208386291632442
0.2103786728458
0.210182991132291
0.210428955215272
0.206306483666154
0.205053694873582
0.203752781649229
0.206965562296763
0.204151116304258
0.203767287108725
0.201456309196513
0.202004052496597
0.201079791891063
0.202956650785192
0.199240337957573
0.200796968932379
0.199313486668487
0.197112454085236
0.197550150454056
0.199928481837656
0.197301321374988
0.197394154487134
0.190292741898412
0.193543849042121
0.192744786523055
0.193009765424018
0.187843670084367
0.193819284363798
0.193016486690702
0.183071661551523
0.189963883121179
0.191393330968888
0.191561780349296
0.193118043982927
0.187762668912401
0.185752102172985
0.183721354115875
0.182642323601264
0.186007491754808
0.184929671932576
0.183053918822566
0.183622217920577
0.180417383344565
0.18158060721802
0.180630168283919
0.18195954918919
0.177241590317096
0.176265445671125
0.181270900684032
0.181102448580328
0.176080298043591
0.176221811838207
0.180357819078003
0.178413293715873
0.172873511381085
0.173942788165768
0.172986198192009
0.176061721914115
0.170422622877551
0.175349050581648
0.173030858720798
0.169154329203941
0.171918595663793
0.172158888732518
0.16963794920566
0.170276830881073
0.170143179301946
0.170435589979126
0.164824790882622
0.168127509566812
0.16655050814117
0.164714675448102
0.166030016614268
0.168224461756863
0.166240880320505
0.16680674612459
0.166639413939007
0.167508708146583
0.165378861839647
0.162405200228358
0.164380139318754
0.162577154073915
0.161880194107962
0.163344026619621
0.16404418617646
0.163255125980498
0.16119468509042
0.162004996538628
0.162156591301756
0.158303038607802
0.159157861048698
0.161213829199027
0.159401931981626
0.161378923474269
0.162069275710913
0.160753500985415
0.160148411918295
0.161710972772872
0.156760693290023
0.157899841810465
0.155468645719716
0.155987901663326
0.156316459495817
0.156222750888898
0.157386486270367
0.156659814120999
0.153035913975389
0.154452689551879
0.151663179169684
0.152817317050477
0.155830873743523
0.154591099574907
0.151599026446929
0.153173979111948
0.152237655991245
0.152342601709614
0.152342198339915
0.152932769520957
0.151414342941697
0.151119753548097
0.15295174059018
0.150856733641538
0.146152392869348
0.150214328816456
0.151238055488478
0.149847708359756
0.146967053768439
0.14597925810673
0.148558682833874
0.148870163416585
0.144593731598338
0.14742051637957
0.148961643144954
0.146854595034097
0.142605578405732
0.14523716675865
0.142458907395786
0.143582864823232
0.143531509278957
0.141391274992503
0.142760821656032
0.145988678025952
0.145256068252241
0.143908837316838
0.14183115423046
0.14183986076814
0.140347219723544
0.140570160928743
0.143675257243449
0.143674293312151
0.139083574302201
0.140840565362463
0.137668936781551
0.141774346330889
0.138436715291062
0.137080409940777
0.139262200210433
0.139830220048673
0.138889142703183
0.138215246353612
0.136448618776518
0.13627650252615
0.137081490661356
0.136736725084461
0.137996573684794
0.135502407927899
0.132963217961544
0.133770757207906
0.135430781479436
0.133364653716428
0.131946925866659
0.136823007663781
0.135016304059508
0.134778639532227
0.131259793826326
0.132599765441456
0.129416428783141
0.129615114867773
0.129969678332167
0.129613744012417
0.129560257527416
0.129711219085091
0.130204476133096
0.129283838236506
0.128361592282396
0.129315269587393
0.130522171593974
0.127954579581754
0.1253028381619
0.127303465598733
0.124782140605982
0.123859577844848
0.12104235575312
0.123818774379809
0.12379377070865
0.122436581464141
0.122012458497826
0.121743467799563
0.119188332502697
0.121956400058307
0.119767698340569
0.120441859599238
0.120002956563661
0.119154869108896
0.119123785660277
0.117824364062734
0.114478960359064
0.117504775797368
0.113981357369915
0.113886544934703
0.117892205495418
0.118143801520795
0.115459200571204
0.115059627816347
0.114946895490613
0.115683230850203
0.114272449821104
0.112455419387535
0.112401479528816
0.111426112848081
0.111326848257453
0.113029934426913
0.110714278556848
0.107682556659615
0.110761367663477
0.110152770742655
0.106233445855553
0.111410172104347
0.110815486875463
0.111680221478785
0.106880109255654
0.109030188592937
0.105905909943055
0.105720854778941
0.105313818670328
0.103554966951262
0.102696242228233
0.105254629636548
0.103657885546719
0.105508300383872
0.103220325696902
0.102930991701201
0.103415781568081
0.105935858898793
0.100790807051131
0.10282510220324
0.102702014152658
0.103098732664765
0.0963895158319524
0.0997458459515655
0.0992100744592425
0.0971950608097407
0.0968085777624587
0.0991713114285833
0.0977139060008604
0.0991597950184567
0.0950213496636365
0.0960234587488361
0.096128068542745
0.0992491944601752
0.0994183699471042
0.0968038008799476
0.0941404924952097
0.0954347306531861
0.0937004312976188
0.0954425749521505
0.0967010132215974
0.0919589047961864
0.091529486992878
0.0933468748590159
0.0935851657363671
0.0920404880490214
0.0914729105004224
0.093392697479875
0.0919468648181031
0.0938431443278093
0.0931235009824516
0.0933982988919336
0.0909841628406459
0.0889866688389488
0.0896752105076466
0.0890553934828575
0.0885979106054502
0.0917364685873945
0.0910367553988479
0.0883837984673095
0.0897191830361684
0.093003386931693
0.0902775429991949
0.0889343409062242
0.0893428884289391
0.0875829428837176
0.088517087490209
0.0906639484067949
0.0899953051066728
0.0921284242237357
0.0894797992154824
0.0866284759948366
0.0849594015909667
0.0868918584446179
0.0816081260217362
0.0881050848349923
0.0884286706625783
0.0863934341253267
0.0874440480310543
0.0848224446236729
0.0851388882781133
0.0872862768405158
0.0888271573688026
0.0847863558751514
0.0883464915679618
0.0941504794436805
0.0938597861553141
0.0891751130921899
0.086074181484429
0.0791440677177277
0.08123733263976
0.084518281663259
0.084201204524427
0.0871106959305001
0.0881129435373221
0.0857992786921937
0.082367496111607
0.082304229602746
0.0871123789213807
0.0862138931119529
0.0923509920140069
0.0828530284681782
0.0892546161398321
0.0846543219937359
0.0934458334360453
0.0851513823657345
0.094282842948486
0.0870025464905764
0.0940867384706908
0.085305008627946
0.0930130934983018
0.0810350323514909
0.0908311159060333
0.0753197028535282
0.0945546999307747
0.0788685712180975
0.0934898896389016
0.0657749801858304
0.0935853488202941
0.0665423631089656
0.102762706326702
0.064981693643991
0.0947297668527023
0.057253690382294
0.0999919291908653
0.0667092845648824
0.0936296173726597
0.0641993054865676
0.0955715083385766
0.0704603041925127
0.0844236096055262
0.0763961939237338
0.0832683129481963
0.0781214821762004
0.0792365100123121
0.0846640621797886
0.0682019353578026
0.0859830653340913
0.0702828904833843
0.0825303302508015
0.0735569816863169
0.0842536029724024
0.0771629322595063
0.0794457649209087
0.0790309912142679
0.0769730959415571
0.07633824418161
0.0774784950593882
0.0768746298145587
0.077634748795738
0.0751267215212242
0.0772665496148224
0.0743332359068658
0.0780851279931614
0.0757765489632121
0.0782688568885406
0.0753178828331004
0.0746889880533465
0.0756162386358783
0.0777252695518065
0.0761663182278075
0.0770851175924127
0.0745163652178253
0.0784876601416694
0.0754458556809072
0.076707106479291
0.0743307327398046
0.0746827316371713
0.0779622261923668
0.0778216979807816
0.0747320002706646
0.076725635592465
0.0753887181432295
0.0765824634067811
0.07388068226456
0.0782510814132668
0.0766198213111884
0.0792189163381834
0.073148000900663
0.0767061577833899
0.0758660729339147
0.0770825637599203
0.0735460770917408
0.0762782968674631
0.0764350627955803
0.0759899724927543
0.0743056521435863
0.0737735076000213
0.0762080824766244
0.0768164436106796
0.0767193615926139
0.0766275187082964
0.0758480767472211
0.079749350230313
0.0757458363307828
0.0781108936451482
0.0737259282226099
0.0763734911122838
0.0780877948547727
0.0789434788789252
0.0766022734637709
0.0767631619081295
0.0740902364078249
0.0780174597571307
0.0750204820117387
0.0762694218258438
0.0772008183881402
0.0771903892611114
0.0761170239928954
0.0783193256861852
0.0751909701497896
0.0768334966636319
0.0742522814469302
0.076901870433019
0.0740189110311089
0.0764490739397378
0.0754602594654289
0.0753041481047659
0.0742058057503193
0.0773361138075932
0.0774936392434851
0.0783360372940536
0.0759121572963405
0.0789672528366631
0.078239538507523
0.0765803090402369
0.0765163516156407
0.0784967459453146
0.0764278416647475
0.0782493182861052
0.0767104903417148
0.0786690128431675
0.0737740107932046
0.0772948739311796
0.0751237387441112
0.0763582155580899
0.0770274425958583
0.0792083678078784
0.0765084619984773
0.0796471262772801
0.0760438738930813
0.07785747625945
0.07693502307334
0.0792188117515631
0.0787110667742077
0.0800756298656167
0.07934970279416
0.0809360325945974
0.0764437851673294
0.0785717233063952
0.0774322192632969
0.0797896880642456
0.0765222108847591
0.0782061882051486
0.078041483736289
0.0824606709726134
0.0802466309520646
0.0797637342576015
0.081500451444422
0.0801604214252466
0.078093057050566
0.0804384674267842
0.0801154245659776
0.0809779189179222
0.0780590074079785
0.079724791670698
0.0784498026082033
0.081923342112307
0.0803987110698017
0.0791890558230816
0.081520881931623
0.0807502431012336
0.0816246110218938
0.0804700163980848
0.0803653612810122
0.0803190969896323
0.0815270815066956
0.081265420587128
0.0798854819481246
0.082030883979073
0.0817538794000111
0.0804324003578299
0.0791864749049668
0.082208239371454
0.0818187344706207
0.0809230110463975
0.0812751962023954
0.0829462875004033
0.0814319644068157
0.0829109513150948
0.081495703184947
0.0825176268894437
0.0822516329648511
0.0851824227430197
0.0839909458111175
0.083254974803017
0.0801832265920149
0.0847161823134964
0.0820820961684003
0.0834535803003798
0.0837776185825701
0.0851025831957007
0.0830035914966256
0.0844955702615472
0.0824075368969613
0.0836963253482435
0.0843302310993773
0.0850004659755672
0.0825085666863058
0.0830855981101813
0.0830642609797837
0.0848649807615844
0.0822923805509089
0.0830531459838392
0.083682850483143
0.0851774029128528
0.0830372125550138
0.0846372977095678
0.0840353797088527
0.0846337026883133
0.0818917602059271
0.0814963213055973
0.0828462170623421
0.0813632710836334
0.0803196444160614
0.0813744632141504
0.0794018407018153
0.0795418337455828
0.0819599063073424
0.0807340100012098
0.0793192856024889
0.0813678482783119
0.0792806076160513
0.0817153068311179
0.0787541556713893
0.0825883804928054
0.0784641665755783
0.0795555476772258
0.079464549854903
0.0799300240670125
0.0801951726302835
0.0792210292381151
0.0769353913887539
0.0805948310639381
0.0774883924120524
0.0789100668253495
0.080692560674177
0.0800612866290049
0.0763398984947857
0.0782072612333752
0.0779591937998933
0.0799680344291541
0.0770114949679011
0.0770020128021606
0.0780370532582932
0.0776016753257245
0.0780987675765233
0.0795129233521508
0.078441734174954
0.0780219863820228
0.0741777955610089
0.0760175893448632
0.0758919397890777
0.0762154264784266
0.0760570124348612
0.0779426297029683
0.0777115746326707
0.0783925077660963
0.0758574375107557
0.0770480644307674
0.075421986410588
0.0753184774614822
0.0779232187267722
0.0770493718500432
0.0757233572243584
0.0781673829182703
0.0764858260358195
0.0751784248761434
0.0754833738957318
0.0781724127399465
0.073806052111999
0.0743960943805003
0.0736271269874139
0.0769494412600823
0.073268727362386
0.0758572391072718
0.0759389505039195
0.076415129417156
0.0756519341826084
0.0766698950233624
0.0735711185323271
0.0764860321768993
0.0753320922151172
0.0747884043048999
0.0735594399087625
0.0769287005043895
0.074858861547852
0.075989603274708
0.07327402245931
0.0756242749733163
0.0739640478519187
0.0765309370006676
0.0752006863159346
0.0750796344883767
0.0731193046990632
0.0740421497540708
0.0731044989870378
0.0757483694774497
0.0748765957771566
0.0745944359485263
0.0740612280105033
0.0759976886348139
0.0756185692662016
0.0734004510048696
0.0735450434927808
0.0723471710215994
0.0716759153285144
0.0714724941886263
0.0700723029397154
0.0724148613817946
0.0710726913986
0.0734860598366393
0.0718175895787839
0.0746010010586561
0.071601485639563
0.0703209302043134
0.0688311058643155
0.0723519592396057
0.0723413571515868
0.0702264374248588
0.0663977350469824
0.0707132180879918
0.0709095230087638
0.0705073626139624
0.0699140963304132
0.0693032169408759
0.0684676324745338
0.0693943460203526
0.071415775054342
0.0682425299660166
0.0691022589362642
0.0656726189871997
0.0677093141982143
0.0679092173825118
0.066410424841936
0.0672026762214146
0.0668271572835615
0.0668467375850777
0.0668967180849218
0.0664653237325336
0.0651949656283405
0.0684854884877781
0.0644094936768504
0.0668351691232963
0.0645015822884678
0.0652424810440617
0.0632262460856383
0.066374396845401
0.062944361670012
0.0639632335899978
0.0634492537349493
0.0646231423808576
0.0631963621062163
0.0661787111291029
0.0622291682525823
0.0640892792053746
0.0646736115178646
0.0628471524258538
0.0596092242239792
0.0635157927079821
0.0608716346532805
0.0620321405952409
0.061051373591445
0.0628979890210896
0.0615671356800072
0.0647166771841197
0.062155237943558
0.0607382209274942
0.0603048100396741
0.0632033228117137
0.0602913641226597
0.0594123459403481
0.0604782513498941
0.0590381580059903
0.0586502811936279
0.0611286198917584
0.0586152207396637
0.0614812080471361
0.0620319645556784
0.061038123707687
0.0600863931903898
0.059299162531918
0.0587887813867862
0.0589704329645269
0.0612289487969899
0.0594426571640852
0.0558642366575123
0.0589198282661284
0.0600980690133955
0.0578649859065991
0.0568889916963624
0.0607604161988132
0.0579075296337799
0.0562967344899268
0.0579141487904143
0.0578133599564972
0.0601367934248796
0.0570512724931896
0.0571013463917314
0.0572130883991864
0.0558850127162253
0.0565178858879
0.0583631860983414
0.0581491799179752
0.056262287234374
0.0570668150652172
0.0567946929569447
0.0585808918941314
0.055729741212491
0.0545312791607948
0.0552306625867122
0.0570408259279112
0.0565953692622321
0.0561187591254204
0.0551743762914154
0.0560385880566679
0.0532652394286305
0.0536107612829663
0.055049747225692
0.054604092113175
0.0544281710182305
0.0547078300220252
0.0570355745179215
0.0574122706077394
0.0529696066956456
0.0578997001072752
0.0544320305503739
0.0568338670896642
0.0542848952484583
0.0547407770372051
0.0537399939161418
0.0575670543296246
0.0532755555103818
0.0544063914977346
0.0531080917218213
0.0546051872426118
0.0534358509630475
0.0531840946323345
0.0518010751382502
0.0549891664436544
0.0533048212087602
0.0541075661721702
0.0513471653568132
0.0578596103861131
0.0570023808276367
0.05326419074158
0.0520467331384138
0.0530432223016725
0.0513603418206434
0.0597314684947601
0.0518667406638833
0.056496381884045
0.0523502963749852
0.0545416910062712
0.0516270564760084
0.0540858479468658
0.050962284500206
0.0552850950548444
0.0544780142698142
0.0530042821305711
0.0524932850028953
0.0526775785784354
0.0547287075707114
0.0560969295340975
0.0538089611060705
0.0556830133299009
0.0520416038899482
0.0534259723283257
0.0523850591407145
0.0531449832986407
0.0493590847190669
0.053382305698148
0.0508406018656977
0.0558352358731449
0.0533719323058036
0.0538931194180972
0.053173219506834
0.0516634214363211
0.0515592094973733
0.0520447670177489
0.0574641816334675
0.0525621882621831
0.0538173966945722
0.0507142071776652
0.0528610689099861
0.0529307220639944
0.0531048263281097
0.0550134989033174
0.0525129478918977
0.0529937382940831
0.0523849258933992
0.0532195704671109
0.0532383886105192
0.0534331993812444
0.0528683806981436
0.05380228108502
0.0540975730171838
0.055296519223653
0.0505636453730356
0.0544964143660456
0.0483640515629364
0.0591828287173707
0.0539580126048838
0.0555374856771151
0.0512761252262215
0.0538407539922376
0.0532474019955581
0.0526490963589196
0.0533354917951686
0.0544108337504637
0.0526270155847813
0.0514696476108438
0.0530270686721141
0.0513004482195722
0.0532762019682887
0.0548589038908175
0.0539010698978212
0.0524856872123624
0.0528368250199525
0.0533344740447123
0.0542955849054708
0.0508194150148732
0.0533644354407272
0.0498551068842957
0.0561109162038326
0.0496927651209282
0.0563109456332083
0.0491822202936754
0.0634626832560408
0.0566987976537586
0.0542764351875216
0.0570289071514115
0.0544366090980647
0.0557916827608844
0.0550108459560284
0.0565796662138649
0.0554413238728491
0.0551026443327255
0.0541108604371166
0.0550810170079769
0.0553465738876465
0.0562162501025909
0.0537432374610916
0.0575711829893044
0.0606608652005684
0.0543555228503919
0.0527853671362669
0.05392692119984
0.0586728522753516
0.0609851175906345
0.053662148866892
0.062731395289451
0.0547466831617659
0.0588695300185001
0.0560983561503658
0.0565511723842287
0.0557985378687822
0.0573759026482372
0.0556918010811556
0.0585012396898682
0.0563618607214915
0.0550542889967889
0.0572451351135599
0.0610607842229089
0.0609871866606354
0.0602243408778466
0.0553572911037904
0.0592149101344683
0.0580510127884738
0.0595125757730709
0.0586334123422904
0.0573785132347203
0.0601933501351296
0.0628707745266957
0.0613261763792331
0.0611945846542169
0.0612354214134539
0.0630640327772198
0.0556482521812393
0.0650739834014824
0.0607840804943662
0.0626750603656939
0.056382062355305
0.0674953913353868
0.0674927167362976
0.0632754328497256
0.0681448297844038
0.0590788536992096
0.0641163396431689
0.0585727333311754
0.0666531442465284
0.0611825057918935
0.0717619919799712
0.0576068072590683
0.0657102251537631
0.058910363450881
0.0662361953582836
0.0644262495373504
0.0657862981683863
0.0657714437444858
0.06642300069734
0.0650966927539313
0.0678523747980547
0.0660525540151974
0.0662280988394471
0.0734554492269478
0.0680731399573252
0.0719213059833447
0.0687039862625012
0.0705129130635844
0.0740192329131351
0.0653566644008837
0.0714151104910342
0.0668743452001968
0.0702812260956797
0.0655677282753113
0.0715753120808332
0.0744790845892137
0.0694699938024861
0.07277213990819
0.0721343282456338
0.072611134217872
0.0779702537885846
0.0703265140517198
0.078080984374831
0.0712671316403937
0.0754024760239612
0.0680573810901576
0.0872352418410636
0.0716631384350942
0.0829934081942288
0.0826297923491253
0.079974777382732
0.0820716832478212
0.078739837799699
0.081820936165474
0.088173033290506
0.0865664722922594
0.0844108937318993
0.0845787200427206
0.0897314979653259
0.0912115111790892
0.085766450180373
0.0899471484791179
0.0793506802930256
0.091092762351453
0.108173152449894
0.101936202405339
0.0928352110781744
0.0971302826917233
0.0996370751951393
0.102627317173786
0.0983192604659414
0.10048164769526
0.0973610441187875
0.0984816914895079
0.106152646854554
0.10411226118444
0.105138123182273
0.106355450967463
0.107107433529848
0.106734698664622
0.108713719293584
0.118124858168631
0.117633279023319
0.116768934520575
0.107527047554499
0.129263165627023
0.117166830855327
0.121432368145849
0.11726033269959
0.122476434312981
0.1248354748499
0.123283613954779
0.126463923976385
0.128957271248259
0.129757536504933
0.134394237219985
0.136884847888442
0.138195287395197
0.128202667430388
0.145520317143571
0.146543397344592
0.172444464531694
0.143015584430893
0.159448993925569
0.145025479412913
0.181298860288952
0.174330567484594
0.168564442133155
0.175608163521584
0.178948118060584
0.182077129486231
0.190412272239746
0.193079921596167
0.204279165444656
0.202270603468617
0.207613350412054
0.197823753218144
0.232414979148315
0.234680522088302
0.238105075361532
0.238395619647397
0.243020002002721
0.248127384166188
0.258797803539292
0.25798628871603
0.263198428483968
0.256663998668154
0.287786348786621
0.292738646495473
0.285770738838968
0.300032482197392
0.301296758265191
0.313036830348447
0.300977854555601
0.339472404956714
0.319422852593567
0.335435360227615
0.330197259109797
0.342885969789752
0.34494367971745
0.357729419898808
0.36810969543627
0.370078186646932
0.370521362286684
0.379984091700371
0.379838126278542
0.385132701660029
0.386568817168437
0.392355210195331
0.387676400256043
0.399208963658857
0.402855593926823
0.428259114613169
0.404135943235309
0.406668014694032
0.400952133110005
0.415916890043293
0.420017842916754
0.399792065025883
0.429230511582348
0.412349357199353
0.412015181125069
0.411569222367053
0.410167151440903
0.414489520616959
0.409029324043948
0.421705650687197
0.418615993008416
0.414455209509258
0.404059454188259
0.441394884125378
0.418488449060781
0.418094280510203
0.410394002215408
0.408291033323927
0.408356782292287
0.411132503432713
0.409045773929045
0.415346314968733
0.41097241295684
0.395900979905566
0.400601684170555
0.396760578404742
0.407391928432295
0.386491098491566
0.38452101282698
0.391623970915398
0.377400852914886
0.373602223474145
0.375220908877799
0.398668485407391
0.378001653471925
0.369613871120414
0.368659957081181
0.368547760728934
0.365460910144403
0.362351506239878
0.361913553372408
0.356840192889261
0.36400157569637
0.353667805978675
0.358114032671632
0.353174913763118
0.352621470599269
0.346001271051092
0.363606286015691
0.357707157784862
0.351847869897859
0.34479431908696
0.343380200482694
0.341359406167864
0.345638104737221
0.346628645797205
0.350379909998018
0.349382440794211
0.341697463403684
0.346563293882978
0.342173874379948
0.347787728585788
0.346137285125492
0.340354226678539
0.34225470961928
0.344846068570471
0.347163169910721
0.341769120742381
0.340384605281987
0.338949665840905
0.343497955759641
0.342401606782707
0.342156264444122
0.339192245088407
0.341368156668681
0.334719973165523
0.330563905567104
0.354957934972183
0.329837121067514
0.330713546390528
0.332528347134107
0.322182569198809
0.324488828443086
0.328976936937046
0.334111717160796
0.323539003404446
0.321484669877273
0.317411425106272
0.322131735493225
0.320411751798588
0.316552224547025
0.30935996912155
0.308024880419095
0.287273875546202
0.335056881477691
0.304830816212142
0.3292711055529
0.313409067051936
0.295710063116104
0.298493699723639
0.313589623597881
0.309256131915592
0.292025568700117
0.298174082920881
0.287890957401542
0.302418106931196
0.292783250409279
0.291273393364408
0.287216277202546
0.280752509273255
0.295679941019032
0.282943631091914
0.272359126656347
0.287561891976608
0.281459496630543
0.278151017184029
0.304288104535419
0.284119287631538
0.271144987524235
0.268620036555454
0.262702948597057
0.261435268217493
0.268120150492688
0.268902097598715
0.259125294263217
0.258661378386756
0.252741935622033
0.25485539729882
0.25521572079731
0.249210816511516
0.246118192661166
0.250120038991746
0.248353682479837
0.228403192010648
0.247932663889934
0.241807027538364
0.25693079365912
0.237015656265338
0.235012845979614
0.242931767096828
0.251413495027119
0.235525926912963
0.230279945487492
0.229061193422623
0.22784752450599
0.23258766626714
0.227179597137457
0.216816867139989
0.222071241774982
0.217048896189427
0.222537073674828
0.240653831494348
0.227374344113263
0.217265825976151
0.216704825878953
0.211201414435534
0.214986331871006
0.204922379465778
0.212438325249863
0.206767214264764
0.222754454143712
0.211535000505156
0.223469193614533
0.226530593145813
0.214407132854815
0.220494586245472
0.221548225009028
0.219005295421984
0.231881298208893
0.235930371171342
0.233166718648668
0.225796350753239
0.236263825453294
0.236383891175482
0.23869168419306
0.240825226233139
0.241706169563888
0.245271676637489
0.251543926776073
0.259686017070865
0.261725674073573
0.261685524006173
0.270879144824664
0.270494570594705
0.285153250367376
0.2844211019472
0.28062424339812
0.303722327715849
0.29779363910344
0.316909224471101
0.312481316730172
0.315438799115493
0.322809246176416
0.326391939266625
0.327124776764454
0.328840947527462
0.346789840030219
0.35077871556303
0.337228629452825
0.35495941205842
0.345406462100857
0.357845430280339
0.360502112717678
0.367577320260183
0.354489911585978
0.388879811383594
0.375744860044967
0.37645342746338
0.376710397576483
0.375077261555802
0.383678587120924
0.374796437178611
0.386253406071924
0.391583780370588
0.398784907331684
0.395312344313136
0.391647092291424
0.399156033213336
0.397628441728965
0.398330639435007
0.403464286140304
0.406559340367141
0.408977998157504
0.413392130581212
0.411658514262476
0.403440613789649
0.427934599688333
0.437577450522458
0.422599555228921
0.428557452109993
0.433458027080277
0.437873959010942
0.429550853820957
0.441099625719308
0.449976366059912
0.44501999200864
0.446578895309826
0.453230602097451
0.450270762726775
0.463016443496258
0.46042808805374
0.46745143979936
0.460801180307086
0.463289703356298
0.455377284220884
0.495163688691077
0.480577576786485
0.476228608120719
0.481076271587209
0.477003197248233
0.486105816255191
0.483779956226844
0.489070382973953
0.48589385726645
0.489135382167728
0.487397411140706
0.488235207800961
0.484374007713302
0.491894461573004
0.483953967798006
0.493114770854082
0.497597687559827
0.489575709858463
0.491360865545052
0.490204645096018
0.483694759214028
0.485670571936047
0.494247182628925
0.49034841782681
0.48887835258054
0.484056808024795
0.490441493288534
0.487448975726176
0.490378037687708
0.489330628348128
0.489033925328397
0.482898742010032
0.482105881343739
0.483154631351609
0.498453852299132
0.503569839899081
0.493625433118033
0.499540612776769
0.497916553021246
0.50243578312243
0.502406533223944
0.509591439409935
0.505834971658487
0.509340661304255
0.510576878243312
0.517424393376981
0.51537965928127
0.514826918100021
0.521062611996564
0.524416358841609
0.515870410059135
0.509755634595952
0.516714138012059
0.508060992077343
0.512521458638519
0.508005720253746
0.494455870428448
0.499575212865503
0.493695100281071
0.496416007355812
0.492655491782018
0.487565728992638
0.479379805506614
0.48107389735237
0.473167288977089
0.472240135755552
0.468826004451301
0.462685432171225
0.459865810777346
0.456552121354794
0.454940427797077
0.45813091040817
0.453598088197524
0.4532196849554
0.453290470972798
0.453703631911115
0.453397869935013
0.449876691851547
0.44720735782134
0.446347334774465
0.443679161821477
0.44303558281344
0.445908666206672
0.447982459415458
0.443030749955815
0.44638375990962
0.448791725978174
0.447408956254813
0.446771956196164
0.440140589692536
0.44274677957879
0.445854897235353
0.444276179912221
0.446204692249543
0.441956266317794
0.44524813254581
0.442677178099954
0.441583986409743
0.44243089727719
0.44241351866905
0.442658752263773
0.43866337157105
0.436343162664871
0.438325940175324
0.437217101314185
0.437811024970952
0.433039903327264
0.436824931863676
0.441110819933321
0.437779439161911
0.43920869622544
0.437750957708383
0.44297835514932
0.44052745406077
0.436625003510127
0.437313764598744
0.439574401263182
0.440649498576759
0.435739116392448
0.440629031729247
0.440165284223634
0.434770716776451
0.434722556751819
0.434082841485142
0.432055774022272
0.430671652964604
0.430956212046454
0.427818182876602
0.422674788486055
0.420249876506788
0.415521604294407
0.418158372164177
0.4140223459073
0.40743376090823
0.403621548921775
0.400057655215651
0.398172260441174
0.394032745013036
0.393897539691676
0.388869817784761
0.39124130766237
0.386989437841027
0.384502818302951
0.385736074371729
0.381488551371498
0.384157218548288
0.384796266759866
0.382338261676162
0.379648631212072
0.382334796198641
0.380561299249781
0.382560569787419
0.383003930927706
0.380706847796762
0.385974160760023
0.387091306727748
0.386437002520724
0.387022826098036
0.392477484242983
0.390946208882768
0.391505888577052
0.393077189661262
0.395252628794234
0.397102337821648
0.397897803388071
0.40161627648347
0.398738036008084
0.401105416734199
0.403906525565549
0.401494875428284
0.402365539555302
0.405218895654995
0.404962609963019
0.405517409904174
0.403805635564271
0.401790183581576
0.408038610462997
0.404037592029495
0.40400788368484
0.402873631233176
0.401322418564939
0.400321438516045
0.398223601438641
0.397358490576388
0.399200491889412
0.396989757244104
0.398492004004875
0.395097636043957
0.393635471869585
0.390849382130261
0.388967893588058
0.387912548306686
0.387656037986078
0.386563149823226
0.383254606647212
0.384080865805223
0.382154171997663
0.381634077522228
0.377286900774973
0.381577763935483
0.375906083194169
0.373083235373451
0.376761825575441
0.374359907940647
0.373713137401313
0.371629317174382
0.371272735277193
0.368185538154769
0.368923553874725
0.36830149912288
0.365188957053371
0.361547407889225
0.362604590834783
0.360741364295662
0.356037787969106
0.357373213324487
0.355590984387019
0.354284676143478
0.349230946047844
0.349470095665312
0.346309763637088
0.342055269530242
0.336957791783033
0.335808215558289
0.333599813377295
0.331453884454914
0.33199082942885
0.328753616613562
0.328072459462281
0.325981163565333
0.32535140961038
0.326651165956929
0.322994482960503
0.320825603088122
0.32244125588116
0.31807947004311
0.3204361475726
0.317976786048841
0.31201620460385
0.314745405702216
0.310718034976187
0.307557345833415
0.305048760596702
0.29904942184692
0.297215362042649
0.291819096717445
0.287281101829274
0.283695973611921
0.281605576651828
0.278568514911668
0.279548900244951
0.280979326571488
0.283382938750813
0.285549074003272
0.288518994777282
0.295015217262525
0.301145408079946
0.306729551593071
0.316319372550286
0.327516084098349
0.337137631207107
0.350588697935805
0.361424724710651
0.374116142074411
0.387431595486566
0.403493332584943
0.41616397106085
0.428071409557122
0.441969822517567
0.457443080647428
0.46817503264872
0.481650913819848
0.493491727778465
0.506842741179377
0.518418194350781
0.526541660401756
0.537821814476202
0.54861764206053
0.559820698748162
0.564918114326758
0.577961086482369
0.586367249813392
0.598250877003531
0.604804940043026
0.604432931029924
0.608739880511756
0.615242237755279
0.615783844928955
0.623906519698512
0.625712464520225
0.618274494349725
0.631211049490483
0.634599234403383
0.630096155524882
0.637393081272817
0.629667600044934
0.630280065495778
0.630669474468461
0.630995773471666
0.631899245552675
0.634895729974139
0.635949584533647
0.642812314397904
0.646430769017908
0.648322975153696
0.657144875515683
0.660554662779407
0.665372831226349
0.667096296623769
0.677300832755503
0.67814303293085
0.690191147388007
0.692106221522266
0.698757690304398
0.710688294963786
0.723117848667348
0.732506582441754
0.741785749535425
0.746007162430403
0.762360847152897
0.777039558023898
0.777776476982122
0.789807545471931
0.794906088694416
0.796666497010377
0.802783945234007
0.809777528978526
0.813225755416674
0.807541984048443
0.801561301514552
0.799361514461898
0.798227678141996
0.792664419137163
0.797090452643969
0.785223212253046
0.791557650639077
0.790533113237351
0.79149404298103
0.796771084819946
0.804781812378954
0.81283127823844
0.829620417706635
0.835336661874117
0.862909332210885
0.856486748230931
0.873052442419626
0.87618237455575
0.899047781224271
0.90696902529845
0.917894248427734
0.933652852456216
0.957584301544009
0.965268662907853
0.9664704872341
0.981621128487174
1.00566703726419
1.01665327382565
1.03849656297513
1.05333909245813
1.06711964520767
1.06789627258426
1.10515294239377
1.10956550780283
1.12368633639252
1.17000971875359
1.19707956003749
1.18271474985528
1.22830362571346
1.21767802530604
1.27577158952715
1.25450279839319
1.29801271366599
1.27744109356012
1.33573111136926
1.32305470223006
1.36460738427919
1.34406624229204
1.35859950422235
1.33664569111836
1.35366418172628
1.35668239657987
1.34009549862658
1.35629616622092
1.34061506989764
1.33861911760408
1.34805945002345
1.33168787870009
1.33104843391899
1.31249551717158
1.34691211012761
1.35508581086676
1.35057138110507
1.34875262992312
1.37198729557037
1.38745797284868
1.41033049333076
1.40437114946877
1.37851009340768
1.43819597385294
1.47299056033933
1.43417667677115
1.43007249029014
1.46460572801694
1.4718728882276
1.49036874730629
1.54447193295068
1.48677167655543
1.49866290968477
1.54845207787392
1.55507570979378
1.574757672732
1.64740033839196
1.55185418576188
1.62983235480624
1.59140990409543
1.70296409766904
1.60762789814346
1.63146334707983
1.58863434780602
1.6649302668326
1.68158959802863
1.72761924311514
1.68962457975336
1.79875215943368
1.6245636539732
1.6683427764331
1.66285998482106
1.79582058970529
1.7029291736472
1.74566516962861
1.7370052404516
1.85357903470435
1.75925006741618
1.75526958797429
1.66427548957629
1.73672745587552
1.67927454454706
1.62931142546068
1.63401089213689
1.57924180620613
1.50754470881729
1.50663126053737
1.42791097854192
1.43453429959566
1.33157483577567
1.33263138861765
1.249508149997
1.25280392511388
1.23004704152158
1.22184659481062
1.19787459208372
1.20089003234771
1.1634258711431
1.17110122391539
1.15011058374069
1.1650892227228
1.13771683761731
1.14566384454862
1.12804003113862
1.09856534476272
1.08897073050244
1.09671498145121
1.06285351101338
1.05672833360232
1.03578712124418
1.01057981885879
0.978048157887639
0.975132487406044
0.942171265588856
0.912232605826667
0.880359180447277
0.862185761709087
0.811122558679779
0.795621284852479
0.764436633308831
0.731161006444042
0.694720784453663
0.66391325107136
0.636631499859141
0.604598870746798
0.590263080649304
0.551927244746799
0.532842191660376
0.513939937230686
0.494399651204562
0.480115804085147
0.460684436221722
0.457647350878566
0.439020786937046
0.427932883653946
0.418464107442574
0.414916522585163
0.406040786626653
0.398900561555119
0.398753229308121
0.390308623879894
0.388361559882365
0.388968546749948
0.385084593144243
0.384972278658017
0.384627650382483
0.379644131989034
0.38713438770969
0.395804604871649
0.387700839753979
0.389563037023248
0.396686257934287
0.396971957269632
0.387496839276748
0.388893991243554
0.38803768856226
0.379972502050628
0.378234355271718
0.374027062591108
0.374341343596924
0.369130997976926
0.364133865082432
0.365195585165161
0.361424289592177
0.359491493134138
0.352156530262183
0.351915560163046
0.353217764416493
0.355425382621447
0.358860325098644
0.367205826929663
0.363121238308353
0.364945819270819
0.364080783421658
0.359209812631865
0.369263107749503
0.371495122660253
0.372885920432944
0.383921078833666
0.378138455251836
0.380093663479951
0.38455756834705
0.38543677935393
0.389542527954627
0.390315556919785
0.38698211144104
0.391167439868992
0.390046314136375
0.393289421966019
0.389610406926823
0.389786334861832
0.387221723914158
0.398617416072154
0.397133384500403
0.401487205101281
0.405566299760077
0.412933638851379
0.417781236681584
0.424726927532528
0.424371737127346
0.436897424188754
0.452288853870765
0.463350992830434
0.471041480225112
0.488047155467903
0.48792620280215
0.521300557652809
0.513345203373253
0.528091539778817
0.520911818946769
0.536984792559523
0.532116424873147
0.521731614383957
0.519145481754309
0.51489409448731
0.503682220179596
0.507178741225544
0.484650969829139
0.477665092954414
0.466453643983744
0.478974447182649
0.474659497519693
0.480027301105599
0.469005820926162
0.479572854524791
0.471005943592099
0.487469322487723
0.466433773199807
0.486958926243876
0.471680833315371
0.47175414636681
0.461597046014471
0.464962262560221
0.461267831747493
0.462936847222516
0.450365725246337
0.453236440952353
0.440986155849103
0.442930240588308
0.433778101089939
0.439476311024523
0.420430066884348
0.423530823560439
0.424325124551994
0.423511896961293
0.414129446014003
0.41824017031865
0.400577378005828
0.41639961120308
0.402836865927661
0.409207883330875
0.400766796459522
0.408117128494733
0.39964874152665
0.409467911052791
0.403976306692659
0.406582796474172
0.407348217428351
0.397229152669549
0.399834794944433
0.399293440656662
0.393696952726555
0.398376155243267
0.384713167145764
0.385164320203368
0.388601927419918
0.385987870934369
0.382638947279491
0.383441000271507
0.382443976728844
0.381626335048368
0.363660181028659
0.377459244112406
0.361956330241278
0.378994387921856
0.370386505840268
0.366814696241779
0.371085123517732
0.370123883334705
0.370399763247425
0.38431214182495
0.372561496022285
0.377488077393171
0.375196715170628
0.368617996935838
0.362593257515456
0.37385898890926
0.376689186427647
0.367908799245291
0.38659833591896
0.398655007685669
0.372304396393782
0.376851705348274
0.376691148395978
0.397610928912248
0.394871120096324
0.402907652421026
0.388962993168641
0.411466459461694
0.389537055575619
0.397336358479276
0.39968494240212
0.422223064552931
0.425588385901068
0.430271449314345
0.414108473417126
0.439215969185454
0.430887230545889
0.43830952610822
0.439320557629288
0.471545756535994
0.463120180655674
0.459811870228413
0.488802638092754
0.503933466831127
0.484059755697275
0.524802297055783
0.512438163395936
0.556261529508268
0.534554346957016
0.586482522853965
0.5757556480001
0.612840405086051
0.625169623668543
0.600987398689461
0.638832789905365
0.666353149323541
0.642759203962415
0.676687145745569
0.635843411138839
0.636276539610753
0.636782217716391
0.650537852646173
0.619229786265092
0.639362255065042
0.60295935072783
0.639551265839019
0.643803901566284
0.677208139307115
0.606433268833931
0.631953603356455
0.632370802438996
0.623862613212914
0.589312611802284
0.611381033444117
0.610697562480384
0.618837286937811
0.59528026214701
0.604395252230267
0.581954471010675
0.624270812680472
0.551171160331361
0.563432524865185
0.592875829612287
0.598172906082123
0.543540096562865
0.576469866462343
0.543074303441789
0.559720280427706
0.550081688428825
0.58467961723502
0.557897585443183
0.536835302385281
0.529923008401776
0.572614254143604
0.530115757352177
0.57735564562243
0.576515935965962
0.598688285706698
0.568214499935314
0.610934636451377
0.58018127164571
0.592894576517142
0.507325686856817
0.564122705772254
0.561795090322855
0.590624764939301
0.53410293794908
0.650769777740101
0.592098326542751
0.657006020672333
0.545562254568361
0.532761413872308
0.566824790873719
0.667307220599592
0.615436767533562
0.619354018404326
0.646124263991269
0.643100863769986
0.559726275065718
0.617243661021015
0.664899554942125
0.651507479473432
0.588155209677757
0.652892369468395
0.600938852854935
0.65487865704302
0.6253362856204
0.662190645856892
0.654067562770446
0.808032425190328
0.692191979130509
0.724765957207254
0.682816441026605
0.722431596672042
0.670245362443966
0.753954312383987
0.731550425468224
0.807470352731244
0.657614563622699
0.796155827589507
0.813259723598818
0.87196996670374
0.708443264142514
0.870497267190469
0.697866351633892
0.79663796372373
0.696169451155463
0.836497593129375
0.730921259347173
0.720526907799988
0.712124052173717
0.752056583761091
0.644106463253422
0.896558998072974
0.737238031751019
0.694675660670568
0.597050640355711
0.680597507337492
0.63551664891083
0.820921336271577
0.610012494524509
0.918574594451319
0.654483986840528
0.940944196115237
0.597912832188715
0.812601256007123
0.673239862262064
1.13759895780359
0.81279442344842
1.05495408677589
0.744796005591607
0.710257901457681
0.573360342391616
0.810471256621243
0.5660306572176
0.754291543836781
0.620733785072342
1.20898192946224
0.87885334478429
1.13645033629642
0.622546885074495
1.10568241883666
0.933185763514763
0.793350943344599
0.50230494232542
0.906704645999375
0.774030886812376
0.777806886989907
0.79293002702907
0.721661500281813
0.483563918069951
1.07956241696273
0.564170507094874
0.746483782050573
0.55592289125743
5
0.532762513763597
0.710926124334609
0.649257061512091
5
