3596
4000.36533379555
650.420452594757
1
2
2
0.0377671896984579
0.0423334293817126
0.0252504156165712
0.0505835510228049
0.0338305626177958
0.0381804231724026
0.0363587960457238
0.0477983947153078
0.0314434140673332
0.0538263747013371
0.0328615731699533
0.0474171484867473
0.035313315851246
0.0439259975334541
0.0319251555629771
0.0421558101773635
0.0341216632240955
0.0431650995912677
0.0308123585427729
0.0454254539756734
0.0254852701810806
0.0495539199067393
0.0281884103546499
0.0426308835383973
0.0277814292245571
0.0561656269708534
0.0343789240288915
0.0380775283300425
0.0290686089332296
0.0471992846465174
0.0323840407196395
0.0426018175159022
0.0306019649180165
0.044658109640009
0.0261517062979194
0.0419351432684792
0.0320461733078143
0.0448940088809356
0.0269759985893529
0.0417332729650021
0.0385886803960611
0.0476667399524505
0.0392907673866935
0.0521029685257781
0.0246044412365667
0.0396775235411989
0.0291240420869621
0.0390770319064195
0.0304899363654396
0.0440984498019414
0.0311388636590398
0.0397376865276862
0.032725105587633
0.0573803744639582
0.0286585147468088
0.0451452593006962
0.0229093204552854
0.0406453343903914
0.0322637375854931
0.0352732809312022
0.0316773146188451
0.0530322370398041
0.0273166601070432
0.0495451149649228
0.0297006717998597
0.0439894370535059
0.023338277201866
0.0484489088685475
0.0238480464744539
0.0436200042587623
0.0252172285892949
0.0320419050255646
0.0341917964770832
0.0480673736863468
0.0278676077672223
0.0385878226942337
0.0204488170037916
0.0446448003925529
0.0248809650463227
0.04679494249481
0.0285710382729253
0.0474273261017014
0.0259785303907038
0.0382139094230696
0.0267897292874283
0.0492390641063037
0.0210870112885907
0.0426154148660995
0.0264746598438893
0.0384660314741183
0.0288505338909751
0.0399686432121508
0.0237688157106033
0.0420760763754901
0.0224031718094555
0.0385682129652544
0.027673863127929
0.0451625974048923
0.026864326848418
0.0346607149950295
0.0342553006438664
0.0339125326953692
0.0553934901667696
0.0185686695209619
0.0439389213144596
0.0508064039997273
0.00461874428896453
0.0623388495196168
0.0225481923218308
0.0490233073783055
0.0189094263040088
0.0493214347741121
0.0176912241151427
0.0499229691880736
0.00669446422154678
0.0395268181227798
0.0434589192973232
0.0455524277336053
0.0235788376076597
0.0344010024759859
0.0187041413016389
0.0318163126826289
0.053277933722256
0.0351259323857765
0.0367559075112168
0.0307120725575554
0.00398315344014587
0.0556459733703921
0.0497803362530502
0.0354842953563852
0.0397895408764121
0.0352665244884438
0.0219574611676469
0.0193514244583128
0.0391135939810576
0.0371418559310283
0.0286598183782522
0.0239669957164358
0.0233443695794576
0.0643345947544506
0.0302626442642287
0.0413724287221316
0.0132968441234542
0.0359206888758348
0.0341852158211048
0.0388427114348364
0.0205991224854244
0.0413692879128897
0.0329470698736573
0.0385430915027006
0.0216689770464864
0.0318505189101701
0.0282597578382504
0.0424077217659691
-0.0176235787353805
0.0223281190194953
0.0550065242483216
0.0218557090565895
0.0698231691558724
0.0290011827418859
0.0439583183421557
0.0309791170849235
0.0289472766779842
0.0309903563728082
0.032480222656139
0.0298279244656952
0.0223018111679801
0.041493888877233
0.0241344575515771
0.0340742159986099
0.0278242490496898
0.0367970248369892
-0.00726084051664248
0.0664221501063629
0.0320948072059527
0.0215115913126616
0.0375588595235178
0.0399761010090026
0.0184109775693571
0.0255753031147009
0.0409201707233635
0.0312632861860179
0.0362477781533916
0.0397245181502116
0.0299592609519915
0.040798848331872
0.0319427932246044
0.0312596974128451
0.0304344390688852
0.0152160824496133
0.0145948290028004
0.0493506324256165
0.0539102581976663
0.0256448953625922
0.0352869462110639
0.0021056796622841
0.0357346916968106
0.0435606683783027
0.0190228758901981
0.0414218757051289
0.024257815187285
0.0354204094724329
0.0312548668423786
0.0362994012182608
0.0315250397591161
0.00568029245213287
0.0503882159303645
0.0383596556273722
0.0247323570591486
0.0312549810502458
0.0224948272382593
0.0154130615881658
0.0471483695336338
0.0557304273133761
0.0275653525125951
0.0284279355595241
0.0213332936778582
0.0400851436249781
0.0365817827386318
0.0381999262800092
0.0276711603003215
0.0355615685065921
0.0212903433068244
0.0331350040751815
0.0240242505114743
0.0366872839205665
0.0267757807475228
0.0365133059972549
0.0200166862582431
0.0318392882547938
0.0281656946775241
0.041427748478317
0.0269477366625491
0.0343690017602088
0.015846556298854
0.0369474750992988
0.0402180062136851
0.034992490890062
0.0304384600519401
0.0333852431588881
0.0277243886324956
0.03580375997484
0.0324106242419096
0.0316893974361332
0.0279609436488825
0.0210334104506025
0.0482194772843004
0.0327507429948145
0.029377173306043
0.0246692529908252
0.0301420163614696
0.0444997353593122
0.0325296784196907
0.0393169716012324
0.0217036592906959
0.0408146700973333
0.0159069716320324
0.0528531567961207
0.0315677794192916
0.0224849669402425
0.0333085773666453
0.0530596692687368
0.0203092292257131
0.0354839693365904
-0.00554615623793578
0.0808962418105685
0.0291298965867379
0.012422809538758
0.0605107531242933
0.0382596055851199
0.026227725017323
0.0387637735970507
-0.0344776417728929
0.103082411770065
0.0678492841921319
0.0438556583525691
0.0209306213817603
0.045727602140012
0.0272678159764946
0.0381038145227066
0.0260111779044651
0.0296471154774269
0.0353951318682656
0.013616924621163
0.0566498602027004
0.0201522599728528
0.0330119283438041
0.0549928276811247
0.0295889276317487
0.0475598720402663
0.0343103082100473
0.0296816221430834
0.0342866024256488
0.0489015273119408
0.0306644241287741
0.0516194622871068
0.0162582633709045
0.0524652836873949
0.0355168637449601
0.0400903369551853
0.0201017458478052
0.0570540196133313
0.0292302333494876
0.0439317426342927
0.0291315482143148
0.0382106547699699
0.0249768579084894
0.0273157961176238
0.0559735785183689
0.0468565396080909
0.0136448578565412
0.0554707949721159
0.0329555237932989
0.0442268066965688
0.0270270397098399
0.0540198063908948
0.0325371399976629
0.0475556142878143
0.0226545736129617
0.0536147035962817
0.0335190471077443
0.04704925608453
0.0334850488925931
0.0438608245520994
0.0351925539988186
0.0465885585394855
0.0415966977010577
0.0416694516915964
0.0363372643539522
0.0415549971437238
0.0172891213095312
0.0679037270203528
0.0121139855019796
0.0467989942461891
0.0610605166815574
0.041602141059674
0.0386868453217733
0.0443556836977539
0.0446918043401888
0.0425218763622141
0.0460733481677664
0.0491924910063576
0.0492031673808428
0.0518980739427946
0.0482821146644002
0.0502732769027806
0.0288193849696566
0.0668451165526475
0.0645550250121375
0.0663522736142449
0.0559639660864226
0.0311266146496275
0.043825023444596
0.0753077378947297
0.0354506006245402
0.0850693728015394
0.0390632110026946
0.0719756331457242
0.0470159486481443
0.0652292709529054
0.0522912866655824
0.0681857772941365
0.0522496092455673
0.0680703758778309
0.0605977991919154
0.0716623808378239
0.0587514964941185
0.0646390766931503
0.0875067283524072
0.0793553652371924
0.0572102774564826
0.0847962227486837
0.0519155728088066
0.081783728385918
0.0703172907424582
0.101146318999576
0.0942816899518736
0.0723155806103459
0.105049031564212
0.0760183903009003
0.0838207494502212
0.0814748731699006
0.0852542245653351
0.0957165886314714
0.0919692692502313
0.0988539171518786
0.0954261252348116
0.101279133560231
0.101332434673099
0.0989394828520058
0.103625713017847
0.10282749825997
0.112202690997682
0.10425386158645
0.104835587636115
0.0977008299654051
0.0912170650901823
0.144434885371912
0.127489503077503
0.127427410136609
0.11311303181682
0.135491008501423
0.107482543093046
0.13750091356986
0.119600464560256
0.140320038555512
0.106941439451497
0.153921885613135
0.139957444314268
0.145144494125566
0.14090673509894
0.131310188577051
0.141742979099628
0.148579992101165
0.152784560754784
0.170026339311446
0.146248379776523
0.152592877687486
0.152575845802818
0.175227382587899
0.153036832764697
0.17693396072286
0.153392531074743
0.177630957073773
0.154808773149185
0.177907400417407
0.159449381459505
0.188728903372768
0.163618608073099
0.188180709157878
0.186466879513692
0.18783252198709
0.164423694780341
0.202646674508397
0.186391752881202
0.185171942086873
0.204407973500767
0.208188520750229
0.207999873032083
0.210338786353812
0.203327458668811
0.223205276770564
0.185044542126339
0.239267956005689
0.201419650451575
0.226904305536913
0.215779466627032
0.224091497674077
0.204853303858052
0.244905571815089
0.224911403457826
0.24228412692597
0.232868204670145
0.236932462842228
0.230796792704323
0.248247244811481
0.24733592516209
0.255373691470201
0.258804411217293
0.26910096830967
0.257633562527457
0.284651318793502
0.256823360510044
0.301977120090306
0.251811417175551
0.296185743837485
0.25578372096248
0.296035379828719
0.261786741892208
0.302057485281368
0.289043783945136
0.30315086627122
0.290987036124463
0.316123342481257
0.300629379365886
0.313479335500029
0.299962507648034
0.329628031207602
0.306724353535506
0.324466488019055
0.330922453208241
0.344505334430694
0.307811066307086
0.348528252539418
0.338657006304368
0.352441975496463
0.333511750167262
0.377475944665339
0.348597236933133
0.355826459052775
0.357970141673222
0.369949705508216
0.356579831661304
0.381393962058589
0.373734243901849
0.385111382315415
0.380780083413502
0.402601744222345
0.388738348455669
0.40689441216986
0.393283317454806
0.417501645340547
0.392652759124179
0.422825354805374
0.408799338961706
0.432570938219702
0.404228528088613
0.442995848365981
0.416583352758238
0.445908128604515
0.42482625478515
0.454077841098741
0.434361601796569
0.478091001241973
0.448820507550305
0.468406742911634
0.446486523526202
0.472332966250811
0.454794830265431
0.500983306780163
0.458693779580948
0.488072103667191
0.500003597277084
0.509971353013243
0.492350094385764
0.507217176731384
0.497639422588681
0.515824426898629
0.489724862110954
0.546716286014131
0.520462268062811
0.534087004988101
0.502515404561143
0.556210201057913
0.519565821866303
0.548018851640205
0.532029493933472
0.565210284638339
0.551834209923861
0.580813513833009
0.558009051344259
0.583489115238115
0.571918441196546
0.596996229603394
0.552382204522978
0.600402304997832
0.584586248631117
0.608639051846528
0.564826407805696
0.590655451498015
0.597971291942115
0.636657981995441
0.585187317275292
0.669657353680022
0.622562317255442
0.610141912700249
0.598126687205928
0.648485843355559
0.620532290303775
0.661377078727498
0.617311624776004
0.6578179594381
0.642962489595617
0.664955335849394
0.655711254866505
0.67106939274418
0.65627973836313
0.655779827680714
0.634791480968374
0.70441693169929
0.684653813965042
0.673972214405511
0.68780938173768
0.737845439083319
0.665151815292033
0.700678562472493
0.693577672898839
0.707136877689211
0.696761757325189
0.735833123242428
0.729613276873714
0.743250855352958
0.727827798680859
0.770728623633719
0.706151934858759
0.759670618487792
0.733924080166918
0.775360236414002
0.741574411941025
0.774893997947926
0.752372841859668
0.820579970633827
0.750797931724266
0.770736007336559
0.765953504609554
0.791830097726373
0.761544249708287
0.79462171733587
0.764883642286788
0.832143278011897
0.812065081852152
0.810482238809067
0.813029157681815
0.823727578547408
0.785267345420913
0.834104556308978
0.795635209774759
0.863252449780625
0.865454871184558
0.848336170329313
0.819557445335889
0.839323291415599
0.808969268779877
0.831217982921319
0.86134594462218
0.846164258641862
0.839900153414198
0.904626633249461
0.862900500775572
0.87850118227662
0.835644311338135
0.915534825246547
0.903829773800496
0.939466180822873
0.90126037321191
0.918350667452663
0.866111230085561
0.909325353185112
0.904889675010607
0.937322834727029
0.871539485872233
0.934775219522498
0.893488329015906
0.928434931589991
0.912792199949241
0.950780977796182
0.92254897654378
0.956361702965564
0.891397026368063
0.947242672607807
0.898306432929248
0.916013400222391
0.919480283861647
0.971820574160918
0.948848164190169
0.996484775739502
0.954029014865009
1.00019989868948
0.978849570014313
1.02700846450483
0.907238541614284
0.98401700627313
0.961280321609162
1.01221903336059
0.971302222499517
0.998959834897242
0.994117469830588
1.0183610641104
0.980909414600993
1.0693414405124
0.986645369993001
1.01225489025611
0.998125811886219
1.0426617616169
0.997943486483543
1.01915994469039
0.996347227737304
1.02251820886347
0.955830298223174
1.03106094719114
1.00415001106033
1.05957860961375
1.02089139030614
1.02450769992999
0.949345712066335
1.00018755001272
1.00801538545082
1.03652203304723
1.01671252275947
1.07911450241007
1.03884532316033
1.06280716722251
1.05858614206308
1.08024696474804
1.01777943769921
1.04151170597312
1.01614056813442
1.11439917791167
1.05302829632312
1.04867184826652
1.00559164312413
1.07717088483194
1.02592733167732
1.07440926249936
1.02872224207948
1.07545642572089
1.0331828569647
1.10184138696756
1.05605694105173
1.12092967170725
1.04171583077902
1.09059993357216
1.05568630132567
1.08983637726377
1.0540814995811
1.12503151201794
1.08555107228307
1.12631110783831
1.06174522540738
1.03428593501815
1.01823653114947
1.13327305468346
1.09984842935718
1.08023662863628
1.06675777631565
1.07398782787148
1.07843783629526
1.06919640425786
1.08728100099372
1.19368779187871
1.03905844496834
1.0713296222701
1.06003277559037
1.12892213452777
1.10831073754503
1.13975286236446
1.06506349157088
1.05559884831999
1.0935896002594
1.12951866680567
1.11558855702052
1.11331805383563
1.0772304983998
1.10539601906545
1.04380668244078
1.13714576531495
1.11268380605312
1.10195667274759
1.07829584679952
1.0691729445126
1.05276903478144
1.12786174555031
1.06162715336369
1.07963483390294
1.07812520946591
1.0786063527945
1.02604746391476
1.087467469651
1.0871861006235
1.05700513054621
1.07650681286829
1.100100824265
1.03431417757163
1.11074912453858
1.07995011739989
1.10849168777148
1.12041451499982
1.15711514960415
1.11050187117627
1.10256028884219
1.09114492176594
1.12151705658632
1.11604090670863
1.16950472385791
1.08118288420813
1.12393135066406
1.09543866515906
1.07977603589154
1.02807559658546
1.07118189006596
1.04540856263217
1.07446306271117
1.0826585502999
1.11425777582965
1.05798551388953
1.09374176918857
1.08418975043109
1.11635598615126
1.08422951314208
1.08687056039168
0.980768845215128
1.02771506436469
1.07432407325488
1.11395352393575
1.04454048454167
1.10056432773602
1.06713655728285
1.12851352801717
1.03688639967653
1.04236016003414
1.02460800918878
1.06721841089673
1.05421003733418
1.09193854610698
1.03838763703492
1.04230948856563
1.05971752135566
1.09621729177241
1.01030344462294
1.03372910253153
1.06223640730817
1.05584794660628
0.983881160176483
1.01976080182998
1.00270714883233
1.03149262385288
1.04002743906506
1.02092296214849
0.992223042702871
1.02843177470334
1.0112685197354
1.02219986335889
1.00391179709822
1.05158546033411
1.00000491303278
0.995738754275818
0.981824321011809
0.987293378722745
0.972305094979232
1.00468542698642
0.980315224707066
0.997994665891065
0.992838451763216
1.03111447416608
0.960781085696263
1.01280296068198
1.00932046822556
0.988150620422232
0.979779315936336
0.973134909830629
0.963275461147761
0.985562791223038
0.971641761065559
0.979729470515759
0.967569374867098
0.999585356146257
0.988989562191442
0.985780147252177
0.978240305566178
0.957499047979328
0.903936543459752
0.93968999428136
0.91602129427294
0.955116092093674
0.920964338525993
0.946655639781381
0.935930444379727
0.958225135934825
0.918448861905132
0.924709733654391
0.922884088360974
0.946068081762571
0.934038135647792
0.944053477498611
0.903555094523119
0.921684279940964
0.92128324894976
0.90735181080623
0.873893744157726
0.920316960686351
0.90698440605696
0.865731141961326
0.859709698818325
0.912235291115149
0.873001178463071
0.881864500879235
0.850905266859785
0.894110219238449
0.867546571674292
0.851973929899264
0.853662821693761
0.897591788849344
0.843352100046065
0.851124551803025
0.834093661403087
0.838087921233076
0.834752639993484
0.840160496630652
0.808877855878342
0.825180223967936
0.839865763909609
0.833925234593549
0.812884863701717
0.825996180197021
0.811730447695718
0.821595244426826
0.798103850768415
0.801431161077526
0.798507374753566
0.819629913394965
0.771253498398947
0.793532839786675
0.794912857064499
0.795272210985547
0.766106472199785
0.785515468774822
0.771377845943751
0.780465595060779
0.765205467824936
0.750432208723523
0.746232026833546
0.77983350323919
0.761453875057886
0.771976282668937
0.744121760583796
0.750142394099256
0.715270373442478
0.724635028611448
0.733590517280866
0.740358375911491
0.733046231868156
0.721772286263395
0.706226075105812
0.729195022309146
0.712482952944164
0.718723635798348
0.699907023796323
0.709528437975428
0.695179328532162
0.703799537691582
0.687403847640146
0.701765901768192
0.682827610942343
0.686027268170499
0.691123263591753
0.684060803562594
0.648427891273728
0.680320374313885
0.662673064133221
0.659453240595623
0.668985945412556
0.644770597384797
0.642608999218958
0.650059152535704
0.633041808524436
0.640409501387079
0.630903875827615
0.645869855210779
0.629768373930447
0.648811114335821
0.62033016013457
0.618369707026963
0.608794518679377
0.625413353625467
0.606412444272765
0.605060947612051
0.606016210287374
0.601174522137319
0.598303243182911
0.611851589819364
0.594199914651067
0.605297966096747
0.591068023263492
0.601873122894297
0.585380015522359
0.596692033541342
0.589416374180486
0.578646589597231
0.564232416145577
0.571546548130257
0.56211501917828
0.563884677402053
0.565503602417078
0.565388462222444
0.551564669153263
0.557438174371977
0.554570580404524
0.551298444610888
0.544453523664991
0.542797063312166
0.522264809149055
0.537465259684097
0.538678806362083
0.5307622703172
0.533631610347364
0.538238678410556
0.514374228522813
0.522063433983576
0.512741003194403
0.522336162733517
0.512166243750027
0.510912346357897
0.506924319514351
0.512017524702747
0.50137881399358
0.507555856619073
0.49996916395754
0.505277634572499
0.48858455786112
0.500962227802461
0.497738355975806
0.49657510809679
0.477213738905164
0.485213226239105
0.480745823633114
0.487576735194058
0.475392576560009
0.472620999794593
0.461919897404221
0.468766574378891
0.463521731070225
0.46612291304692
0.464904737853058
0.466949252568553
0.457102375651285
0.460395869655254
0.451819542852693
0.449411505280477
0.442379126426788
0.452480877100284
0.444126743051366
0.441001001196878
0.428188733699139
0.445032564810358
0.438096737795237
0.44054445376226
0.426961867892852
0.429964927796022
0.430006554712333
0.429350365874353
0.423901434786926
0.424002069124135
0.412541135347618
0.415995226475381
0.40593116921474
0.418505515592835
0.415895577913153
0.405855346449957
0.401063919972007
0.41683718120233
0.399213097469236
0.402156694979551
0.390178890994315
0.399641262391812
0.396746224666486
0.39343345811311
0.386180200052302
0.393804639916708
0.388958168063898
0.385698460794668
0.380645013691478
0.389295784714925
0.376955165798204
0.386055249026175
0.37942368506495
0.377529439864743
0.37295659572297
0.376225413391616
0.360379326080459
0.367655275568086
0.361050729861498
0.368125555274849
0.366535181223022
0.359477982143168
0.350284664515082
0.358061807620345
0.35532429683119
0.359215453913464
0.345891973558447
0.350365851602634
0.347142521026421
0.348753240437678
0.338625541836659
0.345223994103188
0.3408210652428
0.352655604439015
0.342047140536328
0.33955980180881
0.339237070760401
0.335038142671157
0.329380529965289
0.338072779596761
0.333316270121466
0.339260194172125
0.331032342636411
0.337686858283065
0.328885012238936
0.335335893919739
0.329542166270338
0.330870069882254
0.324440474028199
0.331244353778956
0.330289728905028
0.333014375437318
0.332183822326401
0.338192209948485
0.321750398710644
0.333090425406918
0.331588517765897
0.344597575710686
0.330340936818685
0.334264119048271
0.332763230198372
0.337376807184312
0.332398681362425
0.342271539100795
0.338142499980862
0.34700431564837
0.340940769533955
0.341763724972505
0.345470470762
0.355074050132945
0.344752754768267
0.351892755979222
0.349188603183532
0.354325573995077
0.349571920707269
0.357349699044954
0.351016458669518
0.357736585431931
0.361559362702243
0.36058863202496
0.360543587489446
0.368823802131278
0.370338937380886
0.374395688128101
0.361359479053319
0.37443482776123
0.374006761488304
0.37945186479812
0.381464886809082
0.389712918127664
0.380367042372215
0.390530821931275
0.38651666733686
0.386076419394384
0.384075859266845
0.399711015682372
0.395091501088871
0.404448561673613
0.40157097537637
0.404124438654986
0.399410890080759
0.416906526815956
0.413308046305794
0.41711787621594
0.422412489885057
0.428083639810747
0.42256182072671
0.429736098547651
0.435921722832986
0.441808725441634
0.438658496662984
0.441108546722274
0.436139861733846
0.445176548633115
0.443839560996422
0.45122414519505
0.443037822766212
0.453588153177193
0.448764157828241
0.464084369151912
0.451347869437331
0.454194811992296
0.451108768786077
0.449333895266166
0.439108958437002
0.457270891858879
0.441803227840545
0.451313181196363
0.443362845586798
0.448281745986817
0.456341053842435
0.453532577130572
0.438847406835621
0.453578919301632
0.444768554762091
0.451097223020278
0.440997683592347
0.444807648398687
0.44922718214447
0.451897626630186
0.439880122990975
0.446485519550733
0.443566601186676
0.442727933563081
0.440840801457438
0.448657250356126
0.442157531769245
0.45723846702603
0.446872012161129
0.453225219886819
0.444450587634548
0.452961313962113
0.444505147715685
0.451108054063436
0.446453881486881
0.453178318007218
0.449546173770562
0.451447074921168
0.447731142674691
0.452632011892108
0.451284598377486
0.454175023581831
0.447345096219907
0.444943428682706
0.445429155043718
0.448580147253872
0.446158139404634
0.450133134259696
0.443952501930508
0.439718432686257
0.430405753380967
0.447816247767682
0.442987149416514
0.438032823779365
0.434952815043837
0.439666194020774
0.431846424465824
0.436574038390563
0.424026291546234
0.432811273409892
0.434506412950191
0.436041255144586
0.424508306339316
0.422288029287594
0.419039864634993
0.422327563309933
0.412256648678697
0.408205818712733
0.402458153671837
0.402396968733429
0.396771681714735
0.405438098331835
0.396112719588957
0.391941386341113
0.383652084986263
0.388396378410192
0.387954374782053
0.384931558413466
0.369958114656198
0.379953948931767
0.375433638489569
0.37459222557778
0.364004263847738
0.366072974253994
0.365493215538109
0.362438945188818
0.354755356857091
0.356019397783007
0.353601768533212
0.348805197499547
0.347047887523269
0.343044928651091
0.334995186353272
0.347158257049707
0.337402631529022
0.333603610774772
0.335293730969968
0.338767577587327
0.326946791452768
0.327701203705018
0.326842440799299
0.324004721846264
0.313566440716334
0.318749733110071
0.309709070543925
0.311271797492633
0.310814051902127
0.308796353943677
0.310320645777056
0.308661583857204
0.303460830660803
0.309201044795061
0.305196550419589
0.298921817641809
0.292778915281781
0.29992732207105
0.300192072829407
0.300160593460375
0.291985944936849
0.297462197115966
0.291833277435533
0.292069074694361
0.289723590879198
0.293280192248361
0.282282709835682
0.287117654427142
0.281104444912332
0.281374638544637
0.280350409527662
0.280879991342619
0.273665969140231
0.277409486656424
0.271542614149651
0.272447192387547
0.266366948376942
0.275221835315238
0.271501838180693
0.268591461663363
0.262415593317325
0.272740884545825
0.265540497232083
0.270792373171018
0.265339109319782
0.266777380924557
0.260407295264644
0.26675723692322
0.255719610330989
0.256591999830517
0.258876129161885
0.260908594709612
0.255778019771889
0.261018087406205
0.258873575723991
0.256709604124718
0.251539878038729
0.255055693065109
0.251775413543195
0.251384585468624
0.248660265062032
0.2491255697943
0.242448677564478
0.248245405145519
0.24686276529523
0.245851970347854
0.243018646708783
0.238687105156649
0.238807732016439
0.245412426885837
0.242340335637724
0.244336611309353
0.235130586159531
0.237790845646409
0.235944339369019
0.239954830608134
0.236122371371951
0.238762536562049
0.235197472483954
0.236421252049325
0.232883410181115
0.238365661201111
0.232304566429153
0.230588808121661
0.234710783332638
0.236370336356177
0.22435642993199
0.231141866292916
0.228032573386437
0.23251190993913
0.226980958713811
0.229436720729155
0.223581230615456
0.225523682844419
0.224054482131386
0.227943951291611
0.224090542063935
0.227029701542877
0.224661157309733
0.225524312102197
0.220767753307629
0.225157042141221
0.220282240418612
0.224645931762735
0.22711944506436
0.224240166971031
0.219225651671102
0.21868127341104
0.221065703175252
0.218006256859753
0.215586945432941
0.224881159411578
0.216186785835775
0.221326903979978
0.217789997145503
0.22181011854899
0.217036205995077
0.22003707816382
0.215910867963654
0.216296902337551
0.214181173131649
0.219892256545896
0.216083278561374
0.214777225097876
0.21367823183406
0.212112886601777
0.205834433063768
0.210637293183554
0.211992102624621
0.21170319539449
0.210210124606652
0.213579156495684
0.210367581569917
0.209571894143259
0.205082479172184
0.213415572896558
0.207014532508275
0.210127301596126
0.204855585265767
0.206394340951392
0.206837101501196
0.2053845195619
0.200201456227009
0.20684976119682
0.199178537598196
0.201290058329414
0.20101087546098
0.204993700144464
0.19990858284751
0.202309410825597
0.19614173982485
0.197442946660566
0.195644315481725
0.20077983265618
0.196349920057798
0.198301749967644
0.191493125651613
0.193801690372049
0.19415631778367
0.191782631273789
0.191522082934713
0.195493793828769
0.195192693966667
0.195150285657602
0.189422423861892
0.192129237461257
0.190538404202049
0.186861507597632
0.184241107734718
0.192080856223548
0.186553258011206
0.187857604265625
0.186540010681885
0.183281575871548
0.18229463273272
0.184740582655193
0.179072049696104
0.185483091311667
0.179273629290302
0.178740229719463
0.177451215225128
0.185679840990303
0.176352253876299
0.178273188990924
0.174683916549868
0.179590201769675
0.175123142963575
0.174721592108472
0.172240074325747
0.17630970495936
0.169435996709758
0.166749280748051
0.167437022085529
0.168903773841512
0.167349705460439
0.168365703873073
0.169411968843798
0.169859894200126
0.16311477019881
0.166789630758907
0.163778518977678
0.164339682408475
0.159017859710649
0.161451695055768
0.159119571360189
0.161777836003401
0.156625377171051
0.159577428802238
0.154462793179849
0.160429540931639
0.158208577983821
0.155247232808918
0.153614955681203
0.155183789867886
0.15297150100488
0.156491490516869
0.151898395321
0.153248248268411
0.151826040175243
0.15489592525808
0.147107557799207
0.148838752274982
0.147114181269845
0.148787842560268
0.146128710687951
0.151357725566145
0.145605803923602
0.14376570374937
0.142110674401791
0.14403081252393
0.145101387702121
0.143323193358825
0.1411935396856
0.144404706188495
0.140932166988558
0.142015587426968
0.139275162261117
0.138507635719291
0.138113591372332
0.137617533972356
0.136088002876464
0.139535880039418
0.135892608849323
0.134649082180875
0.136413122617772
0.136933881337662
0.132369188214246
0.135000788486514
0.133078121126442
0.136179245563393
0.128644577704509
0.131210616519472
0.131567412944841
0.130833002854133
0.1295683440058
0.12975123035916
0.128473480085504
0.133130281498393
0.127367656930155
0.131600257214222
0.127017646493288
0.125930526722544
0.128210600693259
0.126260020103151
0.120978344665555
0.126595198139511
0.123988608758117
0.126704558893277
0.12394412899711
0.125210553920229
0.121890132645892
0.12194093168814
0.121807270058142
0.126376298462015
0.124647801149012
0.124003138608374
0.121354158416234
0.121762209642271
0.119052790413992
0.119928012484735
0.116804132660763
0.119363330795294
0.11872951923447
0.121760882375453
0.118410677572729
0.11909135880119
0.117706559458684
0.118560421547705
0.118413098603703
0.117584994009437
0.114301062579082
0.11908836276484
0.117699453667433
0.116219607983965
0.113637809344606
0.117424744106916
0.11768512334507
0.117660814171846
0.113723659172775
0.114480949020538
0.112575673613754
0.116282992135767
0.11130528877349
0.115928172480418
0.114476309482368
0.113699174744017
0.109833278367879
0.113859356196056
0.110277841346495
0.110879382106733
0.11052731504229
0.113345222866519
0.111155564145848
0.110499805215088
0.106986951601738
0.112938039950192
0.111306007432879
0.109182427192323
0.107780094085165
0.110607291546063
0.111264508376665
0.111043068909961
0.105275172028951
0.111566619695928
0.108337479548605
0.110404682998947
0.107005500247245
0.107785897777067
0.106901931657333
0.107707925082919
0.105759049512621
0.109267396358908
0.105561329869217
0.109172270303072
0.104599707060074
0.103064577718624
0.10004553301872
0.106171836852466
0.10320397758718
0.10293374969926
0.102050423128504
0.102623500591854
0.106311623087853
0.107373551484266
0.101713870223619
0.10168329238459
0.101925851087115
0.101841311851324
0.0986858701817721
0.0991764639720471
0.0998139766157977
0.101038093651473
0.0979221408138719
0.104642648071037
0.0999706792646775
0.100414877510452
0.103254178107293
0.103088109594211
0.098262797859621
0.0974625471942109
0.0964602703296423
0.097346169234935
0.0986847948140478
0.101500614209436
0.096563184994009
0.0980628386418882
0.0957145980850304
0.096865253309447
0.0981068054778641
0.0956261206479515
0.094760340019203
0.0984970958511866
0.0948011544200848
0.0941898937468043
0.0953778998395213
0.0972522485835328
0.091727106787779
0.0937826070758434
0.0928979500854444
0.094776981215633
0.0927675883607809
0.0924467943705709
0.0901078960015815
0.0930944257678848
0.0926035001512963
0.0898066140767986
0.0882854935106081
0.0920102241945512
0.088146397386386
0.089314019905936
0.0872754311895218
0.0889700223853001
0.0842046396274039
0.0881018871175862
0.086671229506962
0.0855820576662769
0.084581973803724
0.0860028290798214
0.0826246221596439
0.0850440224332501
0.0844280600792618
0.0874493449848627
0.0849398797786509
0.0865672585673892
0.083265390327794
0.0837818521916249
0.0816681400579392
0.0859162845298393
0.0798620035364735
0.0806703968413403
0.0841773496263069
0.0840709597071759
0.0797654555348901
0.0818644851172273
0.0794466211156072
0.0820937192826408
0.0808298256070247
0.0793829752635611
0.0785558347263274
0.078441732649078
0.0764855527645523
0.078888867094827
0.0762813016214071
0.0774964045318661
0.0769246670425785
0.0770873824498494
0.0742343490252953
0.078387040696047
0.0771107003127501
0.0805226819226019
0.0752286385155555
0.0768489948556584
0.0751957718452316
0.0742612777629015
0.0727872646202128
0.0730735780234369
0.0725970586349605
0.0753799027504395
0.0732266134737785
0.0741263907927532
0.0712489844997091
0.0725833486480972
0.0728493525956005
0.0753696270157133
0.0706357907392548
0.0749363141207995
0.070810209664049
0.0718520821895145
0.065300890700695
0.0724155147878182
0.0718551972813153
0.0707363369222178
0.0671800326811196
0.0697402747892771
0.0676274956608174
0.0706407675341778
0.0665134083135647
0.0681680853434607
0.0668438739538662
0.0666869274687493
0.0643757644860382
0.0673592448122893
0.065811001283391
0.0663865103751337
0.0657966550675546
0.0682318749305335
0.0674717592209833
0.0644113908514984
0.066070835679084
0.0668954196632683
0.0636256670942386
0.0645858281353454
0.0629183934878627
0.065992290625221
0.0635984048450133
0.0677667834180149
0.0659810815521945
0.0665577421762628
0.0626772788384227
0.0640823181456467
0.0631286854750122
0.064594210789586
0.0635361982431286
0.0654840061927007
0.0627476441257833
0.0635912601732245
0.0605677786049017
0.0656505637387362
0.0636260648904215
0.0631616109503613
0.0614461291471299
0.061826988012436
0.0613729026273633
0.0659913522489101
0.065601964870828
0.0648013591846614
0.0624886039143949
0.0640463628764083
0.0599737262711034
0.0627039497224972
0.0582834975146026
0.0594641998318263
0.062194045444864
0.0657954652243038
0.0564142926002755
0.0576816879892066
0.0597762064311499
0.0633527073929064
0.06148400224373
0.0637505042711568
0.060907034062566
0.0648819369693839
0.0650572925881977
0.0627988768060224
0.0564810101099521
0.0586224581336398
0.0550242112516239
0.0629192279719463
0.0570294116903389
0.0639782485236339
0.0617694947723567
0.0639523575760703
0.0543832459580833
0.0604385309528255
0.0582851061773983
0.0602334476000675
0.0680284939279149
0.0562099826050828
0.058952958923078
0.0624673874549111
0.0642977242682099
0.0608229450273466
0.0663859937809527
0.0632830129779822
0.0678528422233408
0.0609834911575237
0.0669321177212422
0.054150043969965
0.0645204688961461
0.0522350215828212
0.0727068586179518
0.0518816630342379
0.0722566438547691
0.0415640911712511
0.0726565505415379
0.0413769102936718
0.0822387398872365
0.0372754486222375
0.0783357704787902
0.0283983993054204
0.0817734383320153
0.0380784676946223
0.0791870677283689
0.0345125218525778
0.07936654398217
0.0403654853793559
0.0691277499736066
0.0476675426082167
0.0648048422729472
0.0528034193646877
0.06027680252575
0.060064244494453
0.0478950499609022
0.0645547895013933
0.0478617279959773
0.0663276351517894
0.0504640867903205
0.0610186110880337
0.0533476971939221
0.0579687282062312
0.0546527870115512
0.0533189532628622
0.054835430855002
0.0545470126935335
0.0550629419680227
0.0539814119699566
0.0545371497140652
0.056569709738542
0.053163766761539
0.0575717010015236
0.0536881322134797
0.0561097091593541
0.0546226620229556
0.0544956732415399
0.0541022996978086
0.0545156113181482
0.0548926650125086
0.0548410932134041
0.0518431089233159
0.0554682671869377
0.0532823735390123
0.0573344749350774
0.0558517011084133
0.0519765900256789
0.0548038678026799
0.0557943633626395
0.054014301024836
0.0563474351198362
0.0526390628077036
0.0554600739856083
0.0514512145549014
0.0574417690917582
0.0567905359486596
0.0558332880218373
0.0537747356968066
0.0582153762084632
0.0541944347594331
0.0546133619606038
0.0534238103492808
0.0549585927475715
0.0537963691118738
0.0543355060966572
0.05411117600391
0.0536243534779108
0.053647768095949
0.0542364186730204
0.0561865794526205
0.0551562643529895
0.0546465203176312
0.0580830119943439
0.0541030204312949
0.0554424089600303
0.0530105937666478
0.0549035460107545
0.0534137800479151
0.0560177601887191
0.0533634685124587
0.0550905144477679
0.0555909919852386
0.0570486004089164
0.0532678332974553
0.056151338658344
0.055927257920263
0.055642341269942
0.0534375915225625
0.056571735609216
0.0528396837529575
0.0540814178397167
0.0522821525053061
0.0559039512539055
0.0537200977903984
0.0582553053969098
0.052611302812931
0.0544770302635166
0.0541436038542183
0.0539190116761776
0.0546410184339687
0.0585532506779243
0.0551910855888361
0.058400746304774
0.0573577439956638
0.0570458709422346
0.0547219872690556
0.0571703791621094
0.0541252263162121
0.0574980537027938
0.0557119067450406
0.056557444433168
0.0527826479981173
0.0556938137134427
0.053661445080197
0.0556163737920639
0.0559221064265519
0.057404522467469
0.0563266535095311
0.0593496548500342
0.0543511524151997
0.0570063710427937
0.0542853876726142
0.0577439723779407
0.0592133341608616
0.0591522543905213
0.0571500438496952
0.0594667965577917
0.0550633101421716
0.0574068591816418
0.0565936637592186
0.0591622313383463
0.0547297078733276
0.0574272334099362
0.0566562830761031
0.0611677586206575
0.059983319809839
0.0575425730843777
0.0587891802535276
0.0592288087170198
0.0570139590805867
0.0587193179075835
0.0556759388148156
0.0590360718950563
0.0575727258204754
0.0591067089727679
0.0583733012905739
0.0598347430010757
0.0582353400192602
0.0592207661311649
0.0600848082307258
0.0590041115112421
0.0582655388361437
0.0603110777460806
0.0598671755001263
0.0598038886938985
0.058596119040829
0.0596051149222313
0.0582900314001923
0.0587401554466509
0.0581359300289604
0.0591542338838912
0.0569551876554207
0.0600506534537659
0.0593602137128525
0.0600672738101007
0.0578486088816886
0.0631267659378448
0.0619719711335805
0.0615110775070162
0.058838452438387
0.0617587836140542
0.0602906167448005
0.0637128327632066
0.0614348663758584
0.0614486245822386
0.0593953236847401
0.0612653382445605
0.0579524787813132
0.0632071734346856
0.0626971856095984
0.0613304326351104
0.0612930596115966
0.0625325432603313
0.06021680574216
0.0640943350423658
0.0625350747670452
0.0627452061931598
0.0610812185574098
0.0614198678495869
0.0595280126436296
0.0618822957587609
0.0618983911817348
0.0631525688699376
0.0618841099209373
0.0642363230589296
0.0615689530856965
0.0611221728192409
0.0609606690206856
0.0622560805976822
0.0584809972781739
0.060182008617045
0.0607101164976793
0.0608458555300282
0.058354282420366
0.0602087245594495
0.0617315340213001
0.0597741788380584
0.0590901452708227
0.0576297415480828
0.0559883177178307
0.0612275495056846
0.0570736709288214
0.0599548664659968
0.0575489065249414
0.0610388246738398
0.0579751282728244
0.0604005000992587
0.057655896153129
0.0602247938314542
0.0594926045641245
0.0588831012508844
0.0561057027009278
0.0599491920531033
0.0578446070321286
0.0593829567001769
0.0593553371151958
0.0610131438090558
0.0574267208144431
0.0575641881152494
0.0573209564505004
0.0604758872905163
0.0583280494938549
0.0587658337290862
0.0560429006978765
0.0575218255588751
0.0599114243027791
0.0597964999009569
0.0567732490329621
0.058292753204607
0.0544197449740431
0.0567197648732192
0.0565138241192223
0.0574011370472952
0.0580844526285327
0.0580905521139352
0.0575326000574058
0.0584937962387484
0.0565963713242467
0.057547750656497
0.0546056659690255
0.0580272673160473
0.0573075617907206
0.057100216218732
0.0562756156842655
0.0581284975855342
0.0559079203850095
0.0582299010065365
0.0555777987939883
0.0570722017929722
0.0554150909999229
0.0557715343606984
0.0549439413242345
0.0586147562129949
0.054273601265969
0.058252150973229
0.0564448591186202
0.0560041367740793
0.0552986495354369
0.0568656795314781
0.0554184069883405
0.0585968354650556
0.0561637221317957
0.0574998334355663
0.0551168842455832
0.057630304350262
0.0547371732885514
0.0577004949704676
0.0555093463313554
0.0540125787924474
0.0536045724244782
0.0570302165282351
0.055079688943821
0.0567283451811847
0.0533812464347279
0.0551990194054568
0.0545665647762435
0.057298634072151
0.0574582120621386
0.0559124618439251
0.0561414988046009
0.0578905641899114
0.0566944952689196
0.0560267603211181
0.0553861350115534
0.0566606864581833
0.0527201303935478
0.0527088310522026
0.0533251633446549
0.0531209667797527
0.0531785943532099
0.0579894593065432
0.0537754272190795
0.0562546793732719
0.0551999573693965
0.0530775740448582
0.0517722977795956
0.0528387362862617
0.0535565176475829
0.0545839231592822
0.0521386800107382
0.0538943976694617
0.0534603136465182
0.0540702093811863
0.0519984054796337
0.0537284188878092
0.052391402127475
0.0525598456988017
0.0530273764163019
0.0515907351468929
0.0518122703479949
0.0488332228310929
0.0526578855248527
0.0523796368394391
0.0495934250714303
0.0514575583248434
0.0488446887799804
0.0496931254975797
0.0493298540644098
0.0471344781932589
0.0478972325090852
0.0522898313827267
0.0501052657988264
0.0501361538514216
0.0469842306132817
0.0510502340586725
0.0460211667000745
0.0501939657902822
0.0497924452279675
0.0491107797408556
0.0482167729112558
0.050210459754991
0.0490411735554214
0.0511389490851868
0.0467173088292514
0.0492477887279535
0.0481205751428187
0.0482904558028108
0.046235624656555
0.049059848530755
0.0468214872173787
0.0477016084458455
0.0456583912346552
0.048599009746369
0.0465383888633332
0.049689691211342
0.045496101416602
0.044547032179642
0.0456749648974613
0.0496822816108781
0.0476809332771813
0.0456006532412286
0.0457328057866658
0.0452499152727213
0.0452699448888979
0.0466346258895151
0.0444459017621642
0.0464531253082848
0.0460302582499063
0.0476106806620446
0.0453051159872774
0.0459133454967835
0.0458251150903764
0.0470016958846863
0.0482648641579857
0.0443992164311585
0.0422542143191402
0.0472517354766044
0.0434467913682162
0.0421467338651945
0.0426028140266691
0.0466214129387021
0.0430706073029331
0.0427704243510455
0.0451082097772688
0.0428275639058263
0.0459554713829119
0.045770298230309
0.045230843307248
0.0441240357878185
0.0425520064757194
0.0429147908549987
0.0459340471287148
0.0443851798826981
0.0431985896227484
0.0439034651450926
0.0422303060042642
0.0447444086758443
0.0421175332552232
0.0422352915802189
0.0406173534240179
0.0438647018690632
0.0440640329428576
0.0431532716596566
0.0426757786993697
0.0434042312468712
0.0413772493727801
0.0422902230116319
0.0441113518905321
0.0413703013463846
0.0405884740716896
0.0419100507448416
0.0446234005394161
0.0453028220745725
0.0380781098219315
0.0442331045762261
0.0408640240689302
0.0426895689834185
0.0418781460397636
0.041714610840332
0.0401538151806907
0.0457426798246556
0.0403678033628941
0.042671462180008
0.0401597588928873
0.0447098694663653
0.0412819941598445
0.0404254041530702
0.0419196716061016
0.043723036332397
0.0385242665400961
0.0426349069942756
0.039924678241134
0.0435447454630135
0.042223051802839
0.0418501713253295
0.0399065798151415
0.0422634103318196
0.0377109239684909
0.0503731446512089
0.0390678882411237
0.0439832734055176
0.0402741034376137
0.0429131658700541
0.0390295907966137
0.0426764858526308
0.0387411483846252
0.0424852672372895
0.0419132469756743
0.0407547734321439
0.0412286927819635
0.0406260539513406
0.0424629662023348
0.0419945169694938
0.0385184900532302
0.0410762947444671
0.0383493834397692
0.0389636320052731
0.0388609628139498
0.0418175447501521
0.0389780938076401
0.0427233152739237
0.0386936619334756
0.0435657962193034
0.039818742895567
0.041072830550384
0.0390341947999676
0.0409710396798948
0.0418085060581482
0.0447705778199302
0.0442942832976068
0.0403074309745922
0.0412266770282019
0.0385869157745622
0.0412690237040932
0.0414129130091355
0.0401411656722342
0.0386889350276059
0.0392779054967652
0.0409346932865523
0.0405513613418889
0.0404277899869494
0.0387427075952378
0.0411616090506819
0.0406590953850958
0.0388516227298977
0.0408892601131516
0.0422804627289313
0.0367633538818699
0.0419797110032727
0.0359603710113077
0.0496422310541226
0.0411602280899138
0.0446022004728145
0.040228704356087
0.042338702406564
0.039927258837695
0.0404945102375684
0.04054614961789
0.0431710351333061
0.03919994070556
0.040188900273884
0.0408263953114551
0.0381095069649865
0.039579632164199
0.0386814397956536
0.0396567524798494
0.0395005589368568
0.0404319499037285
0.0395078976465616
0.0398896615141705
0.0376953191832901
0.0403402256583529
0.0387878486564625
0.0457486271898904
0.0357809713157298
0.0440557874808871
0.0338668311947665
0.0551974804733764
0.0431661110623354
0.0402098121774589
0.0450434560371244
0.0393613953100203
0.0420392213985428
0.0406550898985936
0.0442980713816551
0.0420418439337382
0.0411624265533175
0.0409780867421167
0.0446642194539121
0.0394757222598198
0.0400156927172709
0.0409710071590912
0.0467507897425341
0.0487281554868237
0.0421779939827767
0.042289632903278
0.0411131692568985
0.0462292765088438
0.0501779073803738
0.0385500285918336
0.0475490707608697
0.040922748752084
0.0441807258837407
0.0403590081159717
0.0441493751446253
0.0422825648888696
0.0445027495639314
0.0410122598372358
0.0429025468696508
0.0418777834574129
0.042608934943215
0.0416269007019141
0.0457116921782361
0.0465222568928262
0.0458232354583679
0.0409473309157528
0.0457407543375925
0.0417775385490192
0.0457113814217476
0.0433583174672643
0.0438719295126111
0.0453257336125501
0.0456011416474319
0.0462442925571583
0.0471952514903139
0.0467159314925223
0.0457152039213608
0.0421299524399006
0.0502142095895858
0.0429019252593915
0.0471449528209721
0.0358808192760838
0.0560355317000883
0.0529922407548986
0.0454533529454062
0.0505434039454702
0.0441030561265584
0.0510258222521657
0.0430309707414398
0.0492074677390508
0.0423240305171121
0.0574581100593215
0.0407038249448642
0.0510214526152277
0.0410659368889564
0.0528210525563461
0.0499827827454809
0.0511094039994087
0.0484455665839947
0.0509263421768394
0.0458597864407844
0.0546531183602277
0.0526107408104167
0.0509692294479683
0.0607492652665745
0.0501849063085835
0.0560305436914446
0.049941099918545
0.0501953497789575
0.0565437686466592
0.049151560254288
0.0548277177029879
0.0476285075470376
0.0523952089704774
0.0442360341896666
0.0551293415947488
0.0598278312433553
0.051268835522211
0.0554490392882804
0.0550012407460771
0.0549557395034768
0.061392888643805
0.0506740664911555
0.0587011506110317
0.0527162110401851
0.0574247275392952
0.0440922364773498
0.0735534719561722
0.0523594739046577
0.0679927985473394
0.0683648543954862
0.0640052912289866
0.0641214806215556
0.0611178903318022
0.0617395012260104
0.0677767935604651
0.0670593906014767
0.0640885129634052
0.0620044010834394
0.073862784657041
0.072713442623059
0.0657557943836505
0.0731050891219545
0.0598725245237087
0.0729344124947481
0.0904041820399696
0.0836695940463454
0.0738394658607324
0.0751537967291613
0.0786568693311753
0.0841901732034822
0.0748816058257277
0.0761260545094008
0.0761402662012618
0.077325224847936
0.0821524983368147
0.082107336878895
0.0841227933944967
0.080959624997987
0.0853135676136867
0.0793237467834102
0.0894181599264364
0.100837434449526
0.0950771011374812
0.0966193110528626
0.0835269177284421
0.108795065211131
0.0927244188784294
0.0999500596192054
0.0938287222266189
0.100020083815631
0.0996066009011809
0.0994718258142095
0.0998728071692293
0.100991085239121
0.110813851800087
0.107080288574478
0.113004051121229
0.114722527237717
0.10442277390407
0.118595924137568
0.112497275270113
0.155839473660628
0.113952333229405
0.136611234828755
0.111231243198978
0.161539631091886
0.152419074518676
0.145706777538883
0.14476971711139
0.154574282079424
0.155891272518303
0.16547253045379
0.163708479342029
0.176489696080344
0.175103279568758
0.182676742771216
0.161511375861834
0.216725897396465
0.20088484801787
0.213467032465113
0.208608286697622
0.214355045118711
0.220485456632333
0.230488810329237
0.227426205965043
0.239241502823636
0.229251498005179
0.261141904412333
0.267151091025431
0.251009450836635
0.268893463689937
0.268226857444953
0.292318918304532
0.273869797270195
0.31243373674071
0.287826700495478
0.305551279484324
0.303798120690828
0.311328493643565
0.314549604677579
0.324080489467202
0.338178760223806
0.331596175922465
0.338187913204753
0.339585054113804
0.34559243659132
0.347672892252983
0.349578575505003
0.356348681029534
0.346077969342613
0.370903796601263
0.38500943658394
0.390452071976306
0.358933257758567
0.373348262435747
0.363747133185508
0.365556629909751
0.374830222109675
0.37044144293104
0.383684483165899
0.365008458970187
0.370269117843915
0.374336599989999
0.365801835183293
0.372495513308767
0.365745484067744
0.376031107162393
0.371296970160822
0.379172860595601
0.366328571317805
0.407991077555305
0.370641657920355
0.371721035620677
0.374675928683669
0.36034156689612
0.368239773966813
0.367068668934364
0.370646863255825
0.377607566101261
0.362742277904255
0.349309414859514
0.355344180520526
0.355199735830786
0.364965590402187
0.348569873287942
0.34302959884075
0.345056610717144
0.329161009290409
0.344381249969176
0.34141613068549
0.356600825466189
0.341764398607956
0.323897940317752
0.331743245230714
0.328183847308614
0.330189603026748
0.320275184354386
0.322842485808845
0.316776445438127
0.318147792246502
0.313524824680593
0.320395695029982
0.311102261774138
0.318445119394498
0.312646007061475
0.323294224944624
0.313028443131122
0.320148239798692
0.310777776045325
0.310019737133227
0.311826945506113
0.311216202925449
0.306400807371845
0.306856430817106
0.311520256387654
0.312852120912296
0.306275494435611
0.31196226087537
0.306927215708343
0.309278114482574
0.307126489968775
0.309167080308559
0.305292837108925
0.305873114635268
0.303075763507535
0.304797651646487
0.303661075676914
0.30414814486157
0.300441923419929
0.306233135408947
0.301999742600859
0.295846794131649
0.306129500180626
0.301622549604121
0.314148353529163
0.296041964910116
0.298182834028801
0.295375173330067
0.288345791195204
0.291344580520394
0.288122869527073
0.296528637162612
0.283501238638152
0.289307470733886
0.278928714662442
0.279212783324987
0.276009623722045
0.278842099746484
0.269296969084963
0.273663249306329
0.254523883748808
0.311296110804399
0.280032594889888
0.301382943223152
0.27336406188328
0.259676496753385
0.264288358250876
0.273760340898308
0.26674071525818
0.250979090790646
0.264803316497031
0.248143285296643
0.264503947262564
0.251189354921464
0.250858226300729
0.250870360604677
0.249626388064793
0.255004085705657
0.248417697698844
0.241121136829664
0.255142308921811
0.24727213053816
0.236115827536572
0.262913426528205
0.246372727243063
0.235329440425332
0.229456660042012
0.228240067934765
0.229889875724724
0.231893420353421
0.239328577324609
0.224348590048512
0.221521466919902
0.213519807882178
0.215821640746007
0.221242163485382
0.216693401022988
0.216746278039875
0.212075221833849
0.216626612770516
0.197396801205556
0.222126916028028
0.198601774895592
0.227808849776827
0.204446772433095
0.20242013328258
0.203714119415259
0.218745927455755
0.205037897062524
0.197258038680691
0.193858963947957
0.192904870199718
0.191374075658859
0.192514391098611
0.182750154131424
0.192621709000149
0.186943731397078
0.185116981614753
0.208404116152666
0.198733234666977
0.186629230654633
0.18420865863924
0.177083512514313
0.186615401389136
0.177910162736411
0.183633859359781
0.166578278916447
0.190831258504968
0.180467183385558
0.185073353328186
0.194608853069834
0.186931413040171
0.187309971701813
0.192153752846536
0.190107037978004
0.200387106212078
0.202873866304037
0.201785268797384
0.19255450369564
0.205785546740261
0.207361507154288
0.208159477673168
0.208229878452117
0.212514702850433
0.215736867568062
0.220583435502385
0.228747459443281
0.232224591121826
0.233505624053007
0.240777546018694
0.243027108697253
0.257514207918234
0.261257810728135
0.253306743440416
0.283985400049449
0.270665622222125
0.289259477756918
0.279285288658233
0.284469711231879
0.293755982027414
0.29531514334791
0.302692200686629
0.302775126569491
0.312412047094581
0.320305924561027
0.314759084391626
0.322290313840598
0.318456290260016
0.331642815798891
0.327833703387812
0.347780653115357
0.331019551706457
0.356392652879212
0.345111654940824
0.344725586906866
0.348708366026599
0.344753379447682
0.351694063284368
0.344550085418867
0.354131578296698
0.351094635789873
0.362044765729271
0.360857194515234
0.360061498640789
0.368070064162641
0.365992263201418
0.36628578934619
0.37054827099852
0.371842096855157
0.379460522142989
0.379692654106431
0.3798249592203
0.385138652356086
0.396417797959924
0.40585652965407
0.389501279365864
0.401122247847674
0.394203067847955
0.402463675985396
0.402638130793608
0.406384195618314
0.410576393152217
0.410750836308387
0.412359288692441
0.422980763916167
0.416696872443229
0.429466222711322
0.422242192424952
0.435638383526055
0.425931003753785
0.438369033021341
0.432935812539489
0.462228160679303
0.445189239033296
0.442648576035717
0.452038652056471
0.447308891002535
0.449602977476534
0.44525213455181
0.451453205859601
0.4539669497664
0.450754385384159
0.451438397615164
0.456231136718595
0.450543473338133
0.452518985198614
0.457335800424197
0.45690165896949
0.459539660882002
0.448828606742027
0.450155725829339
0.447791918100147
0.452194568870304
0.454997183623594
0.460627621177017
0.447930321321082
0.454274012152528
0.452478726929579
0.456429327692542
0.456954072266892
0.450618203684739
0.447987870212314
0.452142274666475
0.446160965613115
0.453073348111733
0.447722260859411
0.45693290923895
0.46700851614666
0.456411619298653
0.460989533246171
0.461190120290173
0.468328423683553
0.465787557392387
0.467110191100658
0.468472957684416
0.470584785597447
0.476312869971722
0.471967188794062
0.469001077879632
0.474960678477621
0.475579026077824
0.476104448246833
0.475339930519219
0.467065505690115
0.464927460370038
0.46243748125744
0.468575643346525
0.463327361373215
0.453872611235777
0.451147056575257
0.447293336466789
0.452579890309372
0.444889945946638
0.445238317082191
0.431003702693073
0.437894912170702
0.425285684042243
0.423505885661422
0.421702279332397
0.421362284636339
0.416499945597408
0.419183552319516
0.411617858902486
0.410904712015028
0.411941117861939
0.407864511671805
0.404359597430103
0.406610079923322
0.406116607138217
0.405262061949467
0.399550151909584
0.404986140172409
0.401383289218405
0.401964426230625
0.394368260139026
0.403254649449059
0.40100932990167
0.401413040094359
0.399702256720836
0.404152506973159
0.397144379283795
0.399994085144551
0.398567023312546
0.397513414376078
0.395128744876563
0.395417842382241
0.397647759955799
0.396137707720404
0.395541657394896
0.39755052899407
0.395592035520297
0.393631732095728
0.39914183271828
0.392159730994356
0.393794864498365
0.396635356342526
0.397003347732139
0.39217707124662
0.392471526730103
0.390790823023405
0.395129667419327
0.394997768138259
0.398399502628314
0.389787706926523
0.395672882752886
0.394287791487503
0.391444107484816
0.392495650059653
0.396310084145934
0.396687159934488
0.395352573993133
0.394503628371436
0.390747916099927
0.393796404666072
0.390886813906914
0.389509730220671
0.38700160088979
0.385723070894001
0.383396864072698
0.382716993216205
0.375866062009844
0.373863955500086
0.370475253261308
0.367925376276665
0.363582924698476
0.361093861894182
0.358369833738497
0.357560345572683
0.351850291375897
0.347998993401342
0.350202967650135
0.347444709605819
0.345988845862052
0.345490657871226
0.342703617601486
0.340491530913049
0.340124647112559
0.338770598372307
0.338068231490444
0.337294448764682
0.337314456058948
0.339269722987399
0.336368752154549
0.340534632406612
0.340474653537788
0.339559840054635
0.342190680824718
0.341044741078854
0.340143845999053
0.346688748503606
0.344533694636744
0.344083490512917
0.345774670648069
0.351119610107193
0.350713950379739
0.351322194185835
0.352633851920995
0.352645543490919
0.357902105364695
0.361129659772786
0.359899065174828
0.359583329579527
0.360862153702655
0.360937034448135
0.357371404507966
0.361803967459915
0.359381640242163
0.359886946988366
0.363319243119384
0.359277333389445
0.358678326737612
0.358105770122179
0.356947787641283
0.354233587020487
0.354820419265381
0.353708323975953
0.351720504408551
0.351567208023067
0.351694413911167
0.351148064126665
0.349085558141806
0.346713095141738
0.345849811267683
0.345717600865544
0.34489533515249
0.342851546600279
0.340955239491073
0.339842847651162
0.341909929870956
0.335985679036284
0.338995222144672
0.334577288003857
0.335186672781509
0.333520757930956
0.332885706799724
0.328699230574023
0.330359808671865
0.32689229933595
0.326470579443391
0.329267784776466
0.32758267384572
0.325570648762921
0.323766187153219
0.320871120234639
0.321954981332631
0.319034217229761
0.318096383202468
0.314673984198839
0.314411679237906
0.314398345679537
0.311254966902639
0.307249890575044
0.305389731964508
0.301010742124418
0.298756312544432
0.297767952082282
0.294567799258906
0.294253309723238
0.294383927137986
0.292200099105792
0.288933665377932
0.288541625384385
0.286987953330903
0.286946403413653
0.285643810712572
0.285077559507752
0.285361215500593
0.283025461286502
0.283139088191668
0.28372092201359
0.277572455568635
0.278641530470769
0.275502377856986
0.273748085046268
0.270645854109941
0.265005313037494
0.26391964834553
0.25988669826931
0.254122550971451
0.251007338629472
0.252356008418468
0.249994764070589
0.250127521524757
0.252585641890274
0.253588311638458
0.255945577105972
0.262185783358129
0.267538863078258
0.27321372514444
0.281853173583174
0.28896322688562
0.304030472618536
0.316905608344021
0.328517340414165
0.338811330259586
0.350264637723373
0.363112422864941
0.37820454018223
0.392783476292514
0.40436275864042
0.418278616202163
0.434755174270406
0.444220777754658
0.457999833586083
0.468246487406407
0.480993958093974
0.493066061129624
0.503114507778584
0.515313572515032
0.527096469753319
0.533813174513879
0.544347511653104
0.548955628031017
0.561284776487331
0.56570626696365
0.57518137762453
0.576605362612709
0.586999386053456
0.585737506170251
0.588112153854468
0.595585243135592
0.596971096662058
0.596547106978796
0.597011468836233
0.598705499832865
0.596951713133984
0.600950750729272
0.599847468164926
0.603994540371296
0.601356411909049
0.604685790489249
0.605416765589554
0.607287377870019
0.616323345918733
0.618078252002543
0.623868070505219
0.624188074804052
0.633534145430739
0.630060014123469
0.63841921490071
0.647388420596791
0.646566977623129
0.65879593110955
0.66438763762905
0.666017191154464
0.673801635482702
0.681418232662374
0.696151956233585
0.708742518316103
0.721116843725713
0.725146154161068
0.72874792649578
0.748328440144662
0.750748490934979
0.758739389949967
0.766688977204847
0.76494690625825
0.771120410602093
0.78046011493849
0.780724693385761
0.772483764026954
0.772886595999405
0.774047833512504
0.767622308190841
0.757424725632685
0.767236859455069
0.764087204169498
0.763337011424668
0.764285643364924
0.768885460391695
0.773492437226162
0.788175307511895
0.799055759585236
0.802965195952692
0.814252490025787
0.827776334806121
0.841340041716392
0.863757660659075
0.867940599503376
0.880023291461268
0.88779626971419
0.905144205630272
0.923707145014012
0.926095412990922
0.95015092768021
0.972219764011823
0.978080971578697
0.989418234579127
1.00362348166714
1.02584266529416
1.02660378081836
1.06195043745101
1.07158337064389
1.1002018065512
1.12833520446416
1.13932470483629
1.16440426442245
1.17012109082832
1.20223426348462
1.21163272598215
1.22981862165541
1.25100302421443
1.26801706720096
1.27984693106646
1.30267860335976
1.29212358647788
1.30690014548875
1.32303386032377
1.31931893851406
1.31575221334648
1.32302931524158
1.3199017719965
1.28608869582947
1.34242686926047
1.30581177187228
1.32555844698362
1.30266397399278
1.32405903601061
1.33186871105728
1.31358413941127
1.34087434892283
1.31415222270141
1.31579867045435
1.31940636422712
1.31135590922296
1.33083370848311
1.34726564435582
1.32530028102275
1.38311046141436
1.39998257092687
1.40526386105318
1.42846426275978
1.42916036773091
1.45076169039727
1.44459155321589
1.49953341474199
1.45306934472649
1.4718345996192
1.49133505316747
1.55035342484778
1.55495004110658
1.50393986878927
1.48751833577579
1.5432354239011
1.59461657387204
1.6106204724795
1.58786541810935
1.57057421050056
1.53215572663265
1.59866850173507
1.5635504313669
1.63115004340049
1.60768828904164
1.60601011411729
1.58792075678651
1.72140496604482
1.58797574547613
1.60114424637887
1.60098624388182
1.59643541201634
1.55461238089403
1.57374440288153
1.5989370929725
1.62681450797011
1.5875401494859
1.54989982933678
1.47481486869091
1.44902585829417
1.4715243890533
1.47503732017448
1.39369084370971
1.32232924295544
1.26385799470651
1.23337649800671
1.13857887660805
1.1130084183206
1.09369065298961
1.04124070029469
1.01414353461143
1.01269041051823
0.992785759206778
0.977017515657789
0.943006762905053
0.951300001938326
0.943025426665421
0.941189306877992
0.913094870872399
0.923362788923582
0.901990661113819
0.902340379880049
0.886958223057585
0.884042343147145
0.850154448847929
0.849157467293302
0.817698480659585
0.814356165192117
0.795104339040754
0.778229660745475
0.753297137929875
0.737109742656182
0.699166070828476
0.685492616388242
0.660210562706187
0.632582489556064
0.604060487559334
0.570711003681479
0.553686068213696
0.526170592799764
0.496067488320188
0.470117187400066
0.451043551275943
0.42857160504991
0.409280781603519
0.387977913239088
0.372568362561405
0.354429605294786
0.34284133287128
0.332357211513055
0.320693616995568
0.313731067198678
0.305248872080571
0.293364855035887
0.285108316404306
0.281080640264927
0.277584055522465
0.276547305402655
0.267890211003555
0.272642352497864
0.264230198821787
0.267070776524966
0.267070538169213
0.262399077869253
0.270043967867679
0.27124541220586
0.269205986820201
0.275800042906842
0.275629339036181
0.272490698841215
0.276107472505148
0.276174706135355
0.277031062397937
0.273153162468626
0.274958277804371
0.270534257693952
0.265745686412766
0.266826754064453
0.264301189235179
0.262509598421575
0.260819518258204
0.258912649413588
0.256085671070071
0.257387004142564
0.254626982858732
0.257500563986014
0.258080282209904
0.251861260125218
0.257054643497805
0.263624480226817
0.261528456816051
0.263616350583306
0.265378257205348
0.26350649049952
0.270918978689289
0.271041656307064
0.269663740207746
0.28170180465154
0.278034559028901
0.278929568896958
0.283145340817987
0.282855324615818
0.284302058216404
0.293234052189553
0.289734280880102
0.294534439908534
0.284104239095394
0.288953531880572
0.292584618464195
0.294923943586524
0.294704330792017
0.296091504020454
0.299928801165859
0.301349748692372
0.309662004893902
0.313626957801789
0.315689275194562
0.317250839681109
0.323595882653525
0.336050022742461
0.344110198653232
0.3510247116458
0.366136210998911
0.380517000028083
0.385846489118541
0.404206520775763
0.404730865128817
0.40814422942297
0.413095958213519
0.419285438499116
0.414201297851012
0.41063923222997
0.401242435623651
0.390157620120851
0.385360055125049
0.372134384875624
0.37048306423668
0.363665708414005
0.354563489612265
0.36300946155392
0.355699382438111
0.35672566187718
0.362581163475803
0.36053723309625
0.358793747251486
0.363519819212752
0.359026459453331
0.356576738000807
0.360325542303998
0.35940295314892
0.349507959021595
0.348012667580172
0.344868238671383
0.341507229059666
0.34291586771635
0.338864584382767
0.336755743440386
0.323111291048291
0.320051989695857
0.319836823798644
0.317865055800211
0.320653602835194
0.311272832610655
0.310670443751925
0.301635833793064
0.306156790402344
0.306274032525624
0.301002474257744
0.29444505758469
0.307145524243237
0.298414912088707
0.297344577718584
0.300577470026634
0.292974049598418
0.294305563129617
0.292569654251062
0.288464979121542
0.282986632112848
0.289673740316674
0.288581791546474
0.283720080689672
0.281051301241809
0.276725064689643
0.286241322319376
0.27919705017529
0.277942662037209
0.268426012407422
0.279748299396909
0.270429551765406
0.266219217279993
0.26802046570212
0.273354442311065
0.260106108169569
0.27387467605882
0.266703204787114
0.270308913565284
0.265315563437728
0.266251948227775
0.270888363525661
0.256843183967394
0.265587158677078
0.275716709016085
0.271347708699609
0.262240925617009
0.26361946051725
0.255461627556666
0.27098450650894
0.26716293974088
0.275645115750595
0.267110687575203
0.273163760507909
0.280594220628728
0.285198359992934
0.27519640048112
0.285705562935631
0.286680224724048
0.294535479252874
0.284211520767271
0.297875025830682
0.295450051363736
0.290951834704076
0.309557736935209
0.304632636833671
0.312312329219706
0.309286657834957
0.320619558358472
0.320538876491717
0.317791730573107
0.324340613233636
0.356262384075874
0.355193852132837
0.36530222141568
0.388751631303045
0.391933501676341
0.402468906477898
0.398496960819229
0.413027049310191
0.414321683015619
0.416612789266519
0.441610519810174
0.459393648849972
0.475956754533249
0.460091687234107
0.477842692323448
0.477331779981159
0.514524821670261
0.539331963315079
0.514484723842095
0.513943715278226
0.512365310764674
0.488724058404988
0.500325685345813
0.468879571504487
0.488557298429112
0.488231675129158
0.47877350940598
0.499120282229949
0.49326739107696
0.484246538220441
0.490758192447182
0.472879637974814
0.461059722542302
0.460495325488298
0.474998577845066
0.464418256308238
0.451986966382348
0.451946353559852
0.428680111968198
0.467478185065747
0.444270283170855
0.412278096233488
0.44492339277387
0.446424398346091
0.425825007046008
0.412135259072315
0.416920892291663
0.403653305250797
0.427116818384945
0.406929830240779
0.432138065417232
0.42174128565096
0.441704594863179
0.414130375346769
0.423446351296986
0.43329043137353
0.424051580977287
0.418536477627833
0.469423249389976
0.435299675186752
0.450035483402909
0.396987838423013
0.440770798037031
0.455788991064982
0.464827032832162
0.425646638359711
0.452939818305778
0.412198511018124
0.455980071365551
0.445530655827346
0.401305577923031
0.439454916369294
0.440259238919717
0.493814252299544
0.447121512413554
0.454267043870741
0.438611026550973
0.464167816120009
0.444006238210683
0.446157784521354
0.473969615041121
0.464838230261588
0.510182149646262
0.455579765269445
0.536171572254915
0.47711962896024
0.505547083933906
0.513616807007863
0.508500635487839
0.520590826263435
0.545881827706385
0.518796023862382
0.543812296836904
0.453537056115544
0.578277292315176
0.537040237608349
0.563017830535538
0.585377533573899
0.652619734573399
0.576003464672556
0.63979249972153
0.55571395099944
0.740665869186138
0.569024851875436
0.697420644398993
0.61252391984642
0.711805202369791
0.602555303438899
0.611532239063985
0.614990795874664
0.656030584102511
0.5425606905498
0.657454197068393
0.538151003201066
0.567941802063473
0.515066868107497
0.58241432723126
0.550474579896084
0.56328481231276
0.499862868137649
0.542590744062809
0.485091121524977
0.515198219677357
0.605547084521089
0.644302322004766
0.659190336100286
0.685000143715872
0.479599183058295
0.475954377950175
0.498002959071439
0.654486643039653
0.616302834818303
0.72034661649046
0.577542998957382
0.664606137460198
0.550050889209944
0.799691420771237
0.539914167706105
0.551409444308318
0.507768247402253
0.853125658829207
0.319388794149216
0.833804916121296
0.473777358121896
0.791637880471411
0.435575069392486
0.793736979237588
0.501594443925674
0.626629972301895
0.589647489725261
1.31730697981186
0.729111797398048
0.807242843757324
0.442085557511794
1.15183081998219
0.427691547888395
0.768533371288595
0.387863027130695
0.581438778529252
0.431828954339381
1.8922523375178
