3596
4000.36533379555
650.420452594757
1
2
2
0.0540312872780685
0.0724846044956177
0.0515122800487329
0.0698179261370984
0.0544673916979986
0.0624380732895774
0.0461375214314493
0.0768788706848353
0.0495254145650172
0.0668252284296018
0.0465629152264114
0.069863962650016
0.0515697754855707
0.0700477129459618
0.0459442268024223
0.0624183441389828
0.0527752673529006
0.072057191979431
0.0393980010490095
0.0665831621402074
0.047162324960801
0.0685728784326644
0.0490659517374878
0.0637289261935512
0.0504262014128906
0.0700216514617455
0.0497187813185557
0.0638788466777332
0.0476192758389573
0.0722233064577655
0.0493245774739243
0.0767777627594388
0.0557527650420987
0.0692924592319795
0.0499288037142195
0.0739215031705185
0.0525332986622493
0.0682651652677329
0.0496013801365089
0.0624792442220947
0.0454907635030997
0.0701939504540959
0.0629816702292591
0.0649231493469119
0.0429492093700965
0.0595458637143924
0.0512598639843995
0.0659357420933352
0.0556683627496285
0.0622315585742033
0.048352602467665
0.0595147677660233
0.0520069285385719
0.0772452795321953
0.0531213196853066
0.0678609897206001
0.0484385795551792
0.06484659034712
0.0494641314453145
0.0634309613102902
0.0532710873919009
0.0652525678041292
0.0518693560887935
0.0778609053986518
0.0481470822332839
0.0660790998994005
0.0468947863389363
0.0689729628646564
0.0443064725666251
0.0695490607682614
0.0392164700755236
0.063328793925061
0.054072870940999
0.0681541507636479
0.0469231384820928
0.06748318941642
0.0432846092261036
0.061412155080102
0.0442580213680044
0.0726420527636198
0.0480548911354052
0.0609327950859251
0.0473609320053298
0.0651995704332683
0.0390145323138624
0.07780820334118
0.0381625154862298
0.0694663483366939
0.0538090880946035
0.0615241862132506
0.0427833958289877
0.0625021071070895
0.044168915963974
0.0637565225016581
0.0467344253746231
0.062524136635957
0.0463280927349772
0.0690270986382249
0.041243117821109
0.0589736797214732
0.0476946318723148
0.0575432837778576
0.0795378441731834
0.0318196407183357
0.0671758423500072
0.0660841162815939
0.0319660316196913
0.0865461569680503
0.0380520759093962
0.0774000876843519
0.0440826264713339
0.0717738382866561
0.0348745084350076
0.071539493170803
0.0273061178301682
0.0737832538849516
0.0596317065113628
0.0636275629239954
0.0390933537095909
0.0587693576821808
0.0292675110486946
0.0647153778905565
0.0686128662709479
0.0584390178238865
0.0502194980813676
0.0606068407643887
0.0268500866293888
0.0746774249144602
0.0671537805882741
0.0583471258922676
0.0504034919663071
0.058802004089834
0.0340642768592777
0.0431251346037891
0.0626788017704711
0.0615472198110996
0.0517501917449187
0.0460899464175542
0.0380372399340838
0.083844315592772
0.0491258877004081
0.0581987158020891
0.0244393201369004
0.0608110807677707
0.0602089699864499
0.0642248073487471
0.037761372246511
0.0691630014917998
0.0501128404283427
0.0624937741370266
0.0446588292491152
0.0519207539604287
0.0466168042156137
0.0621003662588835
-0.00727605906925491
0.0861276876116958
0.0775142533084562
0.0472600255548098
0.100718735554221
0.0471527898656717
0.0575736040581298
0.0433272950929868
0.0488823269181387
0.0544136969737178
0.0514461132284
0.0490510091914343
0.0411207381266263
0.0683085235442584
0.0445412763196416
0.060200246947681
0.0525392573908981
0.055289991008341
0.0154451431658385
0.104939786566112
0.0521164828890448
0.0557741803740099
0.0621794945557231
0.0615951066189786
0.038688391615253
0.0517855832547624
0.0636519986880563
0.0581131721538901
0.0623370887881385
0.0563767262904474
0.0487061504034388
0.0618463146112009
0.0510873375580311
0.0627807683766088
0.0518451807198822
0.0339893023174537
0.0378190888538081
0.0738230865276053
0.0670330787557103
0.0505731135503429
0.0595326464462172
0.0267881337056124
0.067360358244041
0.0692670711108296
0.0396149451248246
0.0629704038836123
0.0429837303842232
0.062075286468475
0.0499405054864416
0.0592162436314864
0.0484069458481892
0.032394596025765
0.0762877565564347
0.0657910791489433
0.0495216249429866
0.0514213233117224
0.0482475103261034
0.0380004171034529
0.0771156366993551
0.0778030861932626
0.0524028728557331
0.0559587212374029
0.0497026092920498
0.065340320996231
0.0513106843384033
0.0684669166115308
0.0464088227661822
0.0605469011999823
0.0473715112369204
0.0653454077003914
0.0464344023575026
0.0645408317102384
0.0492823905838781
0.0580546919613803
0.0484280612515119
0.0609147366908034
0.0543630756310692
0.0689604527774487
0.0508273245321441
0.0652036498167137
0.0443415483190883
0.0681429397915224
0.0608297877902052
0.0601973342306298
0.0533717093555563
0.0561420935842562
0.050610066240675
0.0568690973684919
0.0559023879427675
0.0610250906374379
0.0554221330703187
0.0480743872685178
0.0779834931471266
0.0541019906778827
0.0588827083144468
0.045710494700889
0.0614715924919095
0.0707230173639116
0.0509094023781443
0.0653889900067809
0.0519127261791292
0.0611689363119644
0.0466422229075262
0.0770848141457475
0.059458625633946
0.0532168080205081
0.0603394926916067
0.0788195236860277
0.0529097858544087
0.0638637725458737
0.0148657039552229
0.114896522134081
0.0529008622249203
0.0396094459711772
0.0904764567363948
0.068134066347263
0.0470710060108887
0.0677441554577453
-0.00201871207173264
0.133963208206386
0.0813066410853851
0.0679520268224135
0.0461863669843327
0.0772085704193445
0.052546772392378
0.0733186566965725
0.0467137749322401
0.0668112011734957
0.0717213659019953
0.0444858543861467
0.082350820895005
0.0423184353697196
0.0687923461005128
0.0775598463276786
0.0611325530083508
0.0743028876862896
0.0650267343446418
0.0598055263637817
0.0542160181655313
0.0738330791954288
0.0628848052048115
0.0824293966103958
0.0486533217265405
0.0890390954820946
0.0669836504283697
0.0727655065131854
0.0474532323035508
0.0845865508796477
0.058845787770151
0.0777618011939059
0.0559492058212547
0.0843377134626195
0.0633738782347796
0.0684463591537452
0.0929516071343987
0.0822123969568725
0.0505206803163565
0.0935659165817293
0.0579428524719495
0.0815160571400154
0.0600479210795915
0.0875553011576107
0.0671660367339751
0.0793886519154008
0.0532069998099301
0.0978689858845376
0.0717078552298275
0.0836551436638446
0.0642394623132068
0.0813208660722131
0.0720104726734074
0.0847479564105891
0.0664350523238992
0.0803169519340546
0.0734746635598478
0.0777832470142748
0.0657493149005713
0.112445526796914
0.0454774149485555
0.102607012106891
0.102964469828362
0.0860072513388997
0.0813669042095262
0.0937390603852199
0.0963420954010912
0.0812417781760943
0.0870661303802391
0.0901606326737492
0.0934646966783975
0.105364404205965
0.0899196682102179
0.0966574176200805
0.0765317056641717
0.117330149806192
0.121345301109643
0.109996739767153
0.106914157564699
0.08527130358052
0.108388988732117
0.130407110705063
0.0993357759621485
0.146310785041841
0.0959730311129435
0.132768200187162
0.102107343097905
0.13575814961428
0.112446555690192
0.136141960818902
0.10711009001747
0.130833068772529
0.118772258963489
0.141129381052045
0.120615182128213
0.129591300255141
0.146194548194627
0.152269955731007
0.126037790498298
0.158722514531544
0.12648414974175
0.167297968763415
0.128963582282639
0.176190925248402
0.165118431314042
0.158326381172023
0.18251005786276
0.168527526626019
0.168470806767428
0.158001289902109
0.170377544718721
0.181020903769109
0.179700901569165
0.192331495445065
0.175856237182505
0.19022546628543
0.18717382935733
0.189305658753078
0.193202468682735
0.202830676082267
0.213923632434553
0.203890094143374
0.210014290795201
0.207151844942286
0.207836857918726
0.250341846370317
0.240876204255667
0.228128336724279
0.217271295227952
0.243260349479266
0.213703286639338
0.249740143010391
0.230229594602818
0.25513713388073
0.214491186198734
0.281202292771499
0.257079557236897
0.259412712934406
0.270432486078275
0.258705412608982
0.261372939432494
0.284832609739146
0.274096374801086
0.299232629038291
0.263312239999684
0.279718588242266
0.290631733026909
0.301796331613103
0.285965510582367
0.330285699082242
0.289186391692982
0.318501244859623
0.287710785374744
0.328911454931731
0.296571377009304
0.333800415612939
0.317257958569952
0.342553535521304
0.313364652892116
0.354569570020426
0.328007725088034
0.366115858167335
0.346606801725779
0.362897458850431
0.374353701813671
0.357815814296737
0.356826196469896
0.359742879167094
0.389694473095784
0.402591034148992
0.372577367936813
0.427919881889837
0.355791455978781
0.416186743885583
0.385094876400413
0.405185650131959
0.401546750052517
0.42015386521437
0.409669705315667
0.428544425129115
0.402440511880982
0.447941217666265
0.44595870007093
0.456696799715607
0.432345387764873
0.460678842361528
0.441764239018475
0.479444155769799
0.451614483194816
0.466229436028447
0.454493133578217
0.516012394279107
0.471470460584386
0.527803639402715
0.469418931275525
0.513666091321603
0.478827922312188
0.508446096838975
0.485211779567093
0.551247172982224
0.51770188690011
0.53457942778285
0.511182335891629
0.551892356487248
0.503094057001169
0.561085065226488
0.534613846041697
0.573796483321158
0.551784823804511
0.574613255441782
0.527203486476879
0.579946171716862
0.561747723394021
0.617319758921703
0.553009571796459
0.580351938060471
0.574803247392501
0.616256655355689
0.595916022603536
0.659288234811726
0.574821893313459
0.628135918721819
0.601867886240202
0.605483745580599
0.601653069682161
0.650896525540271
0.623555147697855
0.680684311539013
0.643884140974936
0.677184809269594
0.650435500282213
0.690164965376108
0.678788265041705
0.701572342289397
0.623612518320134
0.697741911173359
0.681829497540047
0.730572681114099
0.712554598976603
0.760139401155872
0.682390896052735
0.728701738619003
0.695116238106077
0.78012272911778
0.727763864312172
0.760648560897246
0.686448316243828
0.817342951649371
0.722204378502598
0.759568012801984
0.729761507605676
0.781885504509341
0.74971184478564
0.801198878460675
0.717721856227586
0.794307614582483
0.747598524065277
0.846346983331587
0.794695874205428
0.781960079699944
0.778077776785097
0.844982516350125
0.798681240350743
0.836837526590627
0.769295806693105
0.871398366202989
0.844242968894954
0.893774123824522
0.845236135030034
0.881860290684487
0.79602043012667
0.907574778087341
0.858587255866176
0.918521116546852
0.869245438921351
0.945045063668824
0.863687896461054
0.925945321597492
0.863993194207034
0.979375661962846
0.875049664540652
0.954724916259392
0.919571241234161
0.962575262695548
0.912751876275709
0.938174554527669
0.960876096107745
1.02354587305497
0.906332409575772
0.993541786399057
0.973937004031958
0.991925083841029
0.915106561362634
1.00370199246271
0.910033249430052
0.974808803035334
0.920214215408856
1.04810842227953
0.931742558641051
1.03214265057815
0.976585025513226
0.979970401696282
1.00644091552869
1.05506185690919
0.947866567234539
1.0431221735132
0.978327562421603
1.08479027240849
0.984507938369713
1.152359532915
1.00950749549974
1.14436212202609
1.01685226304989
1.12705703351363
1.05134171407655
1.13623429064676
1.04368780037784
1.07277460824994
1.14183918218648
1.12951312093162
1.07250900308832
1.1498239978267
1.07638863363125
1.10803183403466
0.965198138373356
1.16967048780597
1.13132378321286
1.19615417983816
1.10180125058043
1.19958035795232
1.09986536168174
1.12938033202111
1.14217641012807
1.20985929221438
1.12919656645082
1.16695120005995
1.14766726065269
1.26466442351887
1.20059468239599
1.22097497949379
1.21351005875373
1.22689921006645
1.14667071081758
1.3362483269796
1.22410357077802
1.34094035693376
1.19693813982668
1.26045497730306
1.11299763075951
1.27852248348398
1.18883620629379
1.33636720864844
1.29841234539554
1.34611644607453
1.27458022731802
1.32769060041405
1.23198122915621
1.27871776008545
1.173488047659
1.32822838845064
1.22827636435778
1.32064212983151
1.26525347230755
1.35096512725744
1.26565178585402
1.37077337652786
1.24836975014214
1.32638731499131
1.25388508183321
1.31285243850063
1.25732037944728
1.39349428200727
1.23693769855183
1.37332440723451
1.20806075331015
1.36828240348134
1.2882879695861
1.52013266808449
1.32243169495036
1.40950165533135
1.28631053898484
1.4905975640568
1.44909515742678
1.44890554661165
1.31282713785686
1.44889507159514
1.39917243615204
1.41638603834071
1.31827794199308
1.46669407067784
1.23969755654598
1.38285927404185
1.38648079341403
1.46110641885951
1.34538612023666
1.44945278907829
1.39175577726877
1.42335372813388
1.5279330648019
1.57403564889561
1.27388676756423
1.47768771791491
1.3191814756761
1.36780325792739
1.36917254983742
1.59509588382752
1.27324028174863
1.59460864824506
1.42808311992427
1.44532308146479
1.38581721863225
1.4154856580735
1.38420111672723
1.38074339497043
1.28211676992947
1.43700084734944
1.33529893302716
1.39325118421226
1.45726286958434
1.66029851667955
1.40151745987951
1.60992487018662
1.53865581605456
1.47748323538391
1.33501674175465
1.50760338100876
1.43066639977735
1.53789797494442
1.28753685120316
1.43392655632728
1.45739694951686
1.49446670135442
1.42074831396626
1.5020384782274
1.38931018572332
1.51430705548477
1.37334172467412
1.69085840903685
1.45935359191423
1.59483583430121
1.46642852858996
1.54765335433394
1.44796249852184
1.48449425374508
1.41068572090954
1.41787189949835
1.35049491734565
1.47364728785228
1.65709365785124
1.59424932934971
1.39975505401799
1.55469350117853
1.49897905582001
1.473036341373
1.42196925999541
1.4018517768288
1.48381177402117
1.39669372579694
1.52723206405115
1.62128955169966
1.44327511944161
1.51075945113755
1.42521279441084
1.55579094093467
1.52626497193578
1.57560562360181
1.37605034376697
1.43895264423601
1.45744896391735
1.61922124696505
1.52667025443942
1.5569440556872
1.56818700012634
1.52785382901204
1.4867642377888
1.46538734476549
1.44792249550276
1.6571013939239
1.37832573949111
1.53704986484479
1.46097900982824
1.50030459066157
1.4940310353784
1.64081585970646
1.56865886816126
1.5333968872324
1.52145464449414
1.41892842626317
1.35700889062031
1.80355055944869
1.47017710822584
1.54463345569841
1.61562798500246
1.52674037328966
1.39183115652687
1.49950349388343
1.42666769326542
1.69144243361184
1.47872838484474
1.43041407014065
1.58006738235855
1.50762898168761
1.44865525827388
1.46320861703418
1.45361587109505
1.47996537409926
1.49362255644377
1.52196509333836
1.49594749777076
1.54630923365048
1.38190747850624
1.42096392279197
1.44563760870399
1.55557876777769
1.48948499594441
1.55508422645224
1.50282669689187
1.69616806096386
1.36473262241939
1.53767966533449
1.64571469463651
1.47342777403576
1.38416544628347
1.51483888948857
1.49936411539288
1.43745764578583
1.3654346212777
1.5253692429574
1.51817889070963
1.42757442073215
1.45735819007289
1.48560998307122
1.40329165319477
1.58159891651813
1.45305169192311
1.55327047534579
1.52086462852453
1.52377299480495
1.61356213754047
1.55510816220443
1.39331261879323
1.40779409883579
1.46848086394401
1.49897547890012
1.35454660142376
1.52222785025189
1.38326102656092
1.43463424725399
1.39979483090514
1.47789718602058
1.39720080897788
1.44770434259519
1.42875313188523
1.42087093074088
1.36163477673035
1.38796747987834
1.38386090321823
1.44828344514362
1.33326830962303
1.46218309936252
1.45476420018907
1.39670546619573
1.34009476891481
1.37926722202689
1.37151379136419
1.4579159709401
1.36096744145007
1.43543912571475
1.27492404829612
1.3389947700036
1.35473171042524
1.41316475013868
1.45239871577148
1.37935455771459
1.27493141300176
1.40862886558228
1.30408084973686
1.38802496007147
1.32318998969737
1.32558364130027
1.30675318610929
1.40463446513964
1.26320549573678
1.32029784117736
1.29575373518541
1.33226411439169
1.35552498451146
1.37727397833706
1.30901045997483
1.32838289708358
1.3436419851929
1.40085030004282
1.28614146357054
1.28633735558825
1.21363082533672
1.29449299639586
1.27506099506604
1.31625569497078
1.3006312184766
1.28950315807014
1.28932345349353
1.23634761369702
1.21877978284262
1.29221813049419
1.22373986118713
1.22774414351546
1.18106671664663
1.23732535352455
1.23233865561747
1.24387183996537
1.18349422138447
1.23130567552679
1.18623657529577
1.20615369547185
1.1854792500837
1.19710131468334
1.17625130503145
1.17775021979506
1.17608669221004
1.2131670276761
1.15973874440348
1.13922341849574
1.15761509873186
1.18060600412492
1.13355016930219
1.14906558033546
1.11155377664782
1.1668633645086
1.14838590671803
1.14345487833674
1.13741903190841
1.1521843756303
1.09550621982545
1.09959541027078
1.04376102646832
1.12399931167373
1.11180302480525
1.06808891192978
1.06461241133676
1.12280328743299
1.08688839221923
1.06050942974708
1.04713078548698
1.08322889269987
1.02045316373899
1.04878994029068
1.02211801650965
1.02761693767995
1.00792660889509
1.0407607989075
1.01248835528188
1.02694411277869
1.00958476389233
1.00490653497474
0.994851069361815
1.03139717337562
0.985398197393529
1.03215830604607
0.992032590353299
0.996907832034564
0.980368240357433
0.998529853728384
0.941908284375888
0.941338578439346
0.912753954182944
0.953033550071322
0.957575831559185
0.946552833356279
0.935463322809295
0.957727242999461
0.918144952263546
0.921243758895157
0.892502133135881
0.910129115081293
0.86625044261183
0.905828026044759
0.879304507062549
0.909178143639483
0.887813433815252
0.879739026162862
0.870879154198458
0.877288920820739
0.852365692349654
0.887984587369359
0.839733502651106
0.850952804367197
0.836723290446576
0.858320794494698
0.814721000428729
0.847035934218154
0.835542184651816
0.822932252517934
0.821807598862602
0.837213545885527
0.805617865869256
0.800975922282513
0.794655014909437
0.814184309082867
0.780599789994952
0.811594229283691
0.783203494307006
0.803791288664571
0.766473269742288
0.778441290104557
0.763108201897182
0.791240472558262
0.771861668189841
0.780788661995194
0.758098185547038
0.764549099051485
0.747027725893709
0.75288720065461
0.737174219562476
0.750975917559803
0.731126347770211
0.749645227850767
0.738024194500397
0.736675733271432
0.725323481759703
0.730571603265904
0.722031200005568
0.731815518786766
0.705889257094745
0.724127323532107
0.683818934711647
0.691932665105439
0.678808090704532
0.696684314930947
0.683843272367204
0.687663202625091
0.67698293190866
0.69283111569326
0.661006250580809
0.67057994764375
0.664097633525393
0.661644927698398
0.644850298036813
0.667422135558323
0.652698275297572
0.640917258112439
0.638033359526578
0.65935574941942
0.634600729854013
0.638801954828343
0.617195590355321
0.647551228606988
0.63408792568057
0.634812593082141
0.609789402648635
0.626558512186694
0.604711547219744
0.606118563562619
0.613470323038498
0.612663339958403
0.588662911468119
0.602475661834454
0.582358484656106
0.597381380689916
0.582120138843553
0.588042027220674
0.575491185400878
0.58419728646426
0.57232855544019
0.568934736190524
0.561074438434714
0.572321201910893
0.560145657317601
0.567158480292753
0.555415416743124
0.565205446168292
0.547649888408948
0.565051660385138
0.549921754860289
0.555581542813756
0.546414435392425
0.547578794522977
0.532993605507754
0.538375472493291
0.527758602071157
0.540245874133134
0.529554205044501
0.533349439526541
0.520824677475897
0.530529799351699
0.505563505731099
0.517779609662994
0.497890430829398
0.514414107069954
0.506533790311978
0.512299143863842
0.504400253848994
0.506724744082059
0.498325816798672
0.506372751335382
0.493724806465394
0.493672130967482
0.486533722733897
0.502683798458871
0.484542755614374
0.48750107472835
0.493909289400327
0.497958658767312
0.474355445013181
0.484463551070442
0.478112655987905
0.486469164743855
0.473017768231749
0.479441879839328
0.480237052892359
0.482201222256873
0.479840675078788
0.479722915517497
0.474171778002411
0.481043057016806
0.4663078723994
0.481422257323345
0.471006900032894
0.477585907039517
0.466845551150484
0.481740103143583
0.475586442355939
0.483042084865197
0.477592521236974
0.49174911816887
0.480579950213609
0.493042214733865
0.484790227847073
0.483462601897531
0.478655762431033
0.491005245264224
0.48051763113504
0.493265198163344
0.483002580370194
0.490816413072669
0.485260326930625
0.493437308668602
0.4861639475821
0.495770728015101
0.485904363366983
0.498459298384732
0.496272218446643
0.510837160947504
0.500234034859129
0.511356848477887
0.49903918558402
0.507307424520495
0.508205681015557
0.518357955529698
0.513165240139329
0.51192877046501
0.5135891940905
0.523330703870363
0.515265823774634
0.527598919558853
0.523091831486117
0.533023354751414
0.527635150132423
0.534023708020188
0.534284324170028
0.545026445985096
0.537638512073026
0.550737124856068
0.546548270732808
0.565188863503391
0.547496730233157
0.562854080050147
0.558055920894799
0.560673386884461
0.56221136897145
0.575860924636523
0.566472593740458
0.580383402409135
0.56593441239934
0.566997220916397
0.566214788565356
0.580845208489084
0.564564103536295
0.593944766419147
0.572497643196246
0.575019283807067
0.569651056667501
0.583774302694859
0.57301758929985
0.585841612193739
0.568714717517848
0.580587773770629
0.562698711420386
0.578136870572202
0.563272437717851
0.564835206698735
0.569628838327829
0.577703534203923
0.559381044466298
0.576618635603016
0.557128031217258
0.574850047288855
0.564639282056853
0.569537402283495
0.566725549135191
0.575274710826931
0.559853653510412
0.565278726547303
0.562598780097723
0.562998432435253
0.559541689808925
0.572787908234122
0.556837604709983
0.570982543799319
0.564283660484722
0.569094312460362
0.563492131474403
0.571449924255281
0.558535004556347
0.569919060259406
0.562794093219346
0.571811308200969
0.570765344948195
0.576883485138642
0.564163932165769
0.567213873343549
0.556923181631898
0.561684947236422
0.559683058293009
0.565995578791214
0.56417190446356
0.555367506300503
0.547236809466148
0.56315833730143
0.562345890384061
0.572718164181404
0.55668718082838
0.561276162243097
0.551438290337637
0.558962528788995
0.539205371730689
0.553401099646416
0.549417740414987
0.548728777778673
0.536083929493245
0.54175655902034
0.531343226696346
0.537693574815868
0.534859801696085
0.533205205640833
0.517062321232965
0.524358613610606
0.517557500378073
0.520467875599668
0.509250164614635
0.51246270393725
0.506500782929269
0.500926432450095
0.49925156068507
0.50854313178426
0.49861569369176
0.497379828088396
0.484994202705952
0.487447531309377
0.477704378851602
0.478281518236457
0.470340529081348
0.475697340853309
0.465720613298271
0.470538688750608
0.46271601782645
0.462339670621123
0.454459967117649
0.455697987159275
0.447435826823744
0.451272172577555
0.4423002015857
0.453291811816914
0.443733250764425
0.438223686736039
0.434591784269707
0.434561807188913
0.428611825408336
0.428942118072045
0.415451887767055
0.419147356113793
0.414125361647326
0.425952952915776
0.413640345181965
0.416556821538259
0.409107845739315
0.405363529075591
0.40161257738851
0.401847085546559
0.405247551075451
0.410106546085399
0.40636390884589
0.402256482713351
0.390802044819782
0.399027815523319
0.391997016859555
0.395805247029662
0.389389111329852
0.391620480282829
0.386002689922728
0.385457568663958
0.373042050586832
0.384267627560489
0.380222003156488
0.390049834953664
0.376231419267886
0.377088292988555
0.375557560130223
0.374300649365312
0.368401806850971
0.376838714114846
0.367032624878099
0.371304424134304
0.366121854308239
0.363829903968672
0.355142507431715
0.36529975152397
0.360874381968138
0.358533117561945
0.347865132984706
0.358267084197124
0.350359612110114
0.356676061628135
0.348539147994426
0.357694794403935
0.349705715475342
0.355176996192633
0.353442612948667
0.349584050395338
0.340969356616873
0.346875515484262
0.338030485769251
0.346675275966805
0.342916935461487
0.341523866419367
0.338814332113095
0.348762302850174
0.337455858585489
0.338967481778091
0.342075822480043
0.341121832553482
0.32969731356138
0.338526571052685
0.33207979042266
0.335772452236871
0.330709913932924
0.328782777540995
0.327147273940384
0.331094683609299
0.323996099376335
0.331088498045282
0.319419010511759
0.32490325750458
0.330660455089383
0.330836064098426
0.32040180473843
0.322287552790345
0.323285183370521
0.320292870509231
0.312014614919519
0.323424895093086
0.318714270130927
0.319046152777306
0.31772323504235
0.318022214516039
0.313578040538643
0.317841151734305
0.304902082346326
0.313789740647386
0.310549510779676
0.313067278555547
0.306345551934175
0.314595839600882
0.306970830472567
0.312594534411059
0.307158860077346
0.311957812118254
0.307343344665708
0.312405580978619
0.30530754857081
0.309311895089961
0.3058326834671
0.31272610691298
0.304650778641506
0.306195266889439
0.304001762734668
0.305851170396081
0.299045777374168
0.297702228922185
0.297209377118298
0.302126080645061
0.29900903565991
0.303537787548147
0.294833946151191
0.301789617970214
0.296735275345335
0.305382944360491
0.298820391338432
0.302493468131843
0.293131604388182
0.300596709763492
0.295861900056277
0.302178731716992
0.2944819053789
0.295516881054312
0.295068773067472
0.292738337855366
0.290862060217304
0.292953137547977
0.293273365306671
0.297152711985868
0.28548649840693
0.295218773449988
0.287499069919647
0.294435580182951
0.287647223114439
0.290752813745369
0.285494927426188
0.289227669432795
0.286500169561793
0.287580267557162
0.279634606531964
0.286790630416597
0.276532774957644
0.280410956043366
0.281061655704591
0.286816140724409
0.279163108697636
0.278093101384846
0.274894231596138
0.280706682287909
0.273604066701462
0.280368459634311
0.270917449520686
0.278206635760364
0.27493377493261
0.275308644789547
0.274014747181124
0.276613427889132
0.272713227202037
0.279415581177152
0.275670871860889
0.272818825227282
0.262447124507973
0.269572355085083
0.26779507200862
0.269622931337413
0.266052773920706
0.269222673889268
0.260635372329161
0.264448682623472
0.26256882850816
0.266556214031124
0.258268463192085
0.263911389768244
0.255988000661609
0.26182306251971
0.256790989103229
0.258604293246472
0.253851126471732
0.259279161031217
0.254962784872957
0.255202710648432
0.246912912939842
0.25643255912514
0.248964404092873
0.252004590262045
0.251628494364165
0.250858869920406
0.247912472687638
0.246726392538617
0.242646729629166
0.250885748179112
0.244038649403402
0.24728978446561
0.241885145616356
0.244754465204866
0.241170227335215
0.242409633517943
0.235199208391762
0.242280853071627
0.2371550537932
0.239372932965304
0.231171147642195
0.234167087315015
0.233792491903292
0.234857811356614
0.230780598026766
0.234432962252672
0.228109374624697
0.230209163465553
0.224098283579897
0.228266360233436
0.227011953935354
0.228960580857214
0.220973141713383
0.228940288926209
0.224622616178634
0.226937591202862
0.219053983268765
0.221022229479864
0.218691931564043
0.223011960164619
0.219725185976342
0.22759799469702
0.217461304853393
0.219869305336275
0.21917531403944
0.215896856487092
0.215282989505948
0.220804690553678
0.219234669847947
0.219486781842421
0.211142477458314
0.21735458639397
0.212700981178605
0.209497401107891
0.210302149894802
0.214501377942
0.209094357748943
0.212091575102923
0.209994329446088
0.211465177922735
0.208487785512097
0.209176057100691
0.202856156275119
0.205830032178924
0.20267718367052
0.205508375604435
0.200936163102733
0.206695802687061
0.205194153163194
0.20495573321748
0.201552978466473
0.207116658643942
0.204043533565602
0.203388957168659
0.197803577673977
0.206198284383345
0.198416511093554
0.198173859567051
0.196810198573498
0.197208812872678
0.198529679752417
0.199757014781233
0.193353996013149
0.201591043522768
0.194047615203808
0.198609076624947
0.19579829706659
0.198687952981942
0.194344776952167
0.193155632234715
0.192596603082601
0.197564339392507
0.190904554656834
0.193159664933329
0.187379517045499
0.190751387769886
0.190245129793678
0.191392846605407
0.190465140174383
0.192731113137752
0.188856156022895
0.191321465217566
0.1842634309002
0.186764061764956
0.186466756701871
0.187886771882523
0.188505445299613
0.189872674528232
0.184613556083
0.185170952390546
0.186094167169953
0.191441326250018
0.185281895116908
0.185933128189304
0.183420211381981
0.190030619994358
0.188588885112353
0.187915639121608
0.181086888049695
0.186344497454876
0.182574078706609
0.186189848114805
0.181015137353059
0.186172264741539
0.176807518406448
0.183733244352975
0.179952566320373
0.180825267068215
0.180050218497003
0.181401687458454
0.179344927482018
0.182774766008778
0.181856807342523
0.182594059731598
0.174474222257174
0.178435908511214
0.178844148818166
0.180308337125694
0.173828243749995
0.178528698626578
0.176896081709074
0.176492127792867
0.174000047527839
0.177663670535175
0.174090472113146
0.180773455390983
0.174987703314034
0.177097369467041
0.175896469784281
0.178744954823598
0.170873475981866
0.173396969296589
0.169746187979663
0.170728735072077
0.168782013067815
0.173091832118568
0.172820956372693
0.172683614471125
0.168608562240986
0.171843017961213
0.169362613172884
0.169688653933668
0.167228470206222
0.172959056794314
0.170962841154652
0.172018082366298
0.170031540999464
0.168000388205819
0.165736449016437
0.172208991969333
0.16395311359621
0.166071253962354
0.166767581419543
0.171605312012485
0.166441577739671
0.167947434180869
0.166202366986682
0.166756316800104
0.1681520116594
0.170259652094171
0.164076655219705
0.167918067585866
0.163265706485093
0.163726933884797
0.161878628511373
0.163830962846485
0.15847972199936
0.159685552171324
0.161268589123467
0.164539839071675
0.160979352071309
0.162948537949843
0.15740175702831
0.164310932739579
0.158015235898318
0.161787417282938
0.160997331594191
0.15987199627047
0.154211498544476
0.157734726886042
0.155462180998953
0.15582014869974
0.156853653805414
0.157583290110574
0.151958474113031
0.158911076110778
0.155001178350044
0.154966914974951
0.149417294622298
0.154113894128952
0.151960569602141
0.153377126672171
0.14962003742584
0.153657746161836
0.147355006160179
0.148210258129276
0.14594022413601
0.150082483697201
0.148183846826262
0.14966070500556
0.145645338596347
0.14623038155884
0.144697713127444
0.153034638872318
0.143844506003446
0.145501854188054
0.148418753097002
0.148858625483386
0.142884482076846
0.145092015414118
0.142650991655812
0.146484202052621
0.141868496086627
0.143112712378142
0.141450785502388
0.141419999494931
0.140131876993038
0.143239920515592
0.138709807943779
0.142015434336983
0.13933508290322
0.141454189900909
0.139371366805577
0.139905845127966
0.135932572615701
0.142158468970149
0.136701303587717
0.142867755350843
0.138675369444177
0.139036267349003
0.137850893710659
0.13715617637423
0.13224766366418
0.137875908180093
0.135269495564249
0.134536195230344
0.13112190118803
0.132976260464638
0.135242733917115
0.138198237339303
0.13154423196576
0.137946615593704
0.13238660673878
0.13668577323067
0.127105499222216
0.132614637723957
0.130368863425971
0.131319820078338
0.128135412006487
0.1324845864005
0.127023674253548
0.132848454438676
0.12915516299229
0.132641418938731
0.128068621494608
0.130925174894259
0.129602381995825
0.130912954013385
0.126313552222567
0.128977161678897
0.12770234090607
0.129991995459092
0.127371632666143
0.127538180408429
0.126595555645277
0.128996164294976
0.125628873483202
0.126526974456559
0.124114004676714
0.126636458619081
0.122196645661682
0.127106878071058
0.126664144754563
0.129670011416241
0.123259535555341
0.1251728913368
0.1245544197544
0.125239552328917
0.123699328594086
0.12757842392216
0.122416216387135
0.124837812607982
0.121258569486435
0.128520816247051
0.123388849944204
0.124112488096851
0.123687896757991
0.125013740248268
0.121728364403055
0.127176873793992
0.126452663054816
0.12926021632396
0.12082423426837
0.127270309536389
0.124116678676571
0.12593594812065
0.116940764303399
0.12140717790948
0.119071440612362
0.126349891338024
0.118052759421968
0.120691475706839
0.121087722350544
0.12694774095705
0.121098102982011
0.12528905879156
0.117441289961395
0.126503757114537
0.123802788827903
0.125582743587021
0.118177515379424
0.122722773408116
0.114438139590798
0.126074763616285
0.115930792340187
0.127453607208938
0.118352130507076
0.124783213215491
0.112726809251402
0.121882651344123
0.1181194055001
0.123188920141451
0.122404558438507
0.120553031968707
0.117473444958656
0.119682573311807
0.11695399601136
0.12063473441746
0.120568173247336
0.121015804523237
0.126024798792808
0.119620956165847
0.117934961058677
0.112374982948712
0.12064134641956
0.113689300315229
0.133236601012552
0.116417885537454
0.133506606225224
0.102540664584194
0.132396814555203
0.0986183320126406
0.144886947324557
0.0963756106228351
0.139341539717771
0.083767302151549
0.149465899661078
0.0948306658018972
0.143075997875386
0.0844790276688937
0.148043335172852
0.0957422976433626
0.136304682322284
0.100517560683007
0.132581534505539
0.108167446650522
0.12312468487186
0.119758815389816
0.111543650359426
0.125076975544252
0.107674774579399
0.124227000199915
0.110394190093433
0.124104732419013
0.111030329239528
0.116713150824002
0.116819015928641
0.114852972473459
0.116296457728503
0.115291853614728
0.118713923246275
0.113087475888256
0.115926831176311
0.11647841452687
0.112774445454896
0.118536320959165
0.115998322100833
0.116334050744188
0.115638653366049
0.116649970542428
0.11592794454522
0.116484168800652
0.116639529441871
0.11628590378635
0.113520344155475
0.115297072392517
0.112713032562988
0.115818735643847
0.114804566943576
0.11411270750486
0.118857324088514
0.117976463016528
0.116302987349698
0.116853561629577
0.114738245495642
0.116217324203581
0.111988950303412
0.118096333059474
0.116104415054828
0.117681055368317
0.115041976588893
0.117393239929592
0.116671148441181
0.118224131138577
0.114905411248294
0.115040019489252
0.117277255374813
0.117717029442022
0.117758539822603
0.116656144670815
0.117311581726169
0.117577354329761
0.119307355717055
0.117676122826288
0.116520480828283
0.118839421857857
0.115791536808389
0.11797673172057
0.116331831803064
0.118560569313314
0.118198558888407
0.120219801617214
0.117144057913922
0.117952190835046
0.118609109749387
0.119418209133305
0.117598308735608
0.120697640552284
0.11840286057925
0.120559010372851
0.117777561925005
0.120506961632326
0.118992374330861
0.119425240879685
0.117141815110213
0.122127673476537
0.11565989468924
0.11911509846457
0.11604925526359
0.118941130465168
0.118243549786709
0.119646735350035
0.120411175420458
0.120743552304056
0.118505958897356
0.123013934152146
0.121139950249925
0.122069610783136
0.121523108641534
0.12192442397201
0.119298359839586
0.123416657817081
0.122702562786043
0.124072277367149
0.119297360436469
0.122225409158203
0.120236124154757
0.121988311069435
0.121402930843493
0.121947788489153
0.123179105728891
0.126673911917349
0.120891142554698
0.122105234527609
0.120555067199334
0.122990255887797
0.12271151048349
0.125864749043691
0.124285514123774
0.126231529539352
0.121364007966843
0.124735039775383
0.121907575800971
0.126347896300527
0.123613956435491
0.126457913882992
0.125981058536428
0.128678292666662
0.125287006786353
0.124248746482906
0.124690905974768
0.124883928718172
0.123654272143872
0.12666772905845
0.12335741535801
0.126226636414122
0.123891189341418
0.125773032990673
0.126990589122389
0.127990337602888
0.123935567665992
0.125830740050636
0.12875580809357
0.129466672790144
0.127756089865409
0.13011232155959
0.1287575042374
0.128431264792003
0.128896610796985
0.129668969477702
0.127320582238084
0.12925721051904
0.127504760442678
0.127136948952188
0.124679005777932
0.12849052551482
0.128841081044478
0.129497620474907
0.128276042293852
0.129958484357018
0.128948583998485
0.130886157025688
0.128966227579345
0.132223593318954
0.129165427688005
0.132691416604689
0.131693090214827
0.13191947546547
0.129594661594645
0.133133459121533
0.12903801799354
0.132061224943589
0.129550798726615
0.13372981232908
0.131018476091863
0.132888533715698
0.131784065755281
0.133376391795547
0.129783124516207
0.131280197098354
0.13230512209484
0.132766951512616
0.130980539937276
0.132271100563974
0.129750823887777
0.131132611572493
0.133196029406904
0.135822864208721
0.131454872712483
0.133167535326586
0.133469021354041
0.134056380044918
0.131361476005802
0.131808635424598
0.131989061424443
0.129831779547395
0.126725176633788
0.131189898890331
0.129211236145052
0.127413548244891
0.128697900719046
0.129790793117682
0.126741066958587
0.129275728322856
0.128550192973087
0.13021223223669
0.12694136876611
0.132575957770136
0.128018068073047
0.127785754130291
0.127243336727345
0.130916585959763
0.127518292262683
0.128508993409916
0.126726173273009
0.129455983301934
0.126697172017439
0.12889806436597
0.127773669296949
0.129915249391152
0.124433270124619
0.125459329919618
0.126013941470873
0.130396190619851
0.125925139741209
0.125465536139104
0.124911028316359
0.125229279689667
0.127775457534867
0.127315565977557
0.124350051904145
0.126672989728364
0.121159099759239
0.124892142020924
0.122817790966993
0.123312691449953
0.123956241470584
0.126742854163059
0.126117683289042
0.125923420272611
0.121181088520242
0.124801294439851
0.12333714715199
0.125052783518159
0.126379242215386
0.124832908101664
0.122499249913696
0.125145400860434
0.121369245220977
0.124141660124362
0.123403438578871
0.124618176184244
0.120454327467003
0.121033369018708
0.120413646332149
0.124404341356387
0.122227415486262
0.124486764878685
0.120614362983465
0.12302418969436
0.123604398735155
0.12173798679188
0.120050632279418
0.122432712188562
0.120845885538652
0.121579799394427
0.118727250831675
0.122240341022668
0.118902526635067
0.121103133202914
0.11953804783551
0.121400148399789
0.119846028051703
0.121945137739676
0.117784678421313
0.120295763855794
0.118196265146818
0.117209668917906
0.117847441914994
0.120139338142903
0.118304154419082
0.118418118737483
0.118422857851098
0.119897806035259
0.119022240034867
0.116946192463319
0.117385095475669
0.119594511484182
0.114189245463156
0.11447666582614
0.115326231922604
0.115746691643448
0.114059821911233
0.117524173233789
0.115647760409683
0.117420138045978
0.113382380344903
0.116622648257071
0.11363638917084
0.115483204122664
0.115803857348545
0.115198211327407
0.112158172956082
0.11451182402673
0.113852639863329
0.114044809009554
0.112419939951077
0.113615405039057
0.109363141519772
0.11170592445569
0.112726253481037
0.11087401578034
0.109726886266625
0.106932929157191
0.109009854294735
0.110375181343142
0.108776638120497
0.109536988021537
0.109228014002493
0.108133101832282
0.106440015634633
0.105556637300431
0.105802873936864
0.108649800542354
0.105391131068989
0.108397825465237
0.101915779970786
0.10756272432834
0.103890350760734
0.106618146861642
0.103778195396014
0.104562422041501
0.100347513912282
0.103094561309714
0.101273467446043
0.104549744221307
0.101618376985218
0.103772864561693
0.102568008657686
0.102314744604701
0.0998268299199696
0.104077627458223
0.0986448910367683
0.10036194975611
0.097981097850724
0.101614252048738
0.0994671073818584
0.102148539882437
0.0978275753267335
0.0988486685372113
0.0968990875625523
0.101537467622203
0.0980876545028604
0.0976379866949276
0.096593453191547
0.0962152454857929
0.0971267003576926
0.0982927485668417
0.0947840673074535
0.0967919584291727
0.0938601459547583
0.0965017502467377
0.0953574500690488
0.0968262191940936
0.0960862674537857
0.0946445721736966
0.0955186214858999
0.0937020111861395
0.0930477145274534
0.0960990027700463
0.0941462092317527
0.0931507222697374
0.0930384495887936
0.0967724067893655
0.0920671512594341
0.092533911592075
0.0924913466719033
0.0942231616527457
0.0966604995838305
0.0912647483829935
0.0926078618536381
0.0921911456990802
0.0908420052499081
0.0899080808332411
0.0907415658014562
0.0902677165056667
0.0902862929894075
0.0912910251052754
0.0883509479326865
0.0894064730358231
0.0902635567422423
0.0898778358208699
0.0871940657641238
0.0924026563355124
0.0898761875656783
0.0908694500532899
0.0895480866755402
0.089379596413372
0.0863923220722875
0.0863482362092884
0.0888616976967356
0.0868096001312239
0.0879716053928615
0.0863496772900071
0.0909725638254272
0.0902803100450856
0.0838912518936954
0.0889982155915637
0.0834180882890891
0.088550181736348
0.0851690454408703
0.0871114479568001
0.0859749191282775
0.0880755748459074
0.0844951961208853
0.0880531168325607
0.0840338793491137
0.0875520394461792
0.0850775321070532
0.0866027939514243
0.0843326056201172
0.0880993144962462
0.0837927882121884
0.0862990035957849
0.082560209626362
0.0890689854609472
0.0889390541710103
0.0860911591633297
0.0829194631926111
0.0842690624499645
0.0806552858363446
0.0958184386737267
0.0810450214394326
0.0869370301826066
0.0816485313173922
0.0861394071495446
0.0806624977308491
0.0871165966146991
0.0788634020520017
0.0856684423898357
0.0838990449777779
0.0835932151647553
0.0847880547400572
0.0836203828578975
0.0850142359223926
0.0851354583927444
0.081122292042584
0.0840112569565925
0.0803027362901033
0.0835105018723521
0.0808171528729632
0.0838394403754033
0.0802871144646574
0.0864607591000697
0.0819443050764807
0.0889142089783771
0.0827498617470218
0.0841250978612801
0.0808021126772427
0.0849241920412231
0.0822292943284275
0.0871485340098741
0.084443201627857
0.080194632084256
0.0848332681048688
0.0792751852077582
0.0820145563762398
0.0851306857080847
0.0847159567468935
0.0822127607210687
0.0827788174059989
0.0841219163012056
0.0829479653366962
0.0827967943236317
0.0796558532113552
0.0821615544155151
0.0838331161069101
0.0828550179093972
0.081743787976067
0.083659684496757
0.0802840028642831
0.0850008184237531
0.0792113439324089
0.0924775320723966
0.0808865618853819
0.0890267892818619
0.0800956145555999
0.0850328008317445
0.0814657224064649
0.0842974836217777
0.0817770384209834
0.084628579627448
0.0805690655689444
0.0804432116772573
0.0819708498580264
0.0829529440412152
0.0803422304631894
0.0827758219896781
0.0811385508757949
0.0826151289487133
0.082781421523978
0.0833612725960402
0.0841294928114853
0.0829132080956695
0.0848313568008171
0.0794909153158797
0.0870822811675274
0.0778644342756243
0.0874995261668328
0.0745673130577653
0.0985453819105741
0.0829548473466982
0.0842218883669029
0.0856943460573998
0.0830964864662648
0.0845846828113707
0.0843696255541335
0.0858914206746037
0.0846546489489992
0.0839740402819221
0.0838422789201316
0.0874978247149928
0.0841197013554083
0.0856240254467386
0.0835132203149362
0.0918807571194524
0.0918400135279118
0.0848609361835521
0.0864317045669968
0.0806026092194362
0.0940722861225955
0.0946601354373361
0.082063413564981
0.0930847619053196
0.0847730345111351
0.0887567026046716
0.0833099537755764
0.0892006762626812
0.0863973588481669
0.0903847968173498
0.0854788834468092
0.0864235458165305
0.0866310906956421
0.0888094310319195
0.0905087463057492
0.0900195248708573
0.0916797395397042
0.0925157652683894
0.0856302511383415
0.0910858087168781
0.0865600000194664
0.0897632460789807
0.0885255319510756
0.0897534350325529
0.0890779151156906
0.0946635718605196
0.0912170687951714
0.0920800506341408
0.0931743946227471
0.0942767762707393
0.0887475671682754
0.0995508973056001
0.0884510911193139
0.0963819698368518
0.0793904748707126
0.105773359498709
0.0975525512213374
0.0964101353841175
0.0995544036552261
0.0910210200737328
0.0995560004062403
0.0905413067342514
0.0976718660891779
0.0897263245227303
0.108050715794744
0.0889083735520973
0.103143255426971
0.0874694936977831
0.101350887901035
0.0986682071600968
0.101455855529683
0.0975577950604435
0.101436333786243
0.0963216520618446
0.103909146688071
0.0967798272488469
0.101517854891974
0.116192805435426
0.101087315814059
0.111421457507323
0.10063520163943
0.104240275485638
0.112626442550167
0.0996122217608236
0.109596698090128
0.0998155938449789
0.108971353981571
0.0983517723387158
0.110886436317851
0.115804681334021
0.105129382034688
0.110116925861847
0.107214583148346
0.11152273745697
0.118838798373352
0.106925542066928
0.113315079068311
0.107373926784141
0.116561141791797
0.100819846989285
0.134578812314301
0.103966625891508
0.129837092306561
0.121377027228281
0.119480403321026
0.121149877444437
0.121756582964391
0.12505740548816
0.128861537314825
0.126334286392386
0.12366670375502
0.120475928306691
0.140372514706294
0.135549070937084
0.126786223507054
0.13606664461571
0.124217264542525
0.137070119140634
0.16294725210528
0.149868194006317
0.142977405240336
0.145425575167892
0.14763137492442
0.152471418657891
0.145415574684513
0.148894376509884
0.148212015542634
0.149517858734826
0.153647810081607
0.156529001471459
0.162238042893343
0.156854128051393
0.162937092963544
0.155473769984626
0.166682042076723
0.179282976641728
0.183131467572378
0.17926065766409
0.166371413822423
0.196516030958463
0.175234694734467
0.183490193353459
0.178835495515581
0.18872603922406
0.187933075177278
0.189816176835853
0.193511090200251
0.194427195327361
0.207012131568813
0.201089102013808
0.2170202415046
0.214547059057569
0.203860912809451
0.211760304806285
0.227164899883158
0.273654315842244
0.21800453184188
0.248458066271486
0.215467024037427
0.29340163669276
0.271300478463648
0.261712339596411
0.266957321608853
0.276647945586931
0.275441088826322
0.293514710245978
0.293166309228288
0.30897825026066
0.308959020917167
0.314594805932054
0.286403421464415
0.367758581663991
0.348943569765684
0.36429380970897
0.357148849270531
0.36824624362368
0.378735303437151
0.388195694530307
0.382910023313759
0.400224909872364
0.378767422789877
0.447109007770039
0.441054088544553
0.42594240524065
0.447455040827948
0.451133069538281
0.464530030521191
0.449201773910357
0.50832151191792
0.477439349664224
0.500389034318959
0.492716914638723
0.511543904815845
0.509558984895653
0.53349200608221
0.550719631229133
0.539369570695006
0.559964341195263
0.55831833683331
0.559604712496268
0.566682903200909
0.580637824523249
0.577609332735766
0.57933374767897
0.615758810904711
0.654895657102362
0.639841671225948
0.593005329374612
0.622722882995267
0.606388048205147
0.620032080963833
0.635009900856985
0.606347249845263
0.647280840807043
0.617009177412015
0.625375251573368
0.631540815352619
0.623604680808417
0.631544210501532
0.622252677719156
0.61987921456969
0.616990017313363
0.633429614536872
0.582275871368819
0.686602989830235
0.623197225393865
0.615893340531716
0.61231202305837
0.612425225436387
0.616113857958196
0.60962746106812
0.608812111883563
0.623391169415892
0.609085861030959
0.586688494683449
0.600866405909059
0.590894573998141
0.618445303677386
0.584759197696501
0.571632080295071
0.578184522678555
0.555498241478018
0.551903950277863
0.542105964036722
0.592209478006916
0.552387503597087
0.53428537499451
0.540266061265522
0.530577767446591
0.529794115732578
0.510376145339716
0.514721557420189
0.505830045928365
0.512157818622373
0.502947320525501
0.501872052947623
0.486604497891899
0.494715305381442
0.489012058955109
0.493429494039361
0.484804760300443
0.49146929060691
0.480834010443616
0.478672321370367
0.474156332589969
0.475528794322274
0.476982246078038
0.478834844525272
0.475398209519428
0.474687118295185
0.470424981760653
0.471541644881773
0.465477253504317
0.46593313144535
0.460761101984381
0.465122266753271
0.459076897026535
0.466571555944864
0.460507602011727
0.458203660362645
0.458777792196964
0.457341095613516
0.454675455047758
0.46059909964088
0.45428112158832
0.455709575382931
0.45074699972196
0.441374861414874
0.483151038475423
0.442339000820851
0.445830909781542
0.448376043636729
0.443624547024738
0.433479884940437
0.444997837212132
0.464411393146005
0.43255708361098
0.434905266506534
0.427251122081004
0.429513394162148
0.436144995476362
0.427474158942628
0.417346639235421
0.419845180659346
0.388320619051598
0.468476478020617
0.414952996901331
0.466496069197101
0.42661909049946
0.412181301803173
0.398895600617085
0.422061779406042
0.417407486749565
0.396082563427026
0.403733900816575
0.394140024023104
0.409856509547385
0.392120542982021
0.389976915397204
0.387874305808138
0.382115936502756
0.393861275167392
0.384441660175308
0.365667256708179
0.388877007634142
0.381063615281572
0.362728195952811
0.40875830577164
0.388194008083741
0.367544361680699
0.360844937819278
0.356819549567834
0.349902381399436
0.364189989264426
0.36583852226822
0.343592649378811
0.346661636877508
0.337130487285255
0.334169990644822
0.339356572073867
0.339180814193465
0.327029404372941
0.332964800601271
0.33685803669589
0.303426211952998
0.341166451886125
0.315847923795145
0.349286652667291
0.322167706901596
0.318460099922314
0.310196271798345
0.338283677862109
0.321548095940128
0.312574338038673
0.305608630356649
0.304018018604135
0.305155665754436
0.303358792268764
0.287676237097881
0.303217388776889
0.290553150268714
0.293576905793104
0.316046217790078
0.306452844326659
0.295877133697634
0.288606433406499
0.284547074620695
0.291994037908674
0.281533101092183
0.290522167452255
0.274316703202215
0.302966138685825
0.278133885108507
0.29716354500295
0.302932037865697
0.29219760821935
0.296031178186375
0.294869158232201
0.292097342970993
0.30829867435164
0.314053440005231
0.309720638868337
0.295030184144696
0.317991474916349
0.311751259326273
0.315923085794516
0.3157703785068
0.321325469511031
0.322909509643793
0.329049773095786
0.335323024963948
0.340503593914816
0.342697830722789
0.353088073944314
0.347492201413128
0.375757556512629
0.366788880229572
0.358447802654165
0.400549692007149
0.3890585120223
0.414848841568583
0.395055531317422
0.408428498913582
0.418086952766558
0.419626567806935
0.419146152475277
0.416182576929078
0.442241026572778
0.447783064572555
0.435815964130431
0.45050226417355
0.448965991702232
0.460384398377645
0.456034686575331
0.474405810417188
0.452889072921887
0.502947474797615
0.470353679107142
0.47885970752744
0.478584593919443
0.476743972104129
0.485804749670792
0.4823046194047
0.489289815678942
0.480119957049151
0.50345648733879
0.497105215478005
0.487478786329787
0.501280646073446
0.496700108770331
0.498487540972349
0.501541068971788
0.505470601673095
0.510483832183495
0.505909723719762
0.51099087387159
0.503464842481686
0.526494029714299
0.546287154628692
0.518209274027533
0.537909570571799
0.535195194880389
0.536642216266944
0.522608488904473
0.546667276687415
0.560961724152127
0.557345554255728
0.551389072525311
0.554895873329835
0.558029996661943
0.568020864725676
0.565520100250248
0.572390724104592
0.559571082415421
0.572612910101583
0.543401081874356
0.618456421649832
0.589086133719383
0.58901656340783
0.59982984635618
0.586269200175884
0.587630647433614
0.584266966932083
0.590935830573527
0.58841739111735
0.597834107750042
0.596920117610471
0.600481941814475
0.593677548022387
0.593457469822324
0.591396677771788
0.599603585345148
0.602023746250478
0.597268570510783
0.595414436900464
0.586806250389374
0.582895871696006
0.592197915730158
0.607658919054009
0.590178605848324
0.593889358924881
0.590738006903803
0.595799641201412
0.603006746066566
0.592839215515941
0.584945680191553
0.590672352565651
0.590347387195424
0.593344044934329
0.593086504100494
0.604384670277938
0.605013627365938
0.595825938868369
0.610935702370393
0.59900560129729
0.611540207105205
0.608140681512179
0.614896854009758
0.621148834735549
0.619679972172053
0.621976358562415
0.627691596734764
0.620795580722928
0.628549683649233
0.631749042997273
0.632059377013765
0.62201140242499
0.620399003484609
0.623582718889359
0.619204714694268
0.620298574264418
0.615488878538795
0.613473429930745
0.608198323883149
0.600843153240169
0.598368590503132
0.591630373223544
0.594674215649711
0.587157697865309
0.590483571315417
0.57469606200365
0.582460658679498
0.573148574815568
0.568053069340264
0.563274826061445
0.569760532344004
0.556370597372232
0.553768685336484
0.555211745493645
0.553181248138636
0.551918448265689
0.55050434599095
0.545817765672157
0.549275101431658
0.546746800900144
0.544594749550859
0.541532951801138
0.541806597627013
0.545056939181606
0.543466234445463
0.541504959291358
0.549648446744888
0.546059001548947
0.551372599934282
0.544906401873119
0.54986959073217
0.541032924908673
0.54167166423177
0.547381979960745
0.542261553603278
0.541582076897973
0.53852988301662
0.542606744553888
0.54129924899819
0.541961693031404
0.538112970828138
0.535659203422066
0.537471521486197
0.540592028761807
0.531927085712532
0.53159046868291
0.539249569298217
0.534529428572808
0.535695264014613
0.536206209535239
0.532924668986881
0.533975080228205
0.530506508398263
0.537207943465469
0.533813235739372
0.53383683899373
0.540470387327731
0.535049575262028
0.535889106304988
0.532096047969877
0.53246587695381
0.535378203257504
0.532874672990764
0.527078699956593
0.525707806727361
0.523081417077747
0.527433407956356
0.51917584464224
0.516165732927048
0.513475427854644
0.508958318068524
0.500612324651854
0.506704664034448
0.49770771644499
0.497284446291985
0.49901045887655
0.492827615150441
0.487686964636342
0.483768404143334
0.481153252628609
0.481711774118815
0.478953589595634
0.475561926327907
0.475949284948797
0.473228970161223
0.476788244017829
0.47665957014093
0.472116518954834
0.472074850275096
0.468286851421909
0.474174709576221
0.467966624093655
0.474551519001603
0.470679142247769
0.477431504854287
0.47410051617613
0.477187019169144
0.47407433375346
0.478107721970206
0.479485247994249
0.48143068767042
0.481836985590441
0.487782010453137
0.487227565622979
0.489728788327548
0.489422661439904
0.494314455656234
0.49372865774015
0.496672735548752
0.495076724328987
0.49565970957964
0.496957206801019
0.500872612270084
0.501464073919689
0.5014523298103
0.495272297299018
0.499041476104482
0.500543228075067
0.497182349128605
0.493527157822368
0.492552452136758
0.492496904922502
0.492583614024923
0.488047345679409
0.489024971255715
0.484800084624563
0.483907962688507
0.483395064774545
0.481990970147446
0.481259151678202
0.47999303489402
0.47370598794434
0.479194738754115
0.473575449335365
0.474577709277455
0.469196241251256
0.467674280524528
0.467556183738174
0.46848556522882
0.464350613562688
0.465164311604742
0.462756006279282
0.46102236305096
0.46075005316228
0.458435019723374
0.460771028799221
0.455382982432527
0.454046763707543
0.45237641961758
0.453897861718709
0.452010282208323
0.45214244516036
0.443654625326923
0.446140708270416
0.443876480517421
0.440317499584505
0.441562453735005
0.434825296085314
0.433347263168868
0.432212907067659
0.430525824542028
0.423580840403396
0.42100744997055
0.417110670114605
0.414321939007354
0.414145163182502
0.409846573089838
0.405434502336078
0.408108841580381
0.407252104927612
0.40032656415493
0.400818156866681
0.403735712000516
0.397687133908051
0.399053769954081
0.398254539380676
0.398342014520623
0.398034304988615
0.39514253222778
0.390119238146501
0.388695665558378
0.385191076758135
0.382154132703311
0.377391368849143
0.371857153450316
0.367239107453441
0.362714938184236
0.357849483092254
0.356089804904542
0.352107420293961
0.349828583121267
0.353167472731055
0.353213224308273
0.355706276003921
0.355510032935004
0.362281166888958
0.369504942057861
0.372537221510779
0.382147878085751
0.3938083554924
0.407805669252179
0.417196107842242
0.430655140635687
0.445706844870638
0.464715844164239
0.476291973727731
0.491613505578572
0.507700847552748
0.528144182304168
0.541600444095048
0.558917241023862
0.573345793201754
0.588119065584527
0.608149963381552
0.622459215344694
0.632638265506977
0.655075442278646
0.666935838541127
0.674945519333519
0.691254935873457
0.695428882898588
0.7118807580667
0.718220412421996
0.729694368042613
0.742238112159313
0.737524599284998
0.744391116404801
0.751065767529747
0.761243129350211
0.761735164934312
0.761136185154789
0.756488991657899
0.762997736659633
0.76286124608402
0.757711560245789
0.75993249292203
0.758886716677146
0.763106198770522
0.763451368239303
0.758094376191666
0.76298237773558
0.760511351811267
0.766739690002133
0.774056411341734
0.778880691503811
0.784313930743567
0.785026857716268
0.782929282415337
0.795838758573714
0.806630382043438
0.81101813246097
0.814964944970288
0.831740202016393
0.838224734509728
0.843678828743044
0.848286956667634
0.871686265451328
0.875555869793702
0.898365506195555
0.911961329843312
0.918923996706083
0.925691725415763
0.938968617850666
0.943579350511787
0.963316145895381
0.960852895585812
0.957272845858588
0.961160582680165
0.976763483006192
0.978421722598356
0.961159486897292
0.961079485996337
0.937509545381404
0.933900196235957
0.940035613598786
0.937061368066019
0.938414210248215
0.941380874122185
0.950664890042582
0.936367714125256
0.96055447520281
0.973846384180311
0.98618677844307
0.994573206896691
1.01027483889091
1.01296388245938
1.04072054566512
1.04963606104974
1.06798299327709
1.06883030131797
1.09183941445082
1.08844577196709
1.12862830803554
1.13225781310091
1.1530463463663
1.15059170664568
1.18009243404133
1.19806420811974
1.23337731718271
1.23435214564256
1.24152882415585
1.27025334259685
1.27082824820587
1.30594138149554
1.32156246256578
1.35960657227295
1.40091046837605
1.37871298516976
1.41196237073853
1.41081462279559
1.43166216121119
1.44671401512391
1.48558019034748
1.44752036736173
1.46841078564272
1.47290500509087
1.53096934593333
1.53378795091965
1.54244729566166
1.51878310735078
1.56898047449019
1.4548479464372
1.53238647248515
1.51310376655429
1.49887487204891
1.47899809743243
1.54819159531513
1.44014154127963
1.49160273477673
1.45042981150947
1.44868570874497
1.49178979754057
1.49501457193411
1.49750714926878
1.52505485566482
1.48010540217752
1.54380849436082
1.52746439212881
1.58909347988912
1.55508933854638
1.64925736928532
1.57852543739671
1.60684451833262
1.63226899390949
1.57967574680661
1.60397561084706
1.69353322794418
1.67462736759923
1.65368785648887
1.73440478174961
1.71325775818061
1.67131851222993
1.73313072542403
1.65824057672724
1.66190129422575
1.67599767187307
1.65418926977363
1.77641268778656
1.79299011335497
1.66005438835666
1.79429000344812
1.72425579692098
1.79576365364045
1.65549423127574
1.6811064813877
1.65027768130472
1.70454105887641
1.66874441754411
1.75650564275211
1.68836035453276
1.72727784936929
1.66699873243688
1.75528443041038
1.67078631710472
1.71746851435565
1.57413532156304
1.64546188316087
1.52257798290788
1.55854336949777
1.52609767089904
1.64220816410345
1.47543860470559
1.49834585914687
1.36323235694796
1.40722567705585
1.31256339116948
1.28625176077505
1.28540497294736
1.27623372351581
1.22602140662971
1.22271244964289
1.20057166334036
1.24896332081913
1.2038747857434
1.21766686415098
1.18136407094318
1.20528737999874
1.19831867422766
1.17620317027991
1.16766189073949
1.15642462561828
1.12553527841245
1.12224389163202
1.09544410209074
1.12861345392969
1.08759975194373
1.07440713564176
1.02162424780913
1.03686755457042
1.00629136367087
0.98908336919163
0.936218506781517
0.943157588142962
0.909107321107045
0.881474163150939
0.855789851920583
0.82794413790457
0.786009659803646
0.765451865806208
0.735653819557671
0.715962110569906
0.685270256871966
0.656680725320472
0.637783912492517
0.626417003381556
0.603996846785713
0.592086650000008
0.568235791887968
0.56424767227019
0.554279006456008
0.551355571143145
0.541076819674862
0.531341884656106
0.521079774590733
0.513973484972073
0.502594079773435
0.509946822360067
0.502588583776903
0.506570364900839
0.505280840698474
0.502028879912545
0.504315262900649
0.505877844592108
0.506461545971559
0.509731917884465
0.510432219631231
0.505364212983975
0.508564585793485
0.507750714852907
0.512874842650108
0.510670987967332
0.505513589701264
0.5091377543042
0.505615841582177
0.50322301141256
0.486862460052575
0.498570299734754
0.490776726514084
0.499918614940951
0.489929481690083
0.482175566272842
0.47390051362764
0.483514614206025
0.48163411942949
0.482461397070758
0.471306786613459
0.486046321186055
0.486940602211921
0.494117345281405
0.492635830010588
0.499527763495284
0.503352528077567
0.498578363416484
0.502271316410343
0.51409034579742
0.50548770001052
0.513457704937042
0.514290952187143
0.519426688119075
0.512676043469629
0.521060294364629
0.519489664151104
0.519726712620298
0.516296315767623
0.515387305411702
0.517122959670458
0.521940501139791
0.512220305072467
0.532238108283866
0.522907260730729
0.527206535138951
0.52638122994936
0.538063827365786
0.552254475821486
0.558238414017379
0.561590721857471
0.581486117980079
0.580089481223024
0.598153102540175
0.611594201606709
0.635034485692699
0.633245752990315
0.650121748551916
0.654023267538796
0.670240766413955
0.673660441926464
0.680993872468495
0.657398758211391
0.661373555570733
0.66428724011364
0.670635207329124
0.639105497191569
0.637933454454607
0.630642752183026
0.626514724519365
0.633900814746009
0.630531366094358
0.626329709606038
0.627829928051175
0.631275814538093
0.638546698594274
0.622013563494521
0.646692188777698
0.635441875374996
0.644129528747514
0.628893741212115
0.633185378413221
0.621048976357064
0.621719444203165
0.623966483334581
0.630460423324135
0.616561182416475
0.614157242556097
0.611531444722618
0.625544577418545
0.596276762984245
0.602246007094793
0.60278587235005
0.605614136388088
0.596728339242652
0.601884942710111
0.596683891767208
0.609206143280901
0.595236676042648
0.599976853894568
0.612512691832643
0.596979918695872
0.581231619687223
0.595181895066609
0.585995804876133
0.595928224934355
0.58626317238423
0.584293932987088
0.58573329017802
0.582456011130412
0.581829478289687
0.599570692104515
0.600772841402111
0.600555765576617
0.580591278693775
0.593450824073539
0.588503347024926
0.595214969414883
0.589955182105167
0.605587397696257
0.592156179633813
0.589673124321288
0.605806336107152
0.587779638791556
0.581698449508085
0.598776846680596
0.600442710268267
0.60895162702292
0.574182078005526
0.583858938781395
0.589116803348628
0.572945982152785
0.575895481305508
0.61698786197459
0.58798675340972
0.640893336232719
0.594628788389478
0.607952413840884
0.608419483811524
0.61228165063769
0.593499534442764
0.608011342946848
0.608798844417501
0.630015841003964
0.611096862036163
0.64435276985391
0.636805817978333
0.649974609676064
0.611912624338081
0.663817977068039
0.659405409989913
0.649692951709849
0.629791267362873
0.665029384012422
0.631675312433166
0.697600237117412
0.663334351310601
0.692009156089895
0.662020887632731
0.693547375968294
0.690386408197418
0.697469736953171
0.693653754311752
0.715913557044343
0.732159312275315
0.755861901575535
0.768555500617417
0.776203227826553
0.780067335451857
0.806055350277234
0.820950400334694
0.817392875357543
0.844093723135226
0.862543970710406
0.840265998625839
0.896986066031401
0.899395063472698
0.936686914997626
0.848894442036811
0.911561362726704
0.901146688571291
0.906957641461686
0.851434682374106
0.961240437605996
0.892097418478762
0.946048962619772
0.924915591477651
0.976848023140137
0.873852770672395
0.903352907570275
0.856702172979345
0.955834861746977
0.912466607043112
1.00224596100526
0.942244664751822
0.97313012814908
0.883235453457642
0.936266751078821
0.85112342452262
0.902563207503334
0.874068602579086
0.879938407084127
0.817101796421412
0.955916598665606
0.878003419878796
0.926112426305207
0.874149979583969
0.961644236969798
0.825590548095172
0.88477829198321
0.886242708353877
0.924835827009667
0.770762040702334
0.861156601227089
0.795714989097595
0.870682529024415
0.845947378511421
0.8695964037276
0.841207288731313
0.879281929260876
0.885026823750586
0.906676873381778
0.850624461618189
0.967981073784489
0.867192050673893
0.998139868662817
0.872803643740964
0.871252109975587
0.887946908983891
0.913749395489305
0.959431654747947
1.15850949664664
0.946570740971794
0.901794046382772
0.930344274742541
0.97210978003007
0.972343135848612
0.886938743855321
0.908860584312026
1.16422047223632
0.982307542523523
0.945740931714901
0.966424267087641
1.07904012533
1.04066827487693
1.10402215111418
0.887394689224597
0.892677286085592
0.893823453088544
1.04110070861839
0.941629950222491
1.13279223182361
1.00514258126296
1.07930668030242
0.968275792325311
1.15125260227512
0.869865365758703
1.48913242652554
0.927002457233492
1.0135353830061
1.01108034302449
1.20687315823695
1.06336190658027
1.33318350305833
1.08561100923674
1.13833352614299
0.937118248574917
1.0353524213352
1.20002153981686
1.38714158987738
0.891086228666271
1.36662121434532
1.19685416824389
1.28063418008327
1.27597538936886
1.70969598523195
1.20471588024024
1.12833806962661
0.888721435526125
1.16885912187864
0.899682667252089
0.985819282840827
1.04662726511812
1.30632424024365
1.04813427029887
0.887671596368994
1.18317141095119
1.41320400474594
1.021219702505
0.921551810359911
0.923393898143438
2.03662260047205
1.22182711656971
1.5880029971455
1.01009595754575
5
0.769672692344011
5
0.991098899852824
5
0.959526424212737
2.28392996394917
0.719927079136826
5
0.67654950611153
2.74258442318357
0.78940456159031
5
1.17032021794871
5
0.808923357981305
5
0.765637258819889
0.801357961501647
0.819435716421797
1.3478027871466
0.893919948939906
0.956685631767405
0.607292180905442
5
1.06565652412291
5
