3596
4000.36533379555
650.420452594757
1
2
2
0.0588676885145101
0.076375503034767
0.0522417371902681
0.0758731876945618
0.0598246417138315
0.0695500569614254
0.0501556489603402
0.0753565563083616
0.0509076004118723
0.0799171512641043
0.0519490956602129
0.076701469031459
0.0550054807282631
0.0706122192072745
0.0599247793248551
0.0766343552741339
0.0534363806897268
0.0720251821689797
0.0481766035902242
0.0722122302777483
0.047093881242454
0.0717893702341844
0.0462022761687722
0.0813162518082163
0.0466296222962663
0.0776493450357027
0.0544533271291074
0.0626420189766394
0.0513096482141989
0.0742450574887753
0.0502879006571784
0.0718616786150335
0.0530136741777723
0.0804690079539591
0.0530921252764274
0.0706934469920608
0.0526451934237912
0.0669255898378841
0.0524219281077108
0.069676106496093
0.0518281228109547
0.0723310984818652
0.0618370673133385
0.0723618122349392
0.0458643228219983
0.064998219170986
0.0591371524075945
0.0638695124146385
0.0497760105235654
0.0716375736246027
0.0499287013318244
0.06754221716119
0.0547350502915351
0.0820988613176969
0.0512910296473678
0.0776908278744471
0.0464124118875521
0.0691734933717717
0.0542490269769547
0.0658833815536354
0.0611306983090072
0.0744102444228283
0.0504867514653839
0.0710350182828165
0.0469510897076848
0.0711688699082492
0.0457001358531234
0.079721970646814
0.0457382018428877
0.0740824117871224
0.0367111703984072
0.0705622500319109
0.0576806705755505
0.0658796986895107
0.0496550988029624
0.0711073439264676
0.0469980631522794
0.0672860318634689
0.0392328931137607
0.0764236257991026
0.0554332827491768
0.0714144916599761
0.0522815276430814
0.0598607729927927
0.0439443616888593
0.0842116370035648
0.0422855649204728
0.0742521330187594
0.058524730743156
0.069933628141452
0.0460300143916911
0.0620018141559363
0.0405730625705692
0.0669979849786129
0.0480924197292738
0.0721624499662275
0.0447607095435349
0.0771173402258861
0.0404716036747485
0.0643419989599913
0.0529039978420294
0.0712042115031699
0.0821285155717608
0.034688420140135
0.0683563531495042
0.0714773520401473
0.0328064603576246
0.0912872572414623
0.0389275359804126
0.0739783113710737
0.0445810148836349
0.072388929723149
0.0356077691347062
0.0797291811098668
0.0221805197413256
0.0683198702979718
0.0585951563051997
0.0646216646937594
0.04443109993745
0.0639636785859474
0.0226981543761717
0.0669864341287958
0.0623022269520499
0.0634452194864879
0.0521143928254506
0.0610029587120793
0.023687882536214
0.0779452582486828
0.0622863593167976
0.0670531129907517
0.0537925276610054
0.064668682031888
0.0375800025206304
0.0524494330319219
0.0565942483450252
0.0551733869000395
0.0521189346270729
0.0367633559384937
0.042740689838055
0.100477575961019
0.0527263829711541
0.0647348339226486
0.0242253781502361
0.0602049748320911
0.0605897649788329
0.0640066454150553
0.0342130526498086
0.0653019336212911
0.049497797062571
0.056505334980508
0.0436016286777133
0.0560238230538224
0.0386076914099911
0.0670245742306897
-0.0176147250694461
0.0997526216275659
0.0634007877604744
0.0510429900213504
0.0849973220242056
0.0551560002513772
0.0629302694200327
0.0458702082434885
0.0458952464362514
0.0469362473912773
0.0502264022087828
0.0399873011527195
0.0456561073358628
0.0699029693947169
0.0455329201392553
0.052902735444476
0.06638569663299
0.0636276211347061
0.020093910304463
0.103282126991933
0.0482782224718676
0.0512302031596194
0.0561420634850118
0.0669143034735549
0.0329772269025651
0.0513264499191396
0.0560926207455152
0.0524459258608617
0.0545389013169845
0.0584072763292784
0.0393744846787745
0.0713103259885525
0.045735509011999
0.0580769577724353
0.0474588366720418
0.0286065782980348
0.0293943764123778
0.0867884813181128
0.0697734101699942
0.0524552480011593
0.0532891794669996
0.0173198352094746
0.0650621108950455
0.0664149692676978
0.040847563710666
0.0588426411965466
0.0435954109823169
0.0598303851431774
0.0471086423460979
0.0624363648593075
0.0441335496482052
0.0256564633806519
0.0763777889742037
0.0702277561839117
0.0412438160290436
0.048790202237013
0.0500454872455168
0.0298692986508857
0.0713947578076001
0.0690420615127926
0.0487638480782728
0.0536182225179366
0.0375557539974203
0.075001285008487
0.0511293022934267
0.0564272267561745
0.0462605245119192
0.0582996348590487
0.0451727365282462
0.0593377458928165
0.0420345185409094
0.0625297198523654
0.0446860383978994
0.0560166722602688
0.0381809457777133
0.0557310332229934
0.0557448163421083
0.0580651703753318
0.0451070964769104
0.0578839158988326
0.0341239834904697
0.0609657497063693
0.0543751350390022
0.055150206648556
0.0419575920187939
0.0548114844163568
0.0518360663151209
0.0541859585479963
0.0495161699602989
0.0628871936889688
0.0500461864881643
0.037756027755467
0.0780532415261433
0.0565073746645408
0.0555108562084604
0.0416517644830773
0.0536425641664804
0.0660685322091182
0.0515869585189039
0.0631356634759847
0.0463474986225435
0.0472175912752723
0.0420045010133689
0.0716126294157337
0.0578765262446038
0.0478275322453879
0.0506895506973503
0.0666479402689864
0.0465807308176039
0.0483862581785851
0.0113948397140924
0.116881684608849
0.0444409777407969
0.0398135452783181
0.0959511192177708
0.065410428958126
0.0529668624447948
0.0534860701368114
-0.0180047358553147
0.127978217669608
0.0888764069648033
0.0652503903607352
0.030727143234668
0.0659839196959771
0.0402905127868729
0.0646605998223921
0.0390089280839691
0.059510833834787
0.0543901673836218
0.0502700339400625
0.0738518733212461
0.0329178245732596
0.0655094992775715
0.0714604401179517
0.0516027264313997
0.0638059036726327
0.0579802582085884
0.0484966574103528
0.0574198601488755
0.0617847815909834
0.0579943742749269
0.06677153737907
0.0409041045629574
0.0810055620249779
0.0547784109757461
0.0607036354750244
0.0447886587903467
0.0752251716839902
0.0502930433021089
0.070022367952392
0.0483858831437411
0.0722872359643258
0.0434268340981339
0.0516336520735869
0.0869608256542094
0.0643959928016835
0.0485789477639631
0.0801077043034777
0.0519963481792444
0.0656176522957353
0.05123483526995
0.0693149969418265
0.0546193792726656
0.0698770539641495
0.0404218339043847
0.0847822476450628
0.0554783478895709
0.0724823193098591
0.0511406519469267
0.0709782062355027
0.0558425459323528
0.0742268148553811
0.0602264992194384
0.0668729031221444
0.0607977034906043
0.061585201663129
0.0540144213500381
0.0974392621168397
0.0225230444288324
0.0907742199459334
0.0891786519538938
0.0721811993397629
0.0613128955872849
0.0746308751150725
0.0690993337176955
0.0695799662465264
0.0704221823447126
0.0750573800411742
0.0682184996902237
0.0881818245692081
0.0684015437529618
0.0770062114813846
0.0565020832821291
0.0958750907178156
0.10257849428105
0.0969352351766177
0.0902124649224185
0.0556877480720195
0.0847670211278627
0.101000181392487
0.0748159533903554
0.125644421023376
0.069409440610849
0.105314388460492
0.0823249683750868
0.111625165024857
0.087166247651892
0.109037931127454
0.0803027601616517
0.110949057454006
0.0886852525368888
0.114626931047954
0.0883634958930534
0.0940658209424906
0.122165774418201
0.119757752821705
0.0915653971329238
0.121532927139783
0.0863923212739459
0.146296539095735
0.103313914583187
0.152894987132633
0.12730465260393
0.129730934988591
0.151075201804771
0.121142834023359
0.12916527731851
0.127545802915964
0.127956457841732
0.136299727781099
0.132278575423849
0.148498583696488
0.137679541451223
0.146570976977651
0.143606461666276
0.144641245067028
0.146255416806164
0.153341598275097
0.164191292170302
0.153551096541765
0.154864418496396
0.148025972127434
0.146864509507789
0.210687855631188
0.191216907115467
0.176721523251079
0.169501841022561
0.191632192711773
0.159038256510391
0.190745808701858
0.177502761904197
0.195878706797489
0.159993287699473
0.234570123119309
0.186644941783963
0.213589510703842
0.206820098164418
0.19458077187825
0.203132989887099
0.211941367288557
0.209292249002829
0.240245879153864
0.211364142585256
0.219368553984626
0.228340335983531
0.247882929290345
0.221706069668854
0.259825579053089
0.226348113582335
0.247434374857565
0.217588701324842
0.255249316408429
0.22145275373546
0.25972057182673
0.240876067325903
0.276269337846181
0.262902038538036
0.287817045470533
0.247660314710001
0.28728063606843
0.274776830298862
0.285100601585701
0.296005500447401
0.286856027889949
0.286105290007887
0.27996274409562
0.298375239448278
0.312041708933338
0.274883698036689
0.338548364565348
0.302200705664453
0.324476811794931
0.311363482645709
0.32875130459488
0.299053443775103
0.334618029839893
0.315126224293699
0.360927072715871
0.319231731470306
0.364226025812341
0.330578790455837
0.358058108058737
0.33990195491742
0.366941762048676
0.367000062498541
0.375303797874379
0.358620964168275
0.391539977548384
0.375211661647425
0.420909687421523
0.385716405325329
0.417613098801948
0.371387113900724
0.413839354275989
0.385591627200413
0.425618196268568
0.397216048693713
0.435819899923154
0.401589414081052
0.436872205211008
0.427139214109916
0.460813648277944
0.422788945259127
0.466751895971146
0.4481812762668
0.478147836954824
0.454085046995652
0.462898111475422
0.462360042180576
0.507794727791486
0.457512886356051
0.503897100875736
0.466547289720589
0.512267276827167
0.468765699102827
0.529979008844923
0.489184965495645
0.514889244298579
0.491897182365152
0.551150669436206
0.509397593048433
0.546883987058974
0.517143512277672
0.540264334249178
0.527894529620136
0.570379231228967
0.539282666680136
0.595962620036974
0.539534609526838
0.579324998831909
0.555078353838997
0.628790699842475
0.555702298012855
0.604381306069601
0.566922605999848
0.626745666257942
0.589148209945047
0.645520390993384
0.579720212110136
0.638294455988104
0.584028544966978
0.633905343072643
0.600324917896387
0.665387152805656
0.584294216016316
0.681130425024085
0.619436556687199
0.701267396233072
0.612633113346637
0.71906580614056
0.645396455903746
0.746201420972798
0.661392493276026
0.681666285195544
0.659720238191141
0.723082474901429
0.668091020802304
0.719425345838427
0.688086481712081
0.769021264556853
0.682820936011503
0.766908836442371
0.705887894678988
0.794452227621662
0.696204445556277
0.784686441980801
0.723904980990048
0.784192582607932
0.746226673302599
0.817298394190692
0.736128726063967
0.818828142144537
0.785438818060082
0.814686042413221
0.757771043797925
0.820919928060246
0.814729956001327
0.866214152479283
0.777125543729493
0.839663774312898
0.810820639110718
0.885705835031333
0.795976613667967
0.813486438438643
0.858903879824026
0.872300173785659
0.86827844818949
0.91120401799151
0.84787840397461
0.880206089480775
0.823839674805662
0.90389656102434
0.834741140847048
0.949408173145864
0.874411823296516
0.9536391800744
0.857686901416743
0.946035610066428
0.907002200940377
0.967658628709734
0.900895745790469
1.02082549458237
0.912691548510824
1.02396708244373
0.917690677332207
0.977670876418618
0.952527824167923
1.0192945176637
0.960583918156744
1.06585661257967
0.953926807127703
1.05598038890394
0.930926352701168
1.04750914668177
1.00177955092476
1.05363856496541
1.01207416625068
1.05866723532947
0.983957974769925
1.11340042953853
0.956118657725839
1.12750168187982
0.963500984789496
1.14456831599533
1.0550537912756
1.15847324626096
1.0096149859391
1.11839209113932
1.05705645862857
1.05094861935478
1.0399179202235
1.18655819358927
1.0313453383318
1.15372628268652
1.0394127531566
1.09040473632375
0.973154710421125
1.17221217339162
1.10547019287213
1.15716871450426
1.08001389986893
1.215543504381
1.04439849084659
1.17528659286701
1.0632749578266
1.24992561511979
1.03583922669669
1.18291092894711
1.14639593980306
1.32997117941503
1.17055377510113
1.29062105614616
1.25583674789991
1.25056679744085
1.12036538924624
1.18650943650441
1.22690162068363
1.28279548150703
1.15340603556995
1.30336411198233
1.1453651344954
1.28055027602672
1.11634031436646
1.24255425206172
1.18537346608911
1.26866758745521
1.13024383541689
1.32553646715606
1.219145223588
1.35872975122103
1.23196510478485
1.33300118885723
1.18215254877139
1.39627954604314
1.22119352586105
1.31331539223985
1.20000944215973
1.34056698029378
1.233443361864
1.29513818562076
1.284634908167
1.36593540590847
1.29169778035789
1.36227122840019
1.24271775549891
1.31543025973693
1.33516424025398
1.39388793806592
1.2818991999782
1.47051537188171
1.35735705259131
1.44858082684179
1.35138058190545
1.42679816703762
1.26359234152411
1.37554110524299
1.25659536862328
1.37113916329313
1.31193658626556
1.4303685028759
1.23628924416679
1.35514787260522
1.31709681459213
1.34785126025875
1.24660104191033
1.49729888530936
1.3383420614541
1.51572634684245
1.34517078213129
1.55396251860686
1.32784517657494
1.42751517056946
1.28995870610656
1.50264874601574
1.29890867412928
1.44456665485333
1.38822191461845
1.52874252795318
1.30780723423741
1.53993949968779
1.33023864832841
1.51802235891174
1.2469574417499
1.47102170798669
1.4578236702421
1.54220965779206
1.35938953196603
1.4065760979018
1.36927871524662
1.59813925442796
1.30538989838203
1.4595002216034
1.34596739294771
1.52274824047304
1.28253025657942
1.44930115445267
1.42472687750983
1.47591276167582
1.44843281159973
1.63805327382743
1.24834567948159
1.4985158966858
1.4381634698319
1.62855642702303
1.35274079591547
1.42850814755301
1.46045998151771
1.6198061918499
1.34234081351273
1.65676936041315
1.5236442905014
1.50771051700591
1.46361271074504
1.57239535312312
1.42499622694998
1.54527082296288
1.30905522233785
1.54030874965105
1.48779410225482
1.52973060064023
1.40714234518673
1.47087622874649
1.41583841346994
1.60795057224171
1.33605402050566
1.56020122388505
1.36846387344528
1.43271540871177
1.46860796762829
1.5426422601261
1.45636990264162
1.40962436257279
1.51943801049144
1.47682280144592
1.39790116400347
1.70754205888696
1.40040113902811
1.46687097010233
1.43049771338597
1.54002623076408
1.43123062275604
1.5664331247305
1.43478166911681
1.53673822827483
1.3290755734258
1.45603580647661
1.39174045161573
1.50272287658867
1.39454600717807
1.64620480855886
1.38197518294794
1.5809750932943
1.57994480623927
1.51107844599137
1.41116452551611
1.43945793860046
1.47404324619008
1.57149601295932
1.35303100696267
1.59806596901077
1.45685311204891
1.42027648113556
1.38032287859922
1.60482842044907
1.38291999068081
1.62781125310339
1.45181780082995
1.5834269086699
1.43003808581832
1.53722046262755
1.40800413272281
1.47532041823504
1.39625033521766
1.58220531074045
1.35809471215239
1.46434842148475
1.41263601025133
1.41736389555867
1.46672713400139
1.4825114866842
1.3668654159753
1.4835903405207
1.33312540678807
1.51730421261552
1.39745862711655
1.43049743668895
1.31671745394262
1.60182742714006
1.35712872999591
1.43364317903442
1.38107618744184
1.50534329966004
1.29474119362955
1.47554516104689
1.34469145093272
1.43724778244487
1.3792527240828
1.50890904263582
1.28951687389898
1.42953687040651
1.36879879032378
1.48398571107887
1.41074767588746
1.46977886148531
1.3501238987113
1.50034959199072
1.38183976519719
1.3967221253622
1.36585075157618
1.40498503770622
1.28923432218348
1.45912557853997
1.3574995573037
1.38479521305071
1.24576440147943
1.3885089474335
1.32173336781287
1.36722431282542
1.32624326174868
1.37814021341961
1.29210902869631
1.43458372918434
1.2761844303664
1.44248381052313
1.30714794824318
1.32208731630544
1.20313822538096
1.36269745473195
1.3767045149927
1.32811454881924
1.23763237777818
1.43530229439741
1.25762327309608
1.34922155798209
1.26225512684128
1.36246599321838
1.29378246359338
1.3391129230301
1.25054820325256
1.31770334086789
1.22104122079168
1.27872364553935
1.27178260898247
1.35360963503956
1.17605611953449
1.32184443737168
1.2126210850039
1.27968412541303
1.23571219770833
1.26150652472492
1.16098050595277
1.28320787901763
1.17058842961769
1.25257887930046
1.16522054926022
1.22577362730315
1.23565245316421
1.23323447844182
1.1546273102482
1.18284643960139
1.14398473721292
1.16571408604688
1.14977074414
1.23537282097479
1.15957091078618
1.12538570589629
1.14298854139004
1.19500873891606
1.09783247216315
1.15717646864008
1.09759362018243
1.19012226312224
1.08457643399453
1.18173025606942
1.09650213387296
1.08180108332805
1.08821781933702
1.1102814157472
1.07728770526963
1.11558960535218
1.03098387652305
1.07562547857369
1.05544732673771
1.09194591808624
1.03409383442285
1.11446762315233
1.06016384216195
1.11539302824922
1.04192901727137
1.07962858600008
1.04378428376617
1.06306547533898
1.06146525341259
1.04416293498304
1.00143450517708
1.02405688912203
0.961292952075843
1.06516397343929
0.9686999418683
1.01134909310796
0.987887827986637
1.02679689625893
0.973118937001979
1.02728941574094
0.954068118622393
0.990369935430249
0.952628193830086
0.958997819589785
0.922140386823512
0.951630226515401
0.929980556392841
0.989878564262701
0.931282592439955
0.967551785828807
0.912899826542409
0.9585164139083
0.918122080949093
0.969266942287895
0.919866637367049
0.922637206493888
0.889568815222152
0.912368801381264
0.900859350466272
0.909263761310154
0.871564064400326
0.900903463085721
0.881293087817307
0.903199015465021
0.846170477501912
0.865922889399819
0.833910286701174
0.881951122210431
0.846063670051393
0.853347223327956
0.841465880925408
0.862086391796131
0.821411715006227
0.851046735345188
0.814198669328895
0.849346013332243
0.79267017057517
0.828133485332396
0.80351897445041
0.800651260036632
0.805826131344861
0.839329881456289
0.782701066665282
0.80662078767207
0.789648915530644
0.800036854605798
0.759573499219511
0.779375532264671
0.764363112960442
0.778441176464091
0.739866746357658
0.778626863095073
0.748320424808018
0.769442744555143
0.733287900432436
0.760881956936752
0.743047979006985
0.748113629076854
0.718728811922891
0.746485062974025
0.723330297328483
0.754594032679076
0.698980902041418
0.740088674217046
0.70113517461353
0.724423188651285
0.702469076980049
0.718637528811058
0.685588345856118
0.725701307568309
0.687114398416693
0.707537612531509
0.677074432789756
0.719462013491408
0.677764200200834
0.679853448007207
0.664991802487891
0.686557901405224
0.668272690408776
0.678868701620771
0.65274651746608
0.6660893306756
0.646879143263987
0.658559446626866
0.634553005548324
0.672063310216683
0.619973484234235
0.650785724205985
0.642606011658845
0.655912759628192
0.635029440693205
0.634989739005855
0.611786105176191
0.631955485430715
0.61353557144634
0.61165974836152
0.611474247071179
0.631597535567827
0.597730922779561
0.603250758059728
0.595278276387692
0.620524082404312
0.606013241119549
0.60062906919587
0.592903669555901
0.597638933047359
0.573567240560233
0.592734138048701
0.559112634160243
0.576554305238913
0.559967007278141
0.582145222359644
0.561168138123742
0.574544139161663
0.561190597892322
0.571982084323595
0.541972867393617
0.55096665871562
0.546028971885358
0.55284773802629
0.550491574170977
0.547664622461794
0.532891343630428
0.546800237646665
0.526278022640312
0.542049761755513
0.532050784199251
0.537813098523464
0.524767578391539
0.534758088934259
0.530308188332133
0.526532665578016
0.510785120859593
0.514066624098878
0.503984662228392
0.502926517302245
0.499926096398966
0.516450550125265
0.506261735226557
0.504380752494643
0.487111983516542
0.494950496232422
0.493894596619101
0.507015166339875
0.490619904017001
0.489245984096188
0.482413912762056
0.499417046297128
0.48284967486607
0.493184557629886
0.4704405560492
0.483989689301555
0.477121150101042
0.491007802849246
0.478208735580376
0.4903700990192
0.471547127464112
0.477701795085651
0.477350994812547
0.480196791589276
0.465461996124452
0.479923878196428
0.469006860714225
0.477293474334621
0.465783382201058
0.481710614343908
0.474951914288607
0.474490764632102
0.468411414618056
0.482821709524089
0.47308213550715
0.483848849778506
0.463861290728696
0.484228593006417
0.474624322045901
0.489280665556431
0.486492049312512
0.487067284074815
0.478757309429254
0.496012468703538
0.481828631435911
0.49626882484607
0.490486251908748
0.499502705913109
0.482619795427321
0.505793630129053
0.486607168332767
0.50352534141928
0.498305191769904
0.518721805313887
0.50309513343661
0.517687696887645
0.507473210258988
0.5181755135433
0.513737802189011
0.523677854555677
0.516511726315886
0.525105110724059
0.514056053158735
0.538828456962787
0.525922814819588
0.547310340563073
0.539703732684444
0.542846966644132
0.529509424424781
0.552991087656703
0.538447442516301
0.556848516266761
0.552153277598347
0.557032869285216
0.54936129978866
0.561102809379039
0.557992551146232
0.567738943920581
0.558333543693851
0.57093248257288
0.567548501080444
0.590631200044381
0.568076177446788
0.577894636410366
0.576821975690881
0.601148958903498
0.593358024589122
0.61290444144858
0.596436705737295
0.614446849171464
0.604225541849756
0.614720692223067
0.62312719084627
0.624995145184494
0.602165462477255
0.629560435862524
0.604473789090773
0.623937496118625
0.612826751300824
0.638505347730195
0.613195840302781
0.623955040063372
0.612420573580338
0.632267302614666
0.60498522058073
0.625560332736972
0.603638671270813
0.623771281262559
0.608560180440968
0.630363895281563
0.603328549912197
0.615789542045669
0.592775203399983
0.623205788148597
0.604985403145093
0.617524968946756
0.616501778480723
0.625424432277854
0.602827064166897
0.614094276525275
0.61305657444526
0.619293062189054
0.609590906646468
0.625448274202036
0.601720230405253
0.62812479209752
0.604886256830137
0.616589380035004
0.605695922223635
0.627898938918059
0.614309909616194
0.624640107506761
0.601845229316862
0.624464878541197
0.613842717197931
0.631003531537192
0.609790319525452
0.621098184157079
0.609333918700388
0.626665776696714
0.605689412174946
0.617772251654405
0.599913504234282
0.616562288848574
0.621092609079577
0.622845364868318
0.590125105975081
0.613715957512378
0.605447370690825
0.611583606633948
0.601629982355379
0.615967640246778
0.599348711637248
0.610821568653303
0.579048500778853
0.598350632511761
0.586574567454963
0.600088546121869
0.571774804548345
0.593686747731697
0.574926157907865
0.594779734771767
0.576543307677703
0.577987121225472
0.56567032511891
0.567993004114464
0.556161421990662
0.572310628501005
0.545492488932693
0.55743849208219
0.554054093518198
0.543617047632161
0.541814139905796
0.55036095540233
0.525134657266144
0.537143002224637
0.521222724026126
0.528181465987829
0.510204795379884
0.518524752420467
0.503267022115894
0.511655557327399
0.501710559116618
0.507598880294436
0.502503672902402
0.501190285573699
0.487454564085572
0.48846449471428
0.478056345646808
0.495602561057674
0.474257440646275
0.477440776118997
0.463050090338433
0.478108342133727
0.465159880624022
0.46334769691445
0.457579885059092
0.462836574676904
0.450725309259133
0.455414980274762
0.450616496093394
0.456091264884184
0.442096214517665
0.455129896819598
0.444541378653035
0.441071471228428
0.437046939520714
0.440055411573771
0.431142037576471
0.443425168799837
0.427682058527607
0.435110572051493
0.422682787993009
0.435502008731406
0.425627892916484
0.431344444889454
0.426340895323297
0.426367813355071
0.422781144859719
0.428794816531753
0.413125305366183
0.429044378585027
0.405508952961711
0.410386204104189
0.411134340114814
0.411024908182241
0.399860239406949
0.408118665005786
0.400726843269465
0.407153082624588
0.392591981288063
0.409296942139385
0.396064410203078
0.40728265855811
0.393972755724174
0.400513645837852
0.387023525950517
0.400447354352629
0.379266524683946
0.388031584845424
0.38415908430478
0.391483844547017
0.381873137058244
0.384856000232622
0.376519997619007
0.389718677621258
0.378325552856642
0.380737954690894
0.377995363958732
0.382734339781909
0.37644651506463
0.377861081777272
0.367801311137406
0.381851846468264
0.362602907825363
0.371613650545434
0.37370968146841
0.377510977667568
0.36525569307346
0.373001762955908
0.364466886092442
0.371887706165002
0.358546729787284
0.361823545489197
0.357504966053092
0.366497906795332
0.361675635954303
0.367228501370937
0.358119212292595
0.367603020541088
0.353904779816134
0.36038720723269
0.355869688546403
0.359513543986452
0.351759308352353
0.356826431878864
0.354355449850117
0.358051519935529
0.34745768101606
0.357644117956586
0.346759755658929
0.347604293667995
0.339262892502071
0.351550486869235
0.338805606801395
0.348438631074259
0.341406385260275
0.350559816207109
0.338760416873902
0.347595849644165
0.341189994335051
0.343095617575757
0.33446533960721
0.344911273726561
0.336598030860539
0.348054258608286
0.335930431138423
0.3436064506043
0.333823600019248
0.343383354082771
0.340452731880393
0.34314438557511
0.329658698067856
0.336948594003082
0.331777174585152
0.339608873055214
0.332685993898155
0.337666719992806
0.330774032712769
0.336623978844223
0.334004258873774
0.340560041034631
0.332847217934375
0.338617063668231
0.329100989688217
0.336003803930117
0.331353004750127
0.335275745918025
0.325540133921233
0.331078761490428
0.328040204409787
0.332104915726798
0.329844036313067
0.333543870333893
0.32752574185619
0.330712883971616
0.318817574651756
0.33105356735768
0.324172338706628
0.325689562508892
0.320769461183438
0.327706054384591
0.31632588924703
0.322751642866313
0.318047255172022
0.320220542482288
0.31251889088124
0.32115584268379
0.315528791823286
0.324172862015143
0.312713277530623
0.315176363879218
0.31129355603606
0.32358427522031
0.314608472302291
0.313743094828216
0.310601821224225
0.312516284309657
0.303747368193717
0.311733336354771
0.304904700316458
0.315390814206545
0.302093262556229
0.310803037371528
0.303791172937173
0.306749948186147
0.302594542171055
0.308875446324375
0.304264825943983
0.304889077284354
0.299381679006596
0.303774399864007
0.296841495727372
0.300400505490423
0.2979271753914
0.307015083803904
0.298570614724258
0.301281239401747
0.293360021271405
0.300462598212959
0.293136564628208
0.29712772555292
0.28825530229375
0.297149912833114
0.288562791551572
0.290740962429825
0.284812910658454
0.289698948207281
0.28086876387605
0.290337191735488
0.283140545243604
0.285543540637339
0.281877358304409
0.287033801208866
0.282341789906895
0.284078362916837
0.277967924404029
0.281800046075845
0.277906148041112
0.280357324439677
0.273427555178344
0.283600153277466
0.27395495281712
0.272832322816526
0.274315475011605
0.275777846840882
0.26533557604329
0.273232578830849
0.268718582015086
0.273230425044542
0.264295470243908
0.269159840556265
0.261162040365298
0.263786166900803
0.256731150040021
0.269276522620495
0.263509481468032
0.263512585670418
0.256769109924678
0.262508260653485
0.258642633471689
0.259696590214836
0.253283712547857
0.260507663093349
0.254851576347975
0.258031686640633
0.251605475157698
0.25410911386912
0.244922239992105
0.254176117658921
0.246817201387305
0.255904585914769
0.244864014633863
0.25230385996394
0.245034606227249
0.246799221872488
0.243776569207676
0.24719920839361
0.245703262016856
0.24508640129812
0.239802286731686
0.24730339372831
0.240111941875739
0.244175063602926
0.240694799312798
0.240441365516318
0.235622028045939
0.238946208167715
0.235604153744681
0.241584911248106
0.234812266374057
0.236377066273277
0.2266663046816
0.234591577109173
0.230478090180301
0.233623312654201
0.229474491905472
0.239067106431257
0.232192650331277
0.230354751160548
0.228519954444424
0.229861002982723
0.223562154614477
0.233338330025367
0.225699040433166
0.227537955143762
0.225559524840636
0.225970749401296
0.222595419757663
0.22508757393129
0.219268673285592
0.222355878518969
0.215994125209192
0.224074349806331
0.217975768334919
0.223934535022768
0.21753827098139
0.217665010808761
0.213664316332626
0.222592451300895
0.216500321153788
0.21958018295839
0.214991825573019
0.218331120257874
0.215022419825279
0.217205732260209
0.213346731827655
0.214778875567077
0.214331024484575
0.217727864290627
0.210343203801529
0.215826138364139
0.208332350612844
0.215102613641632
0.210879278236435
0.211922805119105
0.209367128445255
0.21208019407592
0.207529244506214
0.209125160587229
0.206951601599646
0.210923285410901
0.209363779678438
0.20927371828519
0.203274459772159
0.210993631114475
0.204882700236996
0.210708290223074
0.207669036493395
0.206938847211725
0.205087342627554
0.20712444778908
0.196732377581592
0.206401922678773
0.199793742977225
0.20498680464248
0.199550154144204
0.206002461791271
0.198511149993164
0.202450863229544
0.196479723099248
0.203710942977054
0.195640040370224
0.2030868263182
0.195332955722148
0.200379243969965
0.199549485858114
0.199918516809651
0.193315157305781
0.202407462069672
0.194736598721092
0.196145788398604
0.191985787763719
0.198020926102428
0.196038785349901
0.200969584774238
0.190123340921885
0.194074643646172
0.192408406976183
0.199107808625638
0.190973209914751
0.192125459111597
0.187793642335951
0.190943343315345
0.185167353760664
0.190900169852215
0.188969395562998
0.189411564129325
0.190804476866344
0.191495552576392
0.188760814711981
0.189472711341346
0.182533555916649
0.192114227628775
0.18544967637809
0.189405105173752
0.187229100972824
0.187759079046148
0.182675294493513
0.187936391904708
0.182410512521946
0.184790431666069
0.183353094224481
0.187732523912657
0.181166384190668
0.186031418452464
0.179588727308404
0.183178829165408
0.181240916572248
0.184193541044725
0.179818763204239
0.183918872963145
0.178038917500495
0.181149957330538
0.178076776584105
0.182364991659891
0.177747731188038
0.180092364588438
0.178859125533268
0.178885058246223
0.17340915916399
0.178595297692516
0.172584457878169
0.17655786082589
0.173485556120668
0.177284756377532
0.171993007238363
0.172822114068213
0.1720833178975
0.175794735253408
0.170627837795227
0.173531624999586
0.169724803183703
0.169682021893212
0.163601993257622
0.171720734219972
0.167512103262479
0.171861460696664
0.164711041606531
0.167535929123494
0.162289123023876
0.166811761237566
0.160608005034702
0.165981045266687
0.159347839288293
0.162095647860031
0.158624396026543
0.163971750000543
0.162268547109064
0.163804097297968
0.156033255722893
0.16144095054675
0.158279573596583
0.16098179851988
0.155228804521175
0.161252056548424
0.155751498694725
0.160391041802844
0.15539563414618
0.157402701020484
0.151925661768927
0.157436844984001
0.152291658175682
0.155235528075243
0.1511024644851
0.154393392241387
0.14875060034537
0.152574237401547
0.149853814180838
0.149600530329579
0.146644646259021
0.149789420719551
0.143655515395899
0.151868560953863
0.148003178168423
0.150641671831058
0.143294591792797
0.150112186629558
0.142841483151118
0.146940633815435
0.141733963554987
0.143278691003706
0.140909547690526
0.146162427986032
0.138572717415754
0.143145860710602
0.138540624689866
0.142219761270105
0.13876603547938
0.144421388184271
0.138717619092132
0.143787587839135
0.135682619270825
0.14262671817572
0.133742524852479
0.139033797302307
0.136272813756418
0.141983444240711
0.135679033726742
0.136570354303723
0.131251690555583
0.139668796929573
0.13148466185515
0.135850006051569
0.131546584333883
0.134147332776127
0.1302878687744
0.135687652133987
0.129151202360994
0.132087466658738
0.129587532974428
0.132012812642884
0.130822025067067
0.131938640666826
0.127344762974607
0.130542017931694
0.124681123666697
0.130573353781816
0.12573097863821
0.13148802045008
0.124967602888077
0.128581697702081
0.128097416347236
0.133251001582838
0.124209744530133
0.129616023277751
0.126823882169238
0.127688074891501
0.124530129150888
0.130444134253716
0.122924274613136
0.127233905273105
0.122318877312123
0.129753273379942
0.123354510193446
0.126636752044747
0.120455426862614
0.125044842874157
0.121283147480389
0.126710404469745
0.12443630684115
0.12953570411262
0.126719623961272
0.130033118555186
0.118080471722458
0.128322557975101
0.112844904202643
0.121667602955057
0.119560032798814
0.132029622586958
0.122193448201298
0.124587147359598
0.1147599969328
0.124142139043289
0.1170315079376
0.123587261671331
0.113715826441824
0.12830522599363
0.123711866687742
0.123059419476769
0.110747793787604
0.123362396460531
0.114232421501045
0.130165873060638
0.116740493438637
0.130506250574552
0.118156959290114
0.12688454128015
0.108540992097242
0.125297376591126
0.114505392795303
0.120394658397336
0.115230872134919
0.118843106258199
0.113033873799474
0.123554802337414
0.113921783832191
0.124846506041396
0.11973864899714
0.129399089178746
0.123199850060215
0.12672619451995
0.11702373326661
0.119296200066175
0.11863986589936
0.114698321233576
0.123485280172821
0.115095365791568
0.129671634257213
0.100552011701085
0.124323758497627
0.0972815928964901
0.137800675218335
0.0921561276693609
0.134387183340996
0.0799813257973038
0.147821355017698
0.0882827098579474
0.145477225660568
0.0768047162405096
0.150784043548062
0.0844025206912641
0.139131162937455
0.0899728412358534
0.134358568844858
0.0964784455867551
0.1243355672738
0.109649887310037
0.107431060987752
0.117789047166992
0.104935554208023
0.121280148795067
0.106022766924211
0.11957219771229
0.105393170582872
0.116229341562566
0.114142657092567
0.108214576405311
0.112135750565994
0.10730872491251
0.111211703882693
0.10789195726487
0.112335863303097
0.109596464854801
0.105467795250364
0.10910397198246
0.108172492193629
0.109388307697203
0.109130741992138
0.107724582036293
0.10984008656278
0.109652192287199
0.109118364564637
0.108547713571251
0.109339244547758
0.110606678365275
0.108065050838953
0.108013328866581
0.108371127849509
0.108661983233039
0.111064800504272
0.110671509867518
0.109868982708924
0.107369909946373
0.106924329645294
0.111368162263217
0.108148060898222
0.109987493584151
0.109787929825839
0.109546082141748
0.106323898828345
0.111429382995458
0.109085074520854
0.10902028845303
0.106273106421442
0.108547467763983
0.108707388561593
0.108886843975282
0.107350463923023
0.10697963554696
0.1109252147562
0.108737676917474
0.110519467498958
0.109664950675186
0.110969311599073
0.111132427242988
0.107756890480281
0.112213730105258
0.110766460901759
0.10947047530089
0.109258796544027
0.11049707759788
0.106886016713852
0.107573894429883
0.105006217729141
0.10836675580812
0.108048226334357
0.10975634256393
0.109272867499266
0.11051552062023
0.108958521138779
0.111925765585382
0.10733050022679
0.108161260285054
0.107440304119889
0.110964846957038
0.105501389533707
0.111268995121589
0.106772752313179
0.108469546399897
0.107338035388391
0.109115204369489
0.108993640909423
0.111112286748902
0.110381318666768
0.113541155209928
0.110728719339244
0.110369147643905
0.107929876544045
0.110986580663688
0.107781369752217
0.108646546174155
0.106975941199149
0.109765191740045
0.107118841282195
0.110866822512699
0.109536448085275
0.110881967095626
0.108596827583373
0.111993961755215
0.112189826264225
0.114435602345834
0.110460112947327
0.111439398401896
0.108944506536864
0.113742991909956
0.111730949491775
0.112797074624709
0.110893939910327
0.116193751025408
0.110059782235848
0.111065421781957
0.110046505161962
0.114359688707356
0.112044639574628
0.113868341976586
0.111945007291368
0.117069131657783
0.113316139736859
0.113463856317354
0.113140666631707
0.114929962529393
0.112353735326343
0.113539473930502
0.113754247110478
0.113271569465903
0.110920290641609
0.11488631822802
0.111101477444702
0.115148427764716
0.112779546197603
0.113053665469882
0.114064255775687
0.11512378166023
0.113161068115577
0.116119063672132
0.116280247444107
0.115297358419922
0.113537575165661
0.114171103565505
0.113040790920457
0.117117602907736
0.115675562071101
0.115021481486494
0.112591990632276
0.1145978897256
0.113329085999998
0.115229536449744
0.114335130597352
0.119096444982415
0.116723538080574
0.118233759648785
0.114881369870819
0.118652418041315
0.118171284420883
0.119870584822353
0.117682500378143
0.118909432701726
0.115282920625704
0.119416453060629
0.114411277915012
0.118287558896335
0.118283971189893
0.118583262619728
0.115241893250061
0.119162118572271
0.118892351439653
0.121020221577149
0.116540478029035
0.118844510870424
0.118079219376397
0.119259909732626
0.1168869592086
0.117319509458977
0.115250359460375
0.117147476487461
0.11776571353583
0.121381873505266
0.117139006136271
0.11721945668452
0.118384760107783
0.119853353904018
0.117048995648813
0.118493899940055
0.116821693334577
0.116958162617012
0.11327193739394
0.117131249057752
0.115627180705856
0.112193624718769
0.112106779687307
0.11323795850808
0.110510134823178
0.114859697399673
0.110944599161167
0.114965623165611
0.111469413687004
0.114600277624932
0.111646200991792
0.114225288759577
0.110015872894107
0.113798079932545
0.112654058138741
0.113367443875717
0.11157929697261
0.113576289711015
0.111739602214718
0.113543214166365
0.111279663846824
0.113433198134711
0.110522548755004
0.112198510296441
0.107585608593092
0.112663024283431
0.110944401994415
0.111608836373887
0.11142556801853
0.111539560614573
0.110124772156039
0.112428268044629
0.10985016087693
0.112502654123195
0.106387079320351
0.109197934554547
0.107129153243283
0.110232953496463
0.11033894769712
0.111173859563114
0.110223920046587
0.110270737293127
0.108230649642567
0.111351310167222
0.107999807237635
0.108636171282341
0.107457337739173
0.109090730237922
0.108330070798798
0.109422632548946
0.108166275094792
0.109323109154749
0.103684087815841
0.107642100381623
0.105488499853734
0.108595883526424
0.105946684269334
0.108160146329171
0.105901904313142
0.108867424333359
0.106887035372602
0.107855973229352
0.105123795695633
0.107998832860362
0.106812783839481
0.106455867410241
0.107284224345205
0.109306357977045
0.104043377466928
0.106703200404905
0.104620020772145
0.10857287784767
0.107266653913037
0.106555185459862
0.104194526552222
0.107680708432433
0.103091778446218
0.1063174427429
0.102293665063902
0.104181555921583
0.105150397620444
0.106742746430109
0.105857145965468
0.105738349517904
0.105045316177506
0.106698857293406
0.103960980459208
0.1054018581105
0.104089725912724
0.103612491570675
0.102073612935173
0.101762429123563
0.100757658805736
0.101470812018298
0.101062726233118
0.103831254164204
0.0994265432218785
0.104763045872835
0.100943752299026
0.100954940551888
0.0984094046496553
0.10245263620727
0.102138015090025
0.102835348072361
0.0986324630396882
0.100437628476524
0.0991551349880982
0.0994233048117703
0.0980998152373206
0.102011578627707
0.100110888748241
0.100108776958126
0.0987818672105476
0.0956289319051496
0.096728435369286
0.0961838504609527
0.0962687295510069
0.0974499221200094
0.0959025701267552
0.097078194451252
0.0947069697441776
0.0959068241246864
0.0952469748536189
0.0920310941774688
0.0921639229865232
0.0976180717893183
0.0931812340391538
0.0950461002021074
0.0898458325429002
0.0946369266433754
0.0914078679755167
0.092689464540211
0.0888141785735714
0.0925504170190764
0.0885332272079165
0.0922074045303814
0.089091346395499
0.0924232526235708
0.0887144086649691
0.0903447589710469
0.0885468265250583
0.0901868672897505
0.0864383639588781
0.0916592930471022
0.0869331180080481
0.08867321001236
0.0858498246091997
0.0899814463799537
0.0879511244465634
0.0900163938583923
0.086855825470173
0.0883228270125056
0.0820603025026293
0.0914352231036337
0.0885647373133247
0.086451471062605
0.0855214447097723
0.085317407253522
0.0848634862107001
0.0866888598197638
0.0827216957904395
0.0846235709866232
0.085153626649296
0.0876967803316003
0.0839497312218354
0.0857265716245129
0.083650382529109
0.0826469283608445
0.0841185235436687
0.084646289509441
0.0807754150811894
0.0844110180498641
0.0842994058222682
0.0843971898868304
0.0805657279230381
0.0850105673397767
0.081778659929902
0.0814438074210537
0.0818972812641468
0.0841026161137172
0.0847059762811345
0.0815711365299713
0.0827971679137944
0.0796879549314582
0.0803155891097931
0.0812951032336796
0.0832243024354958
0.083370096638485
0.0801871598584086
0.0814322283671989
0.0799001453654381
0.0816259698098458
0.0796875879895588
0.0821244402293514
0.0796253936143442
0.0796890949285204
0.0798533662045688
0.0793327349806589
0.0784812987759076
0.0809903090494956
0.0773087486595524
0.0761354554334409
0.080150217950624
0.0786914821228949
0.07898021765991
0.0763770108837296
0.0845577810227742
0.0817096075034813
0.0750774127069333
0.0808306708522409
0.0755046272839665
0.0819960781348939
0.0757630672628533
0.0757722025577885
0.0770362093593885
0.0818658768332772
0.0765618794994658
0.0782145504618319
0.0762744108753244
0.0811583761156201
0.077703888784288
0.0784238840144175
0.0756452882750694
0.0794716266134414
0.0745207226678465
0.0770999940564865
0.0744066104758506
0.0806824417087174
0.0800138146392917
0.0776919820955494
0.0759382736602289
0.0759654166524571
0.0762833669477382
0.0910093213555985
0.0714540852451994
0.0809540375950293
0.0741820737221693
0.081351760493882
0.0722179286158188
0.0791727180146257
0.071351531245775
0.081049447630404
0.0739001092453112
0.0741506566675443
0.0755365166399939
0.075881924818577
0.0762948086352977
0.0777546787903781
0.0746640727081426
0.0777045745235746
0.0721482621266736
0.0760515445693372
0.0755931926633509
0.0791714209680084
0.0740225216728115
0.078673254014498
0.0723664539644455
0.0812060740308228
0.07594666935699
0.0776368634477294
0.0716902212626054
0.0774066960905523
0.0750252831104322
0.082522552491818
0.0766181175627988
0.0744922022638499
0.0777005689876727
0.0754730793630177
0.0767755220184683
0.0757168621733641
0.0766833302442109
0.0761292535267605
0.0740023090891586
0.0762015949176735
0.0760020981892488
0.0754976027003296
0.0757541896571519
0.0767682287799915
0.0761989766916493
0.076854214302046
0.0775692850224295
0.078190834695636
0.0743434767236527
0.0773796875671335
0.0695593124295591
0.0901564676611557
0.0759991543278296
0.0844604258776071
0.0738842512467612
0.0767497934889591
0.0734424539579257
0.0769970016413058
0.0727389549740719
0.0777494090005469
0.0729996472840551
0.0774054120311782
0.0783493440313257
0.0777028847389894
0.0730036978055092
0.0759978850253482
0.0759893745022559
0.0772063322906172
0.0750913561230349
0.0757786915011403
0.0763868605956733
0.0765190854421524
0.0774171825491709
0.0727925602820339
0.0802389217280427
0.0722070226503102
0.0813453810126772
0.068782166872312
0.0997504108520366
0.0761720431309202
0.0803875538680582
0.0789666496190064
0.0764208601503822
0.0778641307424309
0.0781375316336952
0.0836519203229417
0.0792035621416155
0.0755448427047529
0.0787034166729314
0.0796331695277771
0.0766420474111824
0.0785782119134401
0.0752067784220129
0.0892775199931333
0.0879936824982575
0.0765312109117035
0.0802557510495523
0.0746690163147091
0.0874164866217853
0.0872196889287794
0.0745256274000306
0.0860430071062461
0.07633066865493
0.0835227343341815
0.0781700262050235
0.0847718704233337
0.0804082433640137
0.0849503578484892
0.0785119949086113
0.0820740413869373
0.0796558175240892
0.0824313151241666
0.0839066240650563
0.0847658108990681
0.0873584850221052
0.0871151003317497
0.0809113693905443
0.0864420556953289
0.0806056731360629
0.0854222151617317
0.0802829672101532
0.0836519558050014
0.0842039346158622
0.0918183136553447
0.0865622319177822
0.0889263952776455
0.0904995548416814
0.0871238048472974
0.078771005162386
0.0925381296337325
0.0830951329839063
0.0919542251487936
0.0667053167849337
0.105502796682081
0.092480482458411
0.0919001243469234
0.0934009314092638
0.0852393936662704
0.0921267298492682
0.0857504748024433
0.0936058158194947
0.0857353106268013
0.10271668975088
0.0805200157225188
0.0992735443460978
0.080503271208111
0.0991579159089996
0.0910335017289671
0.0946810739330943
0.0928979674916481
0.0931635601101279
0.0861698211549806
0.100395439379694
0.0869608224313935
0.0985106055871076
0.111721861148336
0.0919271554284899
0.104828362222643
0.0931419793808927
0.103196371210383
0.106840978748822
0.0926308621563241
0.102802627098403
0.0915861801505207
0.102508850669177
0.0893400842445477
0.106614958731144
0.110213755973541
0.0949173031133903
0.103230527779513
0.100523171881116
0.104132469688679
0.113882042426881
0.100235842671208
0.107827627414009
0.0992715592373053
0.105554230935822
0.0920671448013096
0.135149495075948
0.09576487243225
0.124872666928402
0.113861429692424
0.116634294636819
0.117220516441058
0.115826937943122
0.113781899235367
0.121629614481779
0.117717018308674
0.118493117118031
0.113055353457385
0.132753036694164
0.125669096106705
0.118396295538467
0.127247238245452
0.110751895059063
0.129589885763532
0.159443453382297
0.142262196290255
0.132413648413922
0.134328740090484
0.139631876724904
0.142969232084819
0.135502681969507
0.139210032143612
0.136957078041688
0.137087905341624
0.144920069421168
0.147064375280257
0.150447126781992
0.144114688144046
0.152007258329088
0.140983297117876
0.159294385590232
0.170678993835204
0.171576950364807
0.164639638823328
0.153553976932799
0.181072094205561
0.158053497246861
0.170339710471252
0.160627658771297
0.170583841392782
0.169528905847843
0.174741228727723
0.17351105984801
0.173560624757858
0.1917350687844
0.178719216807523
0.201181382034575
0.192148713204519
0.181330046069308
0.193808555172643
0.212778879061491
0.2524242452297
0.188463074020303
0.230032368873823
0.188689923535448
0.276873583824525
0.245379978164405
0.241155850891985
0.24303634031282
0.25346293409367
0.25420394712817
0.270452714512042
0.270528203128585
0.29127307683707
0.283517583723208
0.291309601449469
0.267988283945873
0.357084228355378
0.329680502427463
0.343994794132919
0.327533528763374
0.34594741956924
0.35280915571573
0.364915090567703
0.359449135118161
0.37972063593857
0.365690963090298
0.431449947157502
0.415344089691019
0.405571934616831
0.421083353865933
0.426173302682421
0.445625903183592
0.425101613281033
0.488919215741051
0.448121578725862
0.474923410411973
0.471189969533138
0.488808587749917
0.488651327768547
0.517548745614239
0.53049211949487
0.511285533355792
0.531289809489542
0.538954074360393
0.544682430960911
0.547806783059843
0.559145420124687
0.553780129586061
0.551887667437936
0.595959534783935
0.627589047890153
0.627240422112463
0.569248223606411
0.57334241719777
0.561050705664345
0.587923088538655
0.595603806952133
0.589504978817428
0.624289899290653
0.576082016621226
0.583089254471505
0.583512418323026
0.591041933959197
0.59580053271841
0.58955315390115
0.591102035009759
0.587014807502642
0.612658044043128
0.560245660907953
0.669406323505705
0.599067391129267
0.593566896158309
0.595267535759126
0.573646810646192
0.582050912969828
0.591289280840504
0.582436898632406
0.59065030643161
0.584779946244885
0.560899575095054
0.562162690396029
0.56855335102185
0.588672154450266
0.557337909268977
0.541958198664534
0.541590731078744
0.529956703134888
0.54040041928041
0.519679502119144
0.578956594890231
0.547039591470975
0.517892158376444
0.524662026414915
0.508658099857878
0.515763736058655
0.503137075428457
0.510267421165593
0.501097837380199
0.501532556075509
0.496386468190542
0.496410206062977
0.487592467899936
0.500836595218233
0.49342650780717
0.500796671118271
0.489267196517193
0.496220595726845
0.484649198366955
0.488548325467661
0.485036762907736
0.481831836755545
0.486440510066844
0.4878337052237
0.482370751157133
0.484424231479632
0.484958637456644
0.4872891127569
0.476477450730388
0.48687087531226
0.475977086370884
0.481774499265
0.481802652131152
0.488070992812484
0.486895769678836
0.48066534949111
0.474364293719116
0.480378055038199
0.475328163746744
0.483913902741101
0.480483323973625
0.472076594251544
0.471384034222763
0.484211313412951
0.506643521450218
0.461069960346763
0.465667839011319
0.463826288322496
0.465902742487806
0.459650530921545
0.468992386991566
0.494409879974001
0.456420370265395
0.456144860503032
0.449304688961671
0.462168192674441
0.45803550239538
0.446589621149552
0.437496548678845
0.44134994951914
0.41318563947187
0.497590940763886
0.43436647676231
0.502782002528471
0.445635321981374
0.428541632501097
0.42686962217615
0.458013246493372
0.436374903800718
0.414881064675886
0.431012448549445
0.420790260426638
0.437246406793204
0.42031551753095
0.419287972777663
0.409254389513355
0.405938638848347
0.428622404501321
0.409336306949161
0.395164389336613
0.433173385508947
0.409809271739311
0.412045753578569
0.443799236984794
0.411067507239727
0.39702509592162
0.382064577292819
0.380885420203645
0.376765555819645
0.399393223120667
0.393764117390488
0.374425011437685
0.37697729744029
0.363169372835374
0.371199867233113
0.364978162994888
0.369685656231306
0.355481671270956
0.355530574601341
0.361770520637118
0.333287162865528
0.370918084010089
0.34411632222964
0.379634442084651
0.344771734105874
0.339518437421292
0.336575920873311
0.364346418408546
0.340894571243759
0.33736673264709
0.329925563166729
0.324082999840596
0.331471193385406
0.324623716755266
0.305603138534829
0.323102120159601
0.307238593231541
0.320753702645346
0.346884410366508
0.335925499178949
0.314793817842143
0.303243193521089
0.298797705983466
0.307431177020053
0.293464746356207
0.304411527010507
0.285691386780798
0.318533228908507
0.287292120417176
0.316996057522142
0.319249631943282
0.301996056995968
0.3095100798685
0.313247820171489
0.309045303933389
0.329886910672394
0.333740136288973
0.331673780619067
0.310935880353937
0.33455453290179
0.329516646690264
0.335507747785373
0.335289628217308
0.340268523513092
0.341309088471215
0.349593491964344
0.358779716000566
0.362782038502382
0.365076263733204
0.378879419838755
0.37606414171965
0.407051150210341
0.396301921443998
0.385734965824831
0.431583257303344
0.420551236204957
0.445559266019561
0.427032596194218
0.442028613867007
0.44866296368134
0.452040780170347
0.45433943375753
0.457918559274533
0.483642463002693
0.479714817731182
0.470590543850432
0.486879237696793
0.484782123700929
0.501520349543031
0.496626940471196
0.524363111059437
0.503768678208403
0.560572163152966
0.514247539221634
0.518888386226886
0.519925218820903
0.523298310890439
0.525755071197586
0.518173724783209
0.529174848054432
0.526767801385123
0.546577441534664
0.548631070044014
0.537350116784666
0.549518423633474
0.545637955020997
0.550853169703062
0.556671259367094
0.553159423689505
0.566399681129542
0.562563998516119
0.564461998549451
0.556957252354658
0.599853065955733
0.601470939366649
0.572946374771506
0.593873143641762
0.586878843895489
0.599038397578204
0.591044674344107
0.610521502046805
0.615965822620159
0.609852836310792
0.615341557602938
0.61834312249928
0.620709705586954
0.634436991783829
0.630512577740287
0.639383780629611
0.626851279866178
0.640452025938397
0.609219415823351
0.684641863540224
0.653924437781153
0.662141200266851
0.660308314338159
0.648136812802506
0.660919342572114
0.658118116323474
0.663892500691778
0.662416603547602
0.675557602637667
0.669019983546305
0.668829032949436
0.669707227063446
0.670059873084673
0.667176763946225
0.676583213467604
0.67349532922912
0.667491723551425
0.668086321968151
0.665103868797347
0.663941452202969
0.667720563670932
0.679120927695279
0.663536205544736
0.666670684534399
0.660900780589381
0.677887062929377
0.684709077449696
0.663067153983357
0.658933793704544
0.666913568638761
0.663641157556204
0.6677959852171
0.668718971496273
0.685384606087929
0.683226362509142
0.673761264293201
0.684397147673779
0.678224974373155
0.684871042097515
0.683357671801486
0.688363616540518
0.690856274663438
0.698685823563912
0.705127423258092
0.705689784429781
0.691948058772593
0.703369802076601
0.704323811495926
0.709281996737617
0.699371722092596
0.699582887620557
0.696723385337186
0.688455565165413
0.696225528408282
0.687505454453063
0.676034511837379
0.6784330067409
0.669334225087884
0.670607483059484
0.672420142970604
0.666424696102598
0.654922363910276
0.658938632199935
0.639998881557765
0.644371447489966
0.632394053181566
0.636927971567301
0.632556506521131
0.6298278943489
0.629935130746359
0.624846180779653
0.617233740276864
0.614397999685374
0.615814930759106
0.61873708900063
0.611705488157171
0.604548314834982
0.601530550855265
0.613117650807864
0.607489073950644
0.610557982387997
0.605673716341322
0.612075351819324
0.609491612468643
0.618621274530746
0.606429523114749
0.615193302417021
0.605137525755556
0.608639761530835
0.608929308689384
0.601263227123136
0.604157882171872
0.606140234858606
0.602360004817068
0.598760925571146
0.599459764898819
0.605826568989402
0.60203266641835
0.600756506028925
0.602552116403645
0.602608979191025
0.599560240938099
0.597740724689419
0.603079770788886
0.600606662294972
0.597095189185228
0.596349978009203
0.602331873542375
0.59297983757119
0.598506090772348
0.597086630983384
0.602608909043489
0.599854865783482
0.59972569793612
0.602573973520178
0.597594786871996
0.599711181220233
0.598355784359953
0.602347461416734
0.601123399292703
0.596920465727847
0.596777860412105
0.592527345693727
0.593735448430223
0.593981575546704
0.581956007211815
0.584754205619492
0.579428869093667
0.579947080597438
0.573110002144157
0.56975589700584
0.56030608889619
0.555115111654282
0.556150874067821
0.552763427132759
0.54701200543322
0.542048593378819
0.536820130268974
0.536580415393464
0.537340538165418
0.533045603210242
0.535344800345076
0.53377630242468
0.527333987454685
0.527063847277601
0.529074061050945
0.527969040661562
0.524421249335735
0.527146707224449
0.517249554258131
0.52037569119798
0.523672149950859
0.52473799270866
0.527943161813378
0.531108026638981
0.531209536782013
0.53755367353487
0.534626922234792
0.533245070437143
0.534558689525932
0.540580423837247
0.540208456209046
0.540330063720837
0.54335876223082
0.548340444139404
0.550020532210613
0.552593121253846
0.551058842849254
0.551076385719049
0.554238480533431
0.556418692883379
0.557074336858114
0.560303157656437
0.553961323262701
0.556532769685247
0.563297732752713
0.559268476469657
0.552610782920433
0.553175715509573
0.549225554286073
0.547972685353793
0.545454211952695
0.544802079001744
0.545903144931751
0.548134496680189
0.544259641280804
0.541219210175194
0.536743571347841
0.538323816491467
0.533645000097839
0.53135988802793
0.531289753085311
0.53116228639699
0.52766926230214
0.526448045007173
0.52659683196773
0.522740302757833
0.521650117854577
0.521801717330745
0.515680596400857
0.515819415737151
0.513872330053534
0.512722188243696
0.513611660777812
0.510732181142409
0.50091370648618
0.506362934142588
0.511521344408772
0.503968876884522
0.50263303813471
0.498788311007372
0.498154268625549
0.496970416090008
0.49454965197532
0.491732799612599
0.487165415681366
0.48420987153155
0.481538662605324
0.478713517353957
0.473748986066193
0.471122134288969
0.468103503487848
0.463179471208541
0.460832157394371
0.456422773540553
0.451676725278978
0.452791724869781
0.451016769950228
0.449369743785698
0.444547298759301
0.446584869361524
0.441601555668589
0.442069832300284
0.44477869736712
0.440445431684486
0.437525284999018
0.439483893682051
0.433759353954287
0.432919405930865
0.427742384608048
0.424919920820254
0.419095241936994
0.410575170412459
0.408878839599821
0.400737758616768
0.395076196184585
0.39397197861482
0.390906224115762
0.385498009585214
0.384042674980094
0.38772095192748
0.387954534724849
0.393509548470443
0.399217406033049
0.405950588265072
0.412353818160873
0.421444608110006
0.434981416606183
0.452325231952734
0.46146856624631
0.478737844909718
0.495782363215022
0.516056648317523
0.531423048988677
0.551220927330815
0.568058324114197
0.588934517044823
0.606365945941262
0.622437564360193
0.63976197759811
0.653898874700853
0.67449886287696
0.687490889529861
0.703166731616913
0.720656770379404
0.737137551421746
0.747350404548295
0.75885213736018
0.778525863018211
0.7861881363786
0.793684039025377
0.79999753548388
0.817540675586137
0.823830591915131
0.829343378011963
0.835474354822132
0.843713496674242
0.841580642374322
0.85083968030275
0.856290900141217
0.84919839221014
0.849224366846747
0.847099756482833
0.853705358045124
0.854658383748827
0.857872215965634
0.857131742575228
0.850239296681628
0.860518980051088
0.857786803755247
0.86077323422777
0.873879820505931
0.877438117470316
0.872952028191507
0.878457040744889
0.89904935321986
0.893293291350892
0.900942638054664
0.912144021884148
0.92295456788166
0.933300351182408
0.936596245898369
0.947927267004972
0.955559596334616
0.977811744184534
0.989352760810213
1.00463612844914
1.00880949206185
1.04101939846957
1.04808192245052
1.05054761620441
1.05790052016066
1.05696802522475
1.08249475393521
1.08419992557839
1.08656840444827
1.08596196336652
1.0800400909433
1.08900752456414
1.07155423436742
1.07722474909674
1.06078523097989
1.06425036067464
1.05588834346893
1.05482652802676
1.05181177667562
1.07134981003834
1.07335342788249
1.09181018844558
1.09648790019752
1.10670871162158
1.1162492436219
1.13152223835449
1.15464281915344
1.16605133967391
1.19294405437425
1.18605239648793
1.19396957880306
1.22275900134414
1.2386912608054
1.27217702760626
1.28232295114884
1.27655990416664
1.29199884341428
1.33687833091175
1.35710616221045
1.35057168985346
1.37711573144422
1.42364379830973
1.4233373062296
1.46676984849361
1.50432502789147
1.51438018624287
1.53648113651343
1.57136233232396
1.55004180070118
1.58491060864595
1.58008551314335
1.65947363651787
1.71945320691283
1.71539660687777
1.6551882474687
1.71008949263519
1.65759409914364
1.75023944635348
1.66518394444887
1.78831824590793
1.7368748223061
1.75342345165393
1.73750063755884
1.74732382000884
1.76415224557973
1.76096764645337
1.64573325803724
1.73332644123336
1.68557346149227
1.75334520252092
1.73231884836666
1.7978364225674
1.72804592283642
1.81730137056668
1.71234847787465
1.80094913525823
1.79038928049361
1.8109591520088
1.74206605666383
1.91220726441908
1.84025275134697
2.00773062182577
1.84991469375743
1.83015285209509
1.85793477283061
2.01070479023292
1.97847467713314
1.99492472943672
2.00875774625356
1.99721442203341
1.87752369800789
1.97231841786915
1.96928075636719
1.92706632267585
1.93869071546924
2.09506293858022
2.04405682315397
2.08140404816531
1.93123283795711
2.1318717384777
2.34099439920231
1.99548621302166
1.94028456518113
2.08493950011504
1.96014868238088
2.11291834368634
2.09015242961844
2.11833984273017
1.90759500812856
2.19868653356385
1.9596292949725
2.2354622340563
2.18934742792456
2.14051847782858
1.90729248971665
2.08090762513057
1.93071693987222
2.12269021325011
1.96294923947917
1.94881868205691
1.87620635983358
1.92276469271044
1.91257060476472
1.90242622647386
1.66292738407579
1.75076875824885
1.76601957055168
1.68182890419788
1.55522057424939
1.58771027280319
1.50272891147771
1.59799220048153
1.49786519202708
1.50049145187352
1.46724478089558
1.47869332133184
1.49024417038071
1.52154478814698
1.43782372589541
1.44552677359908
1.43778260850945
1.41822950670255
1.3992528610951
1.42539947367179
1.3698772095736
1.40261416369463
1.34445882294311
1.30603865397182
1.27877895943916
1.29627298230446
1.22726797129298
1.21392554140551
1.15590250809165
1.16718659890777
1.09281524046362
1.05848761397994
1.02889260078802
0.984100137112786
0.926706987421284
0.899166831768933
0.868172552928504
0.827017379696243
0.790864881321254
0.762070990521551
0.727535757423658
0.709475292041217
0.687686985883812
0.668853544548833
0.648868442831351
0.631542929192924
0.608280632520066
0.598956104208761
0.585794417613423
0.574361180443176
0.568814252368963
0.558352451993086
0.542682389385079
0.543740115234846
0.541467733961329
0.540369260078463
0.543375496100571
0.536611294283998
0.543977065956211
0.543844436293035
0.538009414453018
0.54296644776237
0.548533260833386
0.544912323236177
0.541648427199758
0.545762150047263
0.543891748057325
0.548358234555734
0.547162517938875
0.539956222608132
0.523960831424685
0.525213393895058
0.518778002190328
0.519248302287408
0.520054111687678
0.509421672852499
0.512581962913362
0.506841526295186
0.500592282120416
0.499707796948889
0.494786034102914
0.497578615331344
0.503925786797824
0.514557434616115
0.502681063272853
0.515259148599659
0.51068196532372
0.518177862925209
0.51634170233896
0.524180451085509
0.532102193251696
0.527161248715681
0.525836663941919
0.529061937425496
0.53536140361375
0.546498424324562
0.544660662776435
0.540647322777686
0.539686492905579
0.562288490609795
0.543308275039518
0.550054636425747
0.545989874185199
0.554058607126397
0.541016655630852
0.55818571404898
0.555725722594502
0.560387251453082
0.554638791302596
0.562248864384604
0.570141480147326
0.594471315939944
0.5890826934169
0.600948600991284
0.618318562553359
0.633577461500712
0.646699206872664
0.660730329178983
0.684514504547103
0.702687591109819
0.7107726020458
0.714344717583085
0.723405242028894
0.721891124925166
0.720472638787932
0.718837644868997
0.712514391646098
0.69989477271809
0.69632004559443
0.691501589072555
0.659641167101252
0.660399483999188
0.661765986472222
0.661419884242841
0.651905680009163
0.664212654363406
0.651898832856081
0.64795582817559
0.649236677985997
0.673418968032251
0.652593888354038
0.658225957660765
0.659015852671059
0.651292796782837
0.642916708780922
0.646859193314546
0.641917082945774
0.641324051125786
0.623600919833353
0.614871507408482
0.620028625714084
0.601386631038132
0.605369745834853
0.614697093764424
0.587862745370154
0.601196832333285
0.600857606373552
0.598614414329539
0.592117224592198
0.588348829427803
0.579875333198823
0.589989135998717
0.583573622082602
0.591841122248458
0.566968346342404
0.577018667123384
0.56934544218288
0.578535095394443
0.554114388060853
0.557445036104514
0.550103527307075
0.550507097659006
0.548616515605447
0.556965995934392
0.538500407057738
0.566264606205622
0.553109411131309
0.55694314559891
0.550587971289679
0.535155732520107
0.5349388748118
0.5402360911058
0.54346931198081
0.547472554791106
0.541363933523309
0.531850004198269
0.510872864887881
0.53686480403712
0.528510144837702
0.531920412879784
0.52020567625794
0.527950000908383
0.52114216237964
0.534292841859513
0.530082262514129
0.54413605726837
0.527464939338387
0.525268551497918
0.539700536814578
0.528722585328373
0.525399776680949
0.540287106880371
0.534741483126634
0.541070035048411
0.534052842469085
0.548305686068547
0.537842922735868
0.564638869649509
0.544100602951996
0.558584982819758
0.545243175572602
0.559871046120137
0.55806670851878
0.583328035114396
0.563184386038788
0.580120347347139
0.573744446981894
0.604525569401088
0.60171728022472
0.59957270818001
0.602601221469515
0.65068452011185
0.611697872352887
0.635788832305857
0.64150747965686
0.706001155144107
0.664132389729851
0.691841106417101
0.698814822672653
0.714612691248181
0.722755595375442
0.767523021932487
0.761377394047623
0.798387492038361
0.786726057470159
0.810505769471011
0.83746040245798
0.90820467897562
0.852147425435366
0.884447472109481
0.823749644950465
0.865765157844515
0.8533632361049
0.96393724713544
0.840772824516398
0.863445462701537
0.814877258049575
0.856517351312821
0.85981848668835
0.836540863639053
0.872405970694118
0.875615036921923
0.820842598608635
0.870173116411174
0.804854665665555
0.895423910318532
0.802307765239071
0.826009415604927
0.84438087258165
0.866188078810885
0.841720816013783
0.906076099893313
0.79881066436147
0.868900111331041
0.826159522017866
0.770333434176663
0.742352180265842
0.795534077289876
0.768040984191971
0.844908592190864
0.838455131832488
0.861260619085249
0.729507197939906
0.894619931807567
0.746391858441006
0.807266356237254
0.749446385174527
0.809992039357446
0.77342114746241
0.859167181007509
0.749679965348261
0.853598233219088
0.783725547563077
0.839023167551038
0.726461339713898
0.877474348636389
0.823706337746774
0.830243343569076
0.819177063743433
0.821396061519081
0.756492990071434
0.971995180989078
0.76508724200261
0.788801203690569
0.822734575887208
0.967397566359619
0.830839441258833
0.848422210363324
0.772394796458259
0.892910222565065
0.801851392498583
0.893059933152203
0.774943704526931
0.84793275431878
0.849795353965081
0.887688032584848
0.80350876767181
0.855193623766581
0.817635694371694
0.855226918905008
0.818667841606191
1.09539010410534
0.841937732766172
1.02245984334451
0.779173565207574
1.10096550411317
0.973911290145347
1.03298769939436
0.996992082710329
1.06664904483581
0.979053102100729
1.09751842512331
1.0012263228702
1.04571298486251
1.00828294113685
1.35907836102629
0.836961860321337
1.1645865625898
0.97397581851851
1.32444997353449
0.978772864150272
1.09836163499175
0.941814606519435
1.47140681397453
1.34395381540571
1.20118899207051
0.887543863111233
1.24021682192868
0.889272348838703
1.20599418487283
0.994910904508721
1.07507919102921
1.09290469559155
1.18044041680955
0.966347148086846
2.14650084014328
0.913775400739808
1.09551887966885
1.02456372830983
1.77325361439793
1.00783547712192
1.2216291997771
1.02678166420473
2.16783562279761
0.927923126368068
1.04733071873477
1.16494604333348
0.807656408187207
0.831894218216715
2.32360961373901
0.936297278973922
1.01754974573771
0.732802941844243
5
5
0.978201274687219
0.700311100961992
1.24338585873399
0.79904048491804
1.60842967875719
1.08104015617375
5
1.08662268079231
2.00784895854643
0.920287427040009
5
0.791206756491567
5
0.843596290624559
5
5
5
0.512059938350183
1.0531622393456
