3596
4000.36533379555
650.420452594757
1
2
2
0.0577027262692969
0.0671412077948655
0.0479660797598482
0.0585311260147248
0.0619211439403179
0.0717988227387521
0.0531354626337081
0.0644276651857198
0.0491103817351352
0.0767347215927508
0.0486231380212687
0.0679689277808049
0.0593496512727745
0.0637514666410628
0.0520183690520944
0.0653155557459171
0.0535819319538186
0.0708874647726655
0.048774776397026
0.0688562356105341
0.0401017974977434
0.0733504240643523
0.0505984291357754
0.0659310284329564
0.0501870267422694
0.0763391422717256
0.0523113343816856
0.0722863083891992
0.0535305294383144
0.0748800919336158
0.0514209627949418
0.0759180323522279
0.0461545468063483
0.0713326584721762
0.0498450050547643
0.0757011542208336
0.0557742238558237
0.061991289052423
0.0502666129235306
0.067546498133293
0.0548142480091361
0.0702831576133167
0.0521612761690493
0.0671616183041151
0.0475051796857834
0.0659757000681714
0.057129114706855
0.0635892158492508
0.0537287166603831
0.0651692104750078
0.0484551412833802
0.060791253628831
0.0553404925404279
0.0796609620821339
0.0516821099309212
0.0766751878221301
0.0490701862194883
0.0764199519357404
0.0512808930011273
0.0642962703984179
0.05944848744057
0.0670763549086974
0.0490392356668228
0.066575470791631
0.0463379267505023
0.0637704081149402
0.0486820662713347
0.0663846500186726
0.0445727846140007
0.0673070825637077
0.0318264835579211
0.0628624192119521
0.051747447608648
0.0735848387236275
0.0481788324035641
0.0633609631818337
0.0398408010431549
0.0671933675173219
0.0441230244812627
0.0672018268026724
0.0546330894161243
0.0633129526898151
0.0449555949707795
0.0557337591237416
0.0423945489810212
0.069941007113572
0.0424163952264242
0.0766844535497043
0.053960206611732
0.0683692381053774
0.0408225937612047
0.0667349149209213
0.0402347747076764
0.0614161224759493
0.0469582837842462
0.0674293313394488
0.046104340163635
0.0747335159418436
0.0378456865105339
0.067016772927257
0.0436865535569645
0.0752267752538649
0.080416032059916
0.0480852324540494
0.0633115225438957
0.0694600751933577
0.0329063609249491
0.085983942271738
0.043098050994478
0.0685019299543783
0.0396097109164027
0.0673710958799021
0.036823113004816
0.074186033621772
0.0255934010004451
0.073119673937603
0.057967570626876
0.0705175287365427
0.0401048747209896
0.0574783260243959
0.028848890228878
0.0794212006012213
0.0632615575268356
0.0623142940122052
0.0502918113773499
0.0539778216599509
0.0227093297026785
0.0881157012805716
0.058382536828967
0.0634814133416412
0.0485546362799599
0.0637163652893949
0.0355230825972901
0.0473788943585082
0.0560419316437534
0.0641102015038727
0.0521328857381637
0.0365500929056635
0.0408039410404978
0.0918884848521154
0.0502288081933771
0.0620625528853171
0.0243847334839744
0.061307414559189
0.0674730087021049
0.0622590775853564
0.0335529484311851
0.0801679046084743
0.0443749441604107
0.0608119556550766
0.0404665028360118
0.0546137944782943
0.0475215091366009
0.0681437612313272
-0.00311030454030415
0.100784517428107
0.056007695679525
0.0720588632018632
0.0852702747319099
0.0534496410108089
0.0576402910823766
0.0459050875994785
0.0488962603698401
0.0483772500677861
0.0454795070886245
0.0513098301351859
0.0422041550406565
0.0723223986738294
0.044429245853562
0.0646488048839575
0.0656710510500878
0.0611943799694229
0.0160285341757735
0.112196295291202
0.0491701996339049
0.0570474478133323
0.0578087816185386
0.0715171789130695
0.029939033692973
0.054608891268935
0.0605644303893507
0.0613234370989349
0.0472151383514873
0.0570420183370619
0.0466042117564451
0.0637079213230655
0.0423448988276781
0.0591157010307907
0.0477461483471123
0.0321826722280598
0.0339042153611516
0.0830064196080367
0.0645066949818259
0.0522854699600615
0.0478147734962579
0.0268796141478883
0.0721878489564832
0.0673814434950237
0.0430014158239291
0.0609959631435698
0.0425679783342934
0.0677841295424311
0.0423270722294168
0.0550908615021424
0.0377943325437559
0.0293787961585606
0.0747188543146512
0.0696519692895307
0.0437227938097361
0.0543162693147806
0.0432811224125646
0.0220863793840706
0.0775675714010435
0.08044253203732
0.0578968840037971
0.0492090017600276
0.0372614641229986
0.068032848339749
0.0513065341599564
0.0585700811300403
0.044595113917396
0.0579363874618999
0.0430653098266811
0.0585470859729612
0.0413086502535606
0.057009460824256
0.0515213426479893
0.0569784576578634
0.0396584453093386
0.0641347907831384
0.0468861229911189
0.0601467417475797
0.0429664950140391
0.0559353037826956
0.0351468983708225
0.0687617776833663
0.0545835294966915
0.0567622842166857
0.0419234587347814
0.0518772594162106
0.0467557648339849
0.0579034512118324
0.0470013861809531
0.0637067562171933
0.0469411637755389
0.0460081218427036
0.0743703152010893
0.0557569658157334
0.0497475562901852
0.0416434277065236
0.0615147764949426
0.0673838484371463
0.0507411164593763
0.0569660606592746
0.0447166632061564
0.0529075508022592
0.0413135510485114
0.0758221718932638
0.051572280403808
0.0436094084207062
0.0528104838174894
0.0696790173756917
0.0497213242115388
0.0475974938966226
0.018295079470926
0.116015397694478
0.0424621616885772
0.0493764133829714
0.0879528192106155
0.0614096527409174
0.0502389928387365
0.0530786098028365
-0.0101094945566951
0.128232454836886
0.0835012495812459
0.0625410658268849
0.0395671908213401
0.0738271069522423
0.0452603701052908
0.0647949121012693
0.0385733600322944
0.0635909136856612
0.059018438672276
0.0725445284753063
0.072765671591091
0.0400068409571501
0.0625410081593304
0.0686684170772431
0.0557551854036104
0.0684607641480216
0.055854204425067
0.04745745834772
0.0599522596447429
0.0673935531845103
0.0592247276462668
0.0696972467203263
0.0393915236867202
0.0741755150666519
0.0564857084298833
0.0645966077968905
0.0498452998443457
0.0808216339932558
0.0506374589228172
0.0675901057932455
0.053072030983651
0.0738852126357465
0.0405768125844378
0.0584841675737001
0.0838479225545929
0.0664907234165231
0.0447904479191025
0.08368572753467
0.0573840195217657
0.0653359995872783
0.0484062939730663
0.0796580107113107
0.060143306525757
0.067717209590283
0.0453097863893088
0.0899809529736312
0.0563463650353009
0.0756780472440025
0.0539320146792177
0.0641791175753031
0.0561709340924972
0.0739233716335385
0.0553161782092124
0.0690268739362942
0.0570591111619936
0.0629725564585017
0.0571373498307095
0.0913165628703249
0.0325801383111975
0.0913509454718138
0.0893566776566746
0.0740115648130894
0.0597595403358877
0.0740037131598303
0.0693133138668664
0.0706644734203053
0.0709928607145096
0.0755634086458768
0.074674391189215
0.0889938018006202
0.0741775626865931
0.0808311175479182
0.0590718725810477
0.116075470290246
0.102023317978959
0.0995545005933808
0.0791574159758013
0.0607618818769959
0.102394747127326
0.0978317899821321
0.0834935492335738
0.111745574185795
0.0706139378338235
0.0968524435421457
0.0815742412178867
0.10426342671545
0.0873653368983636
0.103661396569511
0.0826005992276575
0.106402649155046
0.0832255441461735
0.117504362234718
0.0839580737032228
0.0991711307966416
0.11518358599575
0.112269517278698
0.0913629087765526
0.114584444210328
0.0777484029689487
0.129838996693381
0.0916552937527363
0.15029492879103
0.112519001148297
0.120167472719377
0.134239367983319
0.121837498176274
0.117098291827742
0.120582464638678
0.115568124484603
0.125067899493287
0.118951604132179
0.136306625808274
0.121947211040095
0.139805486921825
0.126630070766858
0.13489676539929
0.129451763046105
0.14128682292698
0.154175761312996
0.14352849636446
0.138780760015012
0.135303374338557
0.138805331838255
0.17484679314219
0.177356351984343
0.15744671167536
0.157271119575484
0.164250148075861
0.137667463432584
0.16665377708588
0.158013091114415
0.175210899055706
0.146190904781325
0.206537463020121
0.162704465039678
0.182730832229296
0.180964693292558
0.17373866955697
0.178702885156319
0.183555789182792
0.189833921059318
0.209081314198828
0.186694958529655
0.182551764588793
0.203183630348906
0.207160191890465
0.195913243621296
0.220717460852185
0.193100877705748
0.206537617057212
0.184061547471074
0.227868909580953
0.195804837557065
0.236155013931124
0.205481768193202
0.247311650124918
0.221112726295258
0.24890678151973
0.210693608804006
0.253296223098361
0.223169131650034
0.241533166882235
0.230974570489885
0.252980150669339
0.235286864516498
0.245052666324542
0.253525001587503
0.274773142938348
0.256754428908487
0.297218851053691
0.244980098233771
0.281326026315694
0.257252743889109
0.285345434575129
0.259741936123557
0.291098256849969
0.268562047336444
0.298224368304864
0.271437528464854
0.306699562051217
0.277527505584261
0.305200771891408
0.280581553372325
0.313962755515344
0.309128800826986
0.319072106403018
0.306516945630412
0.323856787673505
0.312021677178225
0.355967664058138
0.312883807449266
0.367235301080863
0.323408483798776
0.357246488978518
0.322072051343881
0.377602120828295
0.329469078960517
0.368598195614958
0.352632568061842
0.387949338573568
0.357963309055392
0.385933598894512
0.363981351887361
0.383699421841556
0.37108506172652
0.409441949167612
0.371021103319243
0.401657398868713
0.364829761337774
0.418555430733113
0.375732464200246
0.436151977409081
0.389830876276153
0.438824730491714
0.393113464800908
0.424309085749602
0.429213415878792
0.459890405678128
0.417041535462887
0.449926921140066
0.411195307043955
0.473378473247539
0.443000632053037
0.46925448862852
0.435076074385979
0.473731828633492
0.452185601118385
0.494066293259118
0.469979607219451
0.506440208621694
0.481986496112579
0.515880716044403
0.468014581683079
0.522061685333713
0.489794822549866
0.541929061390822
0.489760670857437
0.539366625766689
0.494602473655099
0.554772535214675
0.504494143900407
0.547068560588595
0.505478159350846
0.538104361890486
0.531279057684775
0.58124219382193
0.550989660589259
0.573133703995574
0.551382413170433
0.586102844011089
0.55609808359835
0.607395150943256
0.569232701093409
0.584323662388483
0.547704881915487
0.5902153260576
0.585444481114823
0.600538002035334
0.567046199000171
0.674982368059407
0.588327086913978
0.633447618134633
0.586507977787965
0.662398800354937
0.609119001675113
0.612792994891311
0.615432304772437
0.645691038283782
0.616419607685769
0.698376321683713
0.648163882483136
0.719037641987352
0.652661931269266
0.684623349375245
0.642172499266273
0.665767394594538
0.691314503091883
0.744497093179368
0.659419040801305
0.71564086407818
0.661564146116991
0.749589350606833
0.628443765961314
0.73902975558723
0.710904475718766
0.788659296984249
0.729136409498851
0.815072253183517
0.723875083116044
0.774757521057592
0.702478790875552
0.800518867075353
0.71455755686235
0.761716111886653
0.707147054335894
0.804715653899267
0.749055856929313
0.78889459414167
0.793165495409911
0.839533799931276
0.735046156422163
0.804784514310912
0.764716291793653
0.833969673246525
0.773130781130861
0.886123370077233
0.839716249078258
0.840196366152419
0.770150987906177
0.833231563602606
0.777062223488276
0.8892615623416
0.818013353448958
0.905659843250493
0.825513614409459
0.894758398852753
0.840267170398524
0.917955025690681
0.816014721346222
0.925815254255755
0.867695031113434
0.929302885260264
0.846416257294499
0.898956946452696
0.841428498027902
0.886036655800373
0.850646576938834
0.936643447863556
0.856859674177631
0.962949533435533
0.858706142126788
0.953282714871421
0.864251062136488
0.963385006964398
0.863915815981979
0.945084976939291
0.91579199467141
0.980622519766293
0.929286710425958
1.02180997660713
0.967301537942552
1.05473404207356
0.939796348235576
0.985057001971885
0.977677376777535
1.03323394280791
0.960681410257467
1.06445971797373
0.903584485441583
1.05466902389239
0.961430971590317
1.04777303195304
0.925125934101855
1.1156838604365
0.995115341463514
1.06452808858769
0.981067821742934
1.10567386585696
0.974496377041758
1.09633249965877
1.01120114159537
1.10477312958955
1.01950484470929
1.0995121854852
1.0153932333507
1.11763029256354
0.987105297655287
1.07890586853378
1.00468871326837
1.10795717031845
0.99998396309828
1.1391526054437
1.07904464628258
1.10393858424915
1.0019817627043
1.13719426445734
1.05843192060491
1.1407598943192
1.05848883846296
1.10265048514815
1.03785457082914
1.18772380452097
1.04197796035004
1.15357366787153
1.05850854017248
1.36259126277846
1.08295369740343
1.21293730891353
1.05606494919772
1.07673930463053
1.12093158586652
1.18879618942588
1.16037326072315
1.24331796973144
1.03750791596284
1.18686994526837
1.08452074150937
1.28554029100529
1.09377887167287
1.16849929081379
1.06544572423773
1.21599859007825
1.09200450002905
1.29495586388088
1.14573865685963
1.23426683190704
1.19468518399079
1.11116674202222
1.1200585221276
1.23520966917553
1.13519812772055
1.15384529471403
1.23764405810577
1.28143610359109
1.25200496607754
1.20726934807868
1.18417978135467
1.2205103591271
1.12987280862248
1.28035597208261
1.10095081174359
1.20476618733092
1.22731677546063
1.31003080205783
1.18550350893925
1.29218789553779
1.14423462285701
1.23465366831975
1.22899618691347
1.28236353880707
1.16536617472251
1.22411771512627
1.19825171392486
1.29831565148758
1.17668750123381
1.32370954171581
1.15019680626269
1.35670046106121
1.14406410124289
1.24589873637659
1.15906259011013
1.30648955397361
1.11444082888727
1.292860410899
1.26075353737163
1.29930493411516
1.12506316070735
1.35000168270659
1.17136717938087
1.28680110500546
1.20996793899192
1.25329343893609
1.18939930159537
1.23163276806344
1.26893703559562
1.23029862490313
1.16530965135404
1.39602338100972
1.1454767377148
1.30337689715065
1.24281977422491
1.31808523200358
1.27378190563327
1.32750644319973
1.208691937647
1.19443842019731
1.18020927687874
1.3237267594432
1.1372011203392
1.24728831234529
1.18071927401876
1.28862977800312
1.18475635999909
1.27924822097517
1.17322004330573
1.37486231432881
1.18806832545581
1.2914496520546
1.21176954971245
1.40289192284979
1.21141546184135
1.27589820725227
1.22671414927672
1.33590846091673
1.21740234596479
1.30086938641506
1.30367743099096
1.28777905296647
1.2015472903939
1.32676962496593
1.20043476711799
1.3155148276425
1.17102359042077
1.26419263556003
1.12292107449201
1.3128445509517
1.26552540429206
1.30579140578009
1.21859629806463
1.23996688171825
1.26429579311088
1.31666467939632
1.236257249291
1.3217420763909
1.1940796843401
1.27759757679607
1.20091659739676
1.20828494836889
1.22364213589205
1.28580505538667
1.20842219963145
1.32617168294111
1.22465722474028
1.26193689058132
1.24581133323307
1.24514362080426
1.21581762484704
1.27216923025901
1.13281540651543
1.30127902234997
1.2120813652234
1.23266655218374
1.21791453883956
1.27808426495882
1.15978117202568
1.22923380903872
1.18767988136003
1.24063388560702
1.18097699202505
1.27471440584143
1.14134525883952
1.22553510424384
1.20185140159531
1.20273184917089
1.16585915114193
1.28672082648968
1.22654062267037
1.16548697287884
1.16433702872511
1.34755423777432
1.14964526552997
1.2411767118387
1.14628563866799
1.20847756436641
1.1510344967416
1.17868829093804
1.19162417621267
1.16860587967282
1.16087394850148
1.1891553727657
1.1740428308087
1.24554557292602
1.13924636512675
1.25643313535621
1.1010322735251
1.21408705996791
1.09829796604215
1.1995191242543
1.09702885024224
1.1764189774472
1.11428210075245
1.15819587507992
1.14550399442118
1.14180083447718
1.0660967659326
1.21161054954117
1.1002149819817
1.23398889908277
1.12878193627284
1.17920413431157
1.11769149385873
1.12396955634494
1.11108018463495
1.17496301958478
1.0776734269607
1.11995253765133
1.07706630246654
1.11510553668122
1.09247633251589
1.15662760686195
1.04635978935752
1.11897553756736
1.04004719495523
1.07855856530547
1.10540833813038
1.0476688399826
1.03297204828778
1.09418798557776
1.0153620881703
1.11020125134672
1.02667320887635
1.11508296592979
1.00464943215945
1.05000697533722
1.03659576862425
1.07860113392601
1.0143548116961
1.08886412587426
0.977677850187777
1.03360955620204
0.980654033817809
1.05901734068576
0.998850363380204
1.02478235006726
0.944383381962755
1.01818579328311
0.997098435192563
1.00199666664288
0.978177468609769
1.01720988541159
0.936670971300911
1.0070001489303
0.983697742969028
1.00189515915968
0.927324808679372
0.981922392458836
0.935704407751898
0.94015745084563
0.936319209660832
0.957376373677337
0.92185719590226
0.94000801318811
0.948260319662216
0.948718582945652
0.881433388270713
0.943022075720023
0.899931377256585
0.891326613422358
0.896801432319857
0.926759097221304
0.898261590877237
0.947039024009235
0.876962944379347
0.899181034484858
0.869187294383734
0.888582330254659
0.869835266491148
0.889908379562057
0.856809284062276
0.895861414742782
0.846433821707855
0.857209221084422
0.838346177469255
0.891191215830013
0.841388595722091
0.856880536453273
0.817481532908035
0.845866049790429
0.816826894702861
0.859971444199543
0.810251573641024
0.841614536884807
0.804128409116083
0.815763851648471
0.791643840494892
0.82543310917631
0.787990380836866
0.815947606320632
0.779934275008972
0.809550469727204
0.794075539671957
0.790779477555168
0.754892160738976
0.775819146649481
0.770131143406525
0.773330464187395
0.750177557052314
0.765543134267464
0.749749062767594
0.760088512913482
0.715604576151204
0.738261553085801
0.725751248110389
0.738364439957367
0.702129326227107
0.731939893312706
0.719094445635152
0.747572474598687
0.721428483331109
0.736067777353182
0.702604607358464
0.70754703411164
0.680533650426518
0.71884484842429
0.686359123228584
0.725030871089913
0.67826115962444
0.706884637600377
0.670747323681106
0.698724683765935
0.659252383499076
0.671066511558201
0.66182682929331
0.686281374285735
0.654718994752972
0.666439914635018
0.659779761443615
0.664813896280782
0.652828772954522
0.650815341509311
0.645802895089886
0.644390162283353
0.627421214728156
0.648728578162593
0.625768648293928
0.651249904035883
0.62540063982376
0.633414684496913
0.610610134896347
0.642141346945513
0.609775446229537
0.616641266467029
0.606879444216355
0.614610812445843
0.593948756015588
0.613940691388776
0.583839585387552
0.603085182936761
0.585824781521022
0.589692965670793
0.57974486430332
0.590961287684799
0.574530438386566
0.588464755155533
0.561586260090463
0.577869946360134
0.560807064330432
0.579611714365281
0.553132831179589
0.59034509937308
0.549823180845205
0.561895695441097
0.539363667927128
0.560637511287483
0.544948640259311
0.554980936659488
0.525048241722367
0.539116306902953
0.52436555578953
0.541218634191354
0.528139903268101
0.539858575668331
0.529722010929624
0.531063381791268
0.510030025690388
0.541830251638256
0.526975867709812
0.523485226146218
0.512733804375799
0.511106049462506
0.493499139032223
0.51122547907333
0.487291183327413
0.491530262856937
0.486173040665054
0.499266115725614
0.48822664616557
0.49510553769109
0.484175566338757
0.504085637746216
0.470968896688192
0.484044089655054
0.471602940858911
0.487230218434374
0.455506250778319
0.487591759619961
0.466729722165717
0.478166631316864
0.464278831261487
0.481026868949465
0.462050329374228
0.46548642657283
0.455514321558481
0.470237192250851
0.450571696274502
0.450731936173545
0.444660546675563
0.452874193595839
0.433044980816659
0.448931646436399
0.4358385865635
0.453101918727163
0.42860738118632
0.440437067545864
0.429907797570017
0.442289758750748
0.431605168536903
0.436798384507376
0.432581832048371
0.434098880911749
0.414456948983804
0.43201465499322
0.422119663181297
0.420259895333177
0.414643195475874
0.433647811242703
0.416710878072707
0.42666222105404
0.420590448386892
0.420607261920552
0.408555719467523
0.421677434116691
0.404008216376421
0.428479027999563
0.416091627223695
0.414176176548954
0.398014813738971
0.416925054004337
0.411664889472433
0.427004622001453
0.414786643226264
0.426465260978088
0.406379623074704
0.424028775158225
0.408102115129166
0.42353952847908
0.412384890978501
0.434196241468194
0.414592766489424
0.422624536533346
0.417610324979365
0.427222480043803
0.412327072108966
0.42956219248858
0.413628028233525
0.433540574065934
0.420600593032627
0.434204456883815
0.42788934422307
0.437869970866483
0.432625555655908
0.441651053351431
0.429391088816681
0.438410265589459
0.435452423125532
0.447184191523479
0.438010879728989
0.449358746890496
0.439702870204022
0.454157859468612
0.443978539505158
0.457961540529512
0.44945817819131
0.47267019418435
0.452775944766924
0.473003313043644
0.459445117907595
0.470960777474277
0.459514761901631
0.480118243934917
0.476384116548133
0.480004963151364
0.471699922921751
0.499773085822368
0.47676389571593
0.491752648890865
0.484228506186851
0.491213147557106
0.486976139709443
0.505520836006714
0.495570076279187
0.514829393524185
0.501518947788995
0.503944738449951
0.508732903769428
0.52264457520691
0.518142116539464
0.535899522432301
0.525584382756113
0.535286407398646
0.526688298985639
0.530924147245628
0.532444465977905
0.535984483477206
0.51711872815197
0.560731630916135
0.533286495669312
0.547659525007217
0.534348011729869
0.544762601538207
0.538477285358259
0.546952890940157
0.525027036862317
0.54208468173682
0.535897228808804
0.541762354672494
0.520297034111566
0.540115815947643
0.533344455060587
0.537904509075308
0.516415702792389
0.545900370094721
0.524448474627632
0.537060166038821
0.526373704363875
0.538188866828822
0.521939001847163
0.552607543703696
0.528878046568063
0.536829310691824
0.52873619429118
0.54203944728221
0.531885854107962
0.550198813031951
0.527940913258807
0.547274576824382
0.525122870473462
0.539838375000344
0.532825192543133
0.540028426231228
0.529958838676397
0.543767236510871
0.517133695209388
0.538602254491457
0.534481204745982
0.540849646997635
0.529697506935748
0.551730263362132
0.528005288590313
0.551838171607083
0.534735681203287
0.536097850406925
0.518548056402101
0.536004958156181
0.530987788512694
0.53727459908963
0.529545540738633
0.546272712972094
0.524403860586804
0.540234595559815
0.521276604902333
0.543722645423085
0.519559547980119
0.537346519860056
0.521328486362985
0.532839341227478
0.518020831002305
0.528640082784266
0.512360725189167
0.527196709370245
0.496733014604135
0.508422989915743
0.498531791625437
0.518922393954582
0.486199919386439
0.491675992006552
0.490584836105273
0.496552564044379
0.478632762911158
0.483381902411768
0.476779048262192
0.484000861259979
0.470175181744089
0.478794926309987
0.466274800206573
0.469649515150854
0.452878855792413
0.472104140133757
0.453245439465664
0.462873802106784
0.431989717499513
0.44980238029419
0.44368941218093
0.446539598419779
0.444323275314003
0.436077990084066
0.427785647984155
0.43392752589676
0.4248319511703
0.428187064814297
0.413819958169245
0.426445433626812
0.413858517064274
0.425341091202657
0.408228658375329
0.415508494879924
0.411859177552578
0.414386212160585
0.392724464236973
0.414631357145069
0.403837845078139
0.405738586902978
0.388504086713851
0.392625686293169
0.389971890656957
0.395502912668533
0.38686194566419
0.39396816836867
0.381250670791378
0.389418376898808
0.374955985274667
0.386520591817425
0.370704023089123
0.383254947627739
0.376820467346176
0.376870139916184
0.369684537094125
0.383441163103194
0.373326947066919
0.376229917622069
0.365655481616569
0.369957785220875
0.359663663530974
0.369158913339965
0.358878671132167
0.366545572309589
0.35763895967678
0.368573414787592
0.353921026980905
0.357792792973181
0.346533622078161
0.35989339475561
0.348525555320474
0.364557486623156
0.350731792029735
0.360423721678467
0.339000573834326
0.351027214183242
0.340251847475131
0.347059479120624
0.340537314180425
0.342176949864125
0.331085406687398
0.347365005560077
0.338134764362187
0.342695647262312
0.333881457143206
0.340757357164203
0.331926762040738
0.335950726157337
0.331538552798075
0.342532983277019
0.327338792409253
0.338612321539862
0.324343535450321
0.333904192935488
0.333509875868737
0.333341301499657
0.328022232107469
0.339669657763071
0.322617457723182
0.330453368580134
0.315226249754906
0.324021780851778
0.324445442851318
0.332043673315148
0.322894782244237
0.324600076441604
0.31605323792279
0.328742090914575
0.314694575200361
0.319940617518098
0.313826783018829
0.319635008748965
0.306275391378565
0.320620566780493
0.315265498980578
0.321672649995061
0.314321106962781
0.313740767731111
0.311408299271152
0.312401638789677
0.306131957408503
0.316798581079413
0.301609528896834
0.313877481314649
0.298625779616123
0.313271308525167
0.301425633722051
0.310826930781895
0.300520561145719
0.309271393505976
0.303150450569914
0.312805563325164
0.302430446103823
0.309834183360843
0.299692473302296
0.306263151468079
0.301464268563541
0.311181520616393
0.300806350026202
0.303852785906878
0.294521886615019
0.302766144453671
0.299191813301006
0.299697858181961
0.296280420842167
0.30533830085819
0.290837444437462
0.304701131326988
0.29683702464276
0.30895231699628
0.291790326647496
0.303177403437633
0.294908798528799
0.299777297856524
0.297034328699247
0.30077674514781
0.290752671823179
0.292354588271467
0.289353351592236
0.294668917404615
0.29177985734454
0.29612826612513
0.287642581846911
0.292620953236084
0.289157350778609
0.296829433025268
0.290355231337359
0.298726765019908
0.287877510707942
0.292319801081318
0.288046169906945
0.288989507732975
0.280610314371631
0.287987655109275
0.283317063284766
0.284699208863495
0.281809830311856
0.291129655142198
0.276935326973706
0.285996855345273
0.280575653161118
0.291952276103804
0.27993782591036
0.284196358080502
0.275391579550449
0.283080243188397
0.277207779464475
0.284858326086626
0.273358571565982
0.284017554182854
0.276201994952929
0.27546361841833
0.270500046434341
0.276457125182846
0.271854405143949
0.280650793236361
0.273212183317891
0.277659739833575
0.268257406594945
0.273297685502931
0.270482021079134
0.273975691814824
0.265119378030057
0.271839472064692
0.264464921826627
0.267136720679736
0.26342440830544
0.270520864466106
0.259916841138106
0.270263940404609
0.257599070487322
0.270288427854231
0.259728835632227
0.266588803345133
0.255784637889803
0.2642413895873
0.255181768677248
0.262269603955508
0.251361054648477
0.263803638556423
0.256034845798012
0.254433127824711
0.250901412273955
0.25819428328516
0.248176582171428
0.256073067389806
0.248252259669678
0.254104253737116
0.246897234147527
0.256290619189479
0.24454088503571
0.250690220580933
0.246256248259637
0.255103897133942
0.240474254799826
0.247419014515099
0.241556505687529
0.247173243719487
0.236030140364246
0.243221615906615
0.238585485809605
0.244278845679029
0.238666600016868
0.246768533522534
0.234657297462855
0.238972245479723
0.231935286736506
0.239504100466826
0.231564955831672
0.235777821783281
0.229367948515171
0.238624413474994
0.229691865173619
0.234531140238805
0.226961749812324
0.233716570782877
0.225934560161199
0.232093308073857
0.222697417354928
0.232056817530337
0.222777035774526
0.228231284251353
0.222697386311399
0.222221362451742
0.22101249761451
0.227236089318249
0.223488608689176
0.22573654839594
0.219597115783496
0.221550944528273
0.217745900065884
0.221669382500841
0.217176972182454
0.225176952034778
0.2123160808117
0.222081796270552
0.213291652490562
0.217088385512454
0.215309625643451
0.218956745730588
0.205916611155923
0.213454097978224
0.213675616605351
0.215708872042914
0.205878099272715
0.215735104346296
0.210641026639163
0.211697299100752
0.20649619777043
0.214009379328871
0.206863051968455
0.212017350631561
0.205442858252953
0.212209876895157
0.204020833629042
0.210744389883904
0.205295602707114
0.207394657179691
0.199816008842919
0.207669612992924
0.201563422760565
0.207844172094836
0.201998940879742
0.205555101964359
0.198598333452643
0.203073150730941
0.197449686401478
0.200939849292143
0.196660812577851
0.204116277027391
0.196416028210103
0.203335161694095
0.196093785641984
0.199155889142083
0.196014305512968
0.197548222292267
0.190748007244486
0.202389791977248
0.190816483138359
0.198256258538701
0.192931103700656
0.197397426227129
0.191109229689085
0.195410249907797
0.193216630773313
0.198247092198305
0.189017232767677
0.193262089709089
0.191799932563523
0.196017154442416
0.192262795388293
0.192855521934568
0.184814981648966
0.195468504921228
0.190870730638481
0.192209959443183
0.185775659129039
0.194889241262199
0.189112730803636
0.191002854479814
0.186762882985331
0.192711990420146
0.184570630398913
0.191360652250858
0.184005465562759
0.190385668168639
0.184315336938566
0.189775943857233
0.1817453660447
0.189096852467051
0.184735042033813
0.191605502894832
0.18226868518611
0.185924974589037
0.181858579649535
0.185862491650856
0.178392419618652
0.186274441170949
0.180952052057667
0.184277011305744
0.176949914923279
0.182053663650657
0.179658878966278
0.184082527010963
0.174185533709058
0.181694232089369
0.177561208877114
0.183115922953089
0.175292051690742
0.181269169915103
0.173838114952466
0.179358439649145
0.174418132869005
0.179915079508928
0.172350343226456
0.178734455237692
0.169849886263075
0.178537029099687
0.177142552530017
0.177090693450744
0.172710544732533
0.174014092040701
0.172386592445664
0.177934962182327
0.171005363301879
0.176927264127248
0.171337156551536
0.175656650427596
0.16937109398061
0.173675415284748
0.171928191009829
0.176378454627096
0.1674851403454
0.17205258021455
0.170850438469705
0.169592150413029
0.166310590852532
0.173296995632714
0.168099461184615
0.170075619672582
0.166957518511883
0.169571287371349
0.165207328640577
0.171993032785393
0.163958245999608
0.169387969346908
0.164896951125495
0.166396180350281
0.16250229738567
0.169680749514238
0.158119569332644
0.163685920566586
0.162195407604685
0.166510636956893
0.161517332630877
0.164443109814095
0.159333740586589
0.162470863187606
0.156854507114317
0.161134240347188
0.158225953883051
0.162391384924885
0.152126902406269
0.160284954481092
0.155103025605505
0.160332562932345
0.149607800047715
0.158385700193439
0.151837033398192
0.15663136797504
0.152060899475868
0.153328510891992
0.14882596709643
0.152816313081478
0.149127654799875
0.156120240132634
0.149207037562389
0.152979839463724
0.146978896185658
0.153332642112633
0.147242924197274
0.152000427037622
0.145948957786657
0.149414704194944
0.146438147957537
0.151922846579942
0.145237063000195
0.149370441102242
0.145843116951553
0.148164575825399
0.14252209367516
0.147978766610809
0.139768790340798
0.14438231072319
0.141309710062792
0.143721227181002
0.140382000074788
0.144943334959081
0.137809186014977
0.143111397636931
0.138786776522453
0.142704265904074
0.135668313655533
0.142314102288087
0.137434627873347
0.144977012526896
0.135626285050348
0.138864874603093
0.133918169972645
0.13727892893403
0.130688602023139
0.141149856495874
0.131629004112816
0.137036175610725
0.130183637622702
0.133662117455404
0.12949648978965
0.137703294824907
0.12888309450666
0.13712977539456
0.127932483836323
0.133327391564743
0.124616036121161
0.134796567671558
0.127392516216324
0.132546569572254
0.125212354445856
0.13303946667545
0.123683327752561
0.129659548245395
0.124251624358393
0.128057270206901
0.123804307955892
0.129347483640143
0.123853098440115
0.129138323841662
0.122236616285421
0.126697027270643
0.121790844993439
0.125995854863773
0.120994201308137
0.124577196171331
0.118684081406785
0.125548395938648
0.118974611391934
0.121866597524462
0.118590644582327
0.126308295769503
0.117398316266797
0.124797508561429
0.119251923296396
0.125325400623478
0.118676118273206
0.124222721739042
0.117125075807786
0.122535421984229
0.116732467509621
0.125051706920832
0.116191715456068
0.122066925930647
0.11708059468458
0.123175370545728
0.116463045130824
0.12149024848796
0.114210202701723
0.120053743204578
0.116723633654219
0.122541380136048
0.115482968588043
0.124355298119993
0.11463706734993
0.124570360183099
0.113870553420194
0.12361021913543
0.103633516624843
0.115545491067245
0.105279972924777
0.123723178525404
0.109662633302967
0.113470059365376
0.103451985005369
0.118594931735052
0.107919967286478
0.121337627015531
0.107393270136556
0.122766083315261
0.113257917377969
0.120462508279617
0.105912031264096
0.115891911499321
0.0988980487176096
0.126137968679857
0.103160861849941
0.121026446960836
0.110359220371071
0.122778077837979
0.0993399830610812
0.119113844535767
0.102511422121118
0.11530997332993
0.104456533809553
0.11515625869511
0.100362136063125
0.116885678717353
0.101644491797164
0.119841857138015
0.106384763879056
0.122858791026391
0.106350152525282
0.119283886037614
0.105615563660709
0.114506025884439
0.102262091396523
0.109337235657213
0.11171503543973
0.114565788100269
0.112964545126707
0.0974940147945199
0.114863788307234
0.0935745220444181
0.12942036002217
0.0938288825290313
0.127268199864697
0.0728162516904976
0.137503682118737
0.0838489489557301
0.137463519045916
0.0654246769602745
0.141705294915261
0.071517794807709
0.132677001062235
0.0777853138597153
0.136546017687255
0.0845212864964476
0.120799288416602
0.100278000849728
0.106919407656946
0.106644416925708
0.101008831943849
0.111493388318298
0.0960880664034298
0.109451775940954
0.0991498299235856
0.106516274734517
0.104772792021376
0.100309978747974
0.103942872667067
0.0999670170564167
0.105461750671085
0.0999725568739329
0.10519266670418
0.101599032106884
0.10187311810519
0.104113057622282
0.102142288949475
0.10178283545717
0.101842814109473
0.0994874906288747
0.101298734937057
0.100341721125056
0.101658713185898
0.100543084603747
0.0981098030338138
0.101653691581992
0.100961064312239
0.101055625701549
0.102040647600377
0.0996009773533026
0.101787353936777
0.0991319574080739
0.100994665579639
0.100414286019127
0.100401127889552
0.102601177262397
0.09752255543134
0.100932944773125
0.101842387936484
0.101363809298117
0.0973599669812036
0.102044881703013
0.102191017195109
0.100171889851568
0.0991036159644585
0.0998178919526952
0.098865830713162
0.0998398189760353
0.10033896233959
0.100096996803308
0.103988122011295
0.101574077784945
0.10263108539097
0.0997224854402131
0.0993475880972848
0.0998196538277528
0.0988092303593292
0.0997458504596279
0.0984909299006085
0.101691514671468
0.0986350488164574
0.09923508954132
0.0982010530342675
0.100792231510581
0.0991215558306587
0.101178903156085
0.0989847668211043
0.100610147154815
0.101605615950066
0.100839013775888
0.0972399569068401
0.102353675936355
0.0988777164499329
0.0980157953530346
0.0976988027426794
0.101395630535541
0.0983625524367855
0.102357408196264
0.0974702097215512
0.0985180523174736
0.0963967823579471
0.101068895074008
0.0988863999219597
0.101235226238138
0.0989848757952523
0.103625470285567
0.103162662434572
0.100426060477493
0.0968614367239208
0.102702010608725
0.0989073083954161
0.10159754524215
0.10202523843274
0.101257051507135
0.0977384042335381
0.100885710695171
0.0976974459454948
0.101852374123039
0.0991293612224654
0.101076715209088
0.100289706666712
0.101587013055855
0.0987875643108983
0.100482162515253
0.100156776876755
0.102717904969091
0.100750059098921
0.10306747220495
0.101495657593732
0.104921406230182
0.0976751346106462
0.101777022955034
0.100838443500781
0.103133107737808
0.0989748905325305
0.103158319256078
0.101787784958447
0.10296108641518
0.100335725567449
0.103232093351873
0.101706850214108
0.101417903853242
0.100180068707187
0.103247370320924
0.101672904014733
0.102339434044626
0.0998350892678022
0.10036330977226
0.101032178319681
0.104422728976851
0.101629330279359
0.103488998077903
0.104109744430333
0.105031906058077
0.102550444133146
0.103204572286149
0.102462384176805
0.101546574183777
0.100658137734547
0.104719806182181
0.100984940197172
0.104444645295537
0.102276846192815
0.104188451872526
0.101351573714551
0.103177638334992
0.102990036347224
0.103666966224046
0.101816214640729
0.107026988245945
0.105225203058987
0.104534292308106
0.10311601553029
0.106678107543451
0.102463502742934
0.106687506474446
0.104865067136619
0.10474901156914
0.101752827738809
0.109047197932645
0.103975539525691
0.106379679592878
0.104560252588161
0.105616720174337
0.102615801692272
0.105491163956182
0.103646385305148
0.106581448098177
0.105091186992345
0.107127939298876
0.104914234679313
0.106788438986711
0.104483172498093
0.107847343186442
0.105121511472387
0.103496988933414
0.103671207080695
0.108616621657525
0.105502120415581
0.105694733080224
0.104956517532707
0.105342625900741
0.104415373150908
0.105557584123521
0.103327092054371
0.103350985798803
0.102289528558714
0.104071405116528
0.101723440683231
0.103277454704361
0.100807648861295
0.0995294163492226
0.0969054368557031
0.100624536277153
0.100218380441823
0.103769847274987
0.0985317613167526
0.10350909005556
0.099370775207778
0.101807234295652
0.0985147973529364
0.102845715212899
0.100797181134426
0.0986154076542478
0.0984014753899756
0.103633975277728
0.0992611405338319
0.101390136003366
0.099621932671749
0.102779350582773
0.0961030468076551
0.0999743380393356
0.0986061116501891
0.0991603096333174
0.097108145687799
0.0993168759544592
0.0971679659074051
0.0992364430130679
0.0987555197955313
0.0995323143430535
0.0986192349429395
0.0994630068835077
0.0944722957334121
0.099221923195509
0.0952098640441309
0.0959384036797894
0.0971825703840277
0.0992720459273114
0.0968094867641618
0.100096589310978
0.0959155283744102
0.0978946289495062
0.0956752743061767
0.0966225379694553
0.095649397127397
0.0967631863909624
0.0955740913674799
0.0960727871937215
0.0952791192403737
0.0960225623595437
0.0928346265449743
0.0970969720970054
0.0931793580674844
0.0928697871460923
0.0922673096654049
0.0989148526956261
0.0930450952244651
0.095901736241753
0.0943387214460228
0.0975069295104477
0.0945320073612449
0.0955270406942407
0.0929999890594445
0.0965100692304663
0.0931541947949868
0.094999721828787
0.0920149782572305
0.0945135276673875
0.0915478971411381
0.0960503710340285
0.0938945623981354
0.0950990356108462
0.0941291861326194
0.0969817700285569
0.0917039892542675
0.0936524558211671
0.0912504004579275
0.0918566268307534
0.0903854787229348
0.0941627433300338
0.0915721593999254
0.0929273661442024
0.0928888301931148
0.0939416007289635
0.0931156910556506
0.0937152944746756
0.091609830454446
0.0932140317806854
0.0912342358300549
0.0919816340097503
0.089667815602882
0.0894651289603644
0.0874970709174139
0.0925971198220595
0.0884827041337245
0.0931544688890125
0.0898333821975876
0.0897397468460506
0.0896893441567728
0.0900600926671717
0.0895740959163084
0.0905388826239034
0.0860455516755889
0.0886318816034503
0.0872352757558513
0.0882655359851319
0.0869677083364047
0.0891736324816415
0.0865662234055925
0.0876661713596858
0.0863220954527766
0.0842476622856618
0.0850594119935353
0.0840096531594811
0.0863146039053287
0.0874542747751053
0.0831150535754959
0.0861382253952529
0.0835870063158549
0.0838012136807915
0.0844534347197984
0.0825788597001386
0.082611033562933
0.087260089722305
0.0840332375051819
0.084069160512637
0.0785332032037096
0.0847941768900288
0.0794551544135259
0.0826929029608529
0.0782980906427402
0.0805908171809404
0.0767321879376322
0.0825235937446955
0.076813805813581
0.0823711042160927
0.0791585523014302
0.0788705831189905
0.0783532540475604
0.0799198978347062
0.0735371306811336
0.0815131311600773
0.0778249961188909
0.079779503608781
0.0775437836257033
0.0800769910032627
0.0763402566440793
0.079813244370294
0.0761356871075236
0.0780460316927
0.0745597760572376
0.0830431738470341
0.0763397377072961
0.0764479230895905
0.0745876499784461
0.0769691334764461
0.0748665954645792
0.0747255965640621
0.0744321728574576
0.0760255291373051
0.0727641143825443
0.0755285058618274
0.072874623661558
0.0740928802706215
0.0745087434242658
0.0760810335909946
0.0759640806779225
0.0762092853069373
0.0718144677952133
0.0763494010127211
0.0741619295994214
0.0728802927322572
0.0711874150575718
0.0769393160034276
0.0706233631671557
0.0726920463696699
0.0724336007002344
0.0746566138823208
0.0758098374843202
0.0726815252595839
0.0725831317632547
0.0715852271004674
0.0714063960880081
0.0720782177121404
0.0721336066167535
0.071175235060827
0.0703870558012088
0.0698832499267965
0.0694390446704805
0.0721927722771919
0.0699095044616984
0.069350829415421
0.0676313280830306
0.0708978901300776
0.0692543008102396
0.0691989500568889
0.0689992128083556
0.070062270043983
0.0655779407189684
0.0672640483358879
0.0695380868196316
0.0687589009061143
0.0712373287547518
0.0663557657886765
0.077753481118637
0.072237861777437
0.0652191260061227
0.0706543250102251
0.0647579680070306
0.0712622300022534
0.0663864195752032
0.0681536640043338
0.0678147622560296
0.0702005774171454
0.0658861995500361
0.0679205720138799
0.0649119846461211
0.0708690504169385
0.0676817896004686
0.0679855035427826
0.066707906896431
0.0694089502718871
0.0642359460404214
0.0683482979351841
0.0657440036176263
0.0716078041642852
0.0710090369763486
0.0670541253432295
0.0682040709058955
0.0666592438554861
0.0614585951292783
0.081178067791291
0.0606794332344854
0.0716270961720214
0.0633630990073946
0.0705162540391123
0.0631826995829848
0.0711494578347821
0.0608415823865148
0.0724665226260178
0.066005946289545
0.0687781393283863
0.0659096645061179
0.0666462540210326
0.067503575753001
0.068706767276306
0.0636505994563538
0.0676416267096547
0.0645474022279936
0.0669908212055828
0.0637604893616308
0.066922645145675
0.0622516969222238
0.0692870153974394
0.0608660166523098
0.0727955487509901
0.0649367990597384
0.0680349663073525
0.0625287732924276
0.0671192747213358
0.0632208573179405
0.0762812730110911
0.0680821368996908
0.0668764547987208
0.0672154851042216
0.0645666209785544
0.0665373395872571
0.0670145939752515
0.0666314043701348
0.0673571922105875
0.0654608564594337
0.0674043039670844
0.0678640834307668
0.0660877647814301
0.0648162523779826
0.0652536742429987
0.0660478201664434
0.065693379118307
0.0661075690592468
0.0689679553730193
0.0634269512341506
0.06905272872082
0.0629851633285288
0.0832170784565094
0.063039343176103
0.0732394551584474
0.0642637550120423
0.0700718580454914
0.0627854334284017
0.068927446615446
0.0629300001833002
0.0688730348222611
0.0642786088846128
0.0680494657580833
0.066017091099452
0.0672881144292719
0.0640250585870547
0.0682991467746898
0.0644556053084776
0.0667401286081732
0.0638565513008924
0.0676653951004335
0.0656809023742064
0.0653844946444492
0.0645637968381851
0.0650809672697232
0.0722528113279047
0.0636453186231618
0.0719335733704519
0.0573353964896175
0.0892370792646468
0.0640579077879056
0.0733056706164052
0.0687169801135126
0.0671713657044
0.0688109604981785
0.0684728237732387
0.0702784530078827
0.0680313953729305
0.067216172972788
0.0670844194302024
0.0687491383622793
0.068248574448612
0.0686997650870793
0.0626629604146639
0.080228101674705
0.0783773023366661
0.0649166635775324
0.0707692686355972
0.0625547252988944
0.0794564469588003
0.077704546564688
0.0653360617901285
0.0781259673497378
0.0671347240534793
0.0741061313802193
0.0675745608064454
0.0721873801500188
0.0673522225525262
0.0739169938341749
0.0669636305627031
0.0727313023924026
0.0693678706914169
0.0727011285888345
0.0723150926030625
0.0734699178190667
0.0760711221367511
0.0758258815359752
0.0690173739539391
0.0773322278803521
0.0699672571362264
0.0757189074099286
0.0710958281812183
0.0759309309819827
0.0734969632070472
0.0805152684565481
0.0736354131423512
0.0782968762588861
0.0792265032669393
0.0767635312422268
0.0700189153110175
0.0836850662239532
0.0701705768155244
0.0808524095404061
0.0532172511511715
0.0960615027274316
0.0785915888710873
0.0839423567591959
0.0801188760643353
0.0725247755576367
0.0776462471140119
0.0720600749861921
0.0773359607858795
0.0744421258487994
0.0912434702123388
0.0667811803569708
0.0864903987009646
0.0683128360628752
0.0880577517192911
0.0768294901927974
0.0826204419050517
0.0787746378995993
0.0827466825282179
0.0742614414213356
0.0909197385724419
0.0754560879029081
0.0862644370638497
0.0984141592430334
0.0782788527592644
0.0945533746173235
0.0772039524313564
0.0886495588866152
0.0912015063216735
0.0784818174375548
0.0884774305607168
0.0766206652781894
0.088343346821472
0.0730410646454414
0.0940360168565859
0.0959332268020265
0.0805019696487074
0.0920007464613606
0.0858619794324042
0.0889431238068846
0.0988997014240159
0.0848541879327546
0.0923525173377929
0.0874055535078772
0.0917885900609837
0.0761581012780284
0.122519440864047
0.0778908408655974
0.113534640487696
0.0992964351966376
0.104192393491329
0.0963514696136269
0.0970223712542662
0.0973634269811211
0.108003103209531
0.100267200197784
0.102377015449972
0.0938936196786986
0.119366105602978
0.106855730728256
0.0994392801178421
0.108673504448102
0.0940220834667061
0.109494755342465
0.139016248315141
0.124524341575441
0.112423827360378
0.115090397813926
0.124267375370158
0.124939297055894
0.11629458102412
0.118781042757229
0.115642945885268
0.118241379245196
0.121717480745064
0.122577103856689
0.128519681983994
0.12025788011011
0.130122590874101
0.11677748915153
0.138007743422653
0.144113991684709
0.151728867707985
0.142737970815236
0.134426126915781
0.159399014177817
0.134682546215105
0.146531256234991
0.135769336983176
0.146214180510196
0.143923215531613
0.14711518367348
0.149087737352385
0.147171772922709
0.163257123180965
0.147472720367688
0.172681545349207
0.161370032373638
0.159449303245238
0.160765470570213
0.182417588598705
0.22032308048978
0.153720594728635
0.199759937849095
0.14799702223263
0.244110008313393
0.203519414919171
0.195628209205863
0.200009385043392
0.210143157491434
0.206839181902893
0.227524873844713
0.221497414747269
0.237736696522613
0.231335581763283
0.242978791066499
0.211106265038143
0.301702968456831
0.266959441842418
0.283212968228915
0.264032688506466
0.280335568895793
0.285216055875073
0.29756985551238
0.286051028515237
0.309049010882497
0.279263274021142
0.351869855090545
0.327670100530393
0.3246505122473
0.339787376778613
0.339297997219898
0.357467212766863
0.34544873392858
0.407245852195807
0.354783118162923
0.386626777864715
0.372119592149593
0.389727887214123
0.390016905101568
0.412409930638122
0.426063167654761
0.415962998999582
0.429023322605742
0.427825405454221
0.430943928540126
0.428605111206552
0.439203448345825
0.444709323285817
0.44123665327429
0.466767522253122
0.49868979156018
0.509512980915181
0.445859416462751
0.467292776259738
0.452149644438311
0.476888654931498
0.477922061884469
0.461691471466379
0.504897032505264
0.466398481263957
0.476938286763169
0.471093320579693
0.474147114107189
0.473382669405045
0.473661379556167
0.487412644755777
0.473739244475774
0.495365565732813
0.444484673855123
0.545281056654719
0.486803272793697
0.480146365962868
0.477980294651754
0.486118716948513
0.472963951587193
0.474868245168533
0.477965792818768
0.496052053433243
0.478722902702599
0.463841958276156
0.471351862755843
0.466842512588802
0.490083740102584
0.457142255273799
0.450974858668738
0.449067906538058
0.441016394138808
0.449106211890655
0.427444186769354
0.483294657651539
0.451615453301889
0.428034674262615
0.443155733799313
0.429007189198849
0.431179575206037
0.423797708039986
0.430874549647455
0.422205493360356
0.418487596239246
0.419415051211557
0.423320027502996
0.423822182108327
0.422389244589025
0.405401888741057
0.426424099794988
0.411024745278901
0.421103915500979
0.410953120666825
0.416574612157415
0.412971397664551
0.416952081075522
0.411224001968556
0.41605745180282
0.420993616469724
0.418228916798665
0.405580433218974
0.413665587655493
0.40926020654555
0.415007002512757
0.411335738645102
0.413950789971371
0.409472094549299
0.416980665722344
0.406930123518425
0.41421954742202
0.413130088843564
0.413610759399328
0.406484471053053
0.414738599352452
0.401756336590826
0.405821699116386
0.410328468909302
0.40950233590548
0.443189601469319
0.391925190186904
0.406896345641041
0.39781130944736
0.391276745076045
0.38194805208318
0.398116054317538
0.415934896566509
0.378264261247317
0.38612581645775
0.374283250092758
0.383557788042089
0.390041729105585
0.376572490790972
0.363804140631006
0.374705072407496
0.335664435435598
0.439982193911992
0.355310605500804
0.434382845460062
0.366288789627861
0.358375957886926
0.338453081508332
0.38170930186251
0.360364828544648
0.340548348041726
0.358535521271422
0.343954636777159
0.359929436965511
0.336788488103084
0.339343903635725
0.334356167716137
0.331324405441842
0.349402258889271
0.339644206649889
0.318437464894633
0.350869047271594
0.33521761585269
0.321322682852184
0.362393791689109
0.345605721267138
0.320892686500567
0.305700298758343
0.312549340810852
0.308361178496716
0.32638656761618
0.320024084458801
0.300527135224427
0.304938894240066
0.290597361380914
0.297350772831681
0.286983343678638
0.294396254197532
0.282546020829516
0.292169308847913
0.296743332282699
0.26638954923277
0.304954197116564
0.276063186632837
0.318119038659954
0.278346143996397
0.280384631277699
0.267012085013888
0.305374147971163
0.276394144760951
0.273370197401129
0.26945976701653
0.262673264522338
0.270557222653386
0.267385195523582
0.249464737761534
0.270674679339681
0.250609657484443
0.270409489072939
0.293264636168399
0.280369038266935
0.264161780384793
0.251420574883491
0.244912041956329
0.2585743489698
0.243597461265812
0.256261132395586
0.230355324286095
0.270888049443326
0.239243448226786
0.26917899394814
0.266223329195837
0.252528656049165
0.259942893275427
0.261086317508188
0.25654044542105
0.276528077489976
0.27536173336324
0.283451154162097
0.25806441245349
0.284591874229734
0.277128416732377
0.281750046320809
0.279640352437095
0.28552359745885
0.289543937901188
0.297766101006023
0.301509868758788
0.306423102902148
0.305936887611267
0.321706493572196
0.31420517441311
0.345697475178903
0.331038887835999
0.329488034026707
0.370973461206564
0.356982715072585
0.386550882459082
0.359470188739385
0.37587400292948
0.381152316369649
0.382721287591983
0.385487808086486
0.380883140570737
0.415099445746998
0.411623794390919
0.399915684895323
0.416650830808407
0.410623996752642
0.428450177764413
0.41305479964735
0.452503132496746
0.408344270371757
0.477902751976039
0.438820182272202
0.447202719602193
0.441998226627249
0.43829073187777
0.45340079655333
0.439400146169901
0.450175951142736
0.446385594523537
0.46288564491582
0.46315098352596
0.452717835549143
0.471440189831967
0.468164436118238
0.471696559858344
0.477277711662847
0.474667529869841
0.476215137027846
0.472456780105103
0.482761617900401
0.475159779343422
0.512683924368214
0.521524443402091
0.491321905359901
0.508984789672002
0.498322272020838
0.516460671129834
0.500694587060378
0.513224813090884
0.52889407252686
0.51923319488076
0.521750821150036
0.52442035567401
0.529324218547329
0.547668254018225
0.545353762516717
0.550800370302485
0.536676562112073
0.552487779691647
0.513018283244559
0.610067666909135
0.558645925243776
0.561856196609532
0.569023385409057
0.565412452746439
0.566589938687119
0.563392907820769
0.566700412011836
0.571206931116302
0.579050129280148
0.572098317850658
0.577242725798225
0.572275916669266
0.571539822525056
0.567739667944702
0.575758793160363
0.578161911980544
0.574139620093814
0.573285738313983
0.566085059380254
0.571189813658949
0.571452351294032
0.584124096676198
0.56612215609117
0.574619680335362
0.570164420187388
0.582790122615304
0.581566140034009
0.575868727263437
0.567073511789922
0.5716963542757
0.572832098157811
0.57836443839915
0.56600162697818
0.587014732266839
0.584644871989124
0.586611097578191
0.594548951460605
0.584702393323348
0.587129690818047
0.592566659011174
0.594410436952784
0.59419716863891
0.5959781246693
0.597907814605672
0.604224423095704
0.603332392684967
0.608139887311736
0.60910873566693
0.611031370444273
0.603021535895299
0.595377537068628
0.598904666626902
0.597675603876847
0.599952241870593
0.591519309174365
0.586033577114047
0.580484544694404
0.579640899070835
0.576636475225982
0.580449249436402
0.57754227389414
0.557015130772539
0.573369401460832
0.552680134356736
0.557409499081458
0.546077633648108
0.546742443219778
0.547474975008887
0.540771793558311
0.538563127349094
0.539613083312755
0.530261818661915
0.528678775274212
0.528941193037824
0.531424372752414
0.527834062112902
0.525770816514168
0.524936231150505
0.529732355532142
0.521250064801941
0.519663705331417
0.517315170204632
0.525568074007896
0.522530237338458
0.531541846951215
0.526933698698187
0.531123920208288
0.523167582695488
0.5227101926013
0.515603579189752
0.524610527099499
0.519859023807182
0.517671207115001
0.51739516491108
0.519537234719074
0.518395070011645
0.514687824144309
0.516431981270555
0.518788844400789
0.519808173349369
0.520040753964193
0.516876850363463
0.514817947523821
0.515660405054699
0.514539397198064
0.51426500312001
0.512960823150836
0.520490807393215
0.514003570981483
0.517004593970049
0.513927359129515
0.516489704923643
0.516398742688464
0.513574325864348
0.515851089706085
0.51707078016852
0.517542028885847
0.517458655551693
0.513217536003441
0.514702880741622
0.515462451936064
0.511755204962554
0.512461302264434
0.503230654501722
0.503975307802007
0.504280678959209
0.499787723247026
0.494591781369054
0.494729701593289
0.491084340351852
0.492215531963332
0.482955378342547
0.48032158026606
0.48122297202271
0.47233293544117
0.468098996674133
0.463364979694828
0.459552685234567
0.457005575038271
0.457525484296948
0.458230564871399
0.453259046593271
0.449683604848652
0.453885280854288
0.452490477649851
0.449615995720261
0.4466637562222
0.446316903985125
0.450233317224639
0.448777503351627
0.447227497592081
0.451006469069299
0.451523119540071
0.450280310021455
0.451192697660833
0.4503675884695
0.456189275739015
0.458241348683426
0.457302393170983
0.459217311289077
0.46024126643131
0.458950252019491
0.465315752283888
0.466703296358406
0.469671124711029
0.467269410234176
0.470976075006662
0.471952404398582
0.471561925923648
0.47432572097885
0.474587308124652
0.476738211348833
0.478062829324856
0.473365222911271
0.474579713107117
0.477112869185796
0.476643959888754
0.474164362098876
0.471682108989574
0.471062433242527
0.467805007936564
0.466320204045205
0.463091631184766
0.464813354785336
0.46462850572834
0.464766334041831
0.461478991752119
0.462842530449596
0.457026937269752
0.454343485669481
0.454646844295647
0.453799714695266
0.451379479569536
0.447727774276427
0.446186061180286
0.449801319000037
0.448454136878845
0.444066888365416
0.442910640003063
0.441960207725851
0.438685729446647
0.439170006216428
0.438353684985456
0.433845476314212
0.430085837158736
0.431712363418685
0.434180991226735
0.432921115091158
0.431556302916231
0.4275682712014
0.426122438126414
0.422848471545742
0.421745948730427
0.42063720850959
0.415612543679735
0.413673235192904
0.415519084340231
0.409300808125451
0.406578087480711
0.405905093351489
0.402651051248919
0.399643972610562
0.392574908973762
0.392342766102602
0.390371634716701
0.385968170307427
0.385216923230821
0.385378232064167
0.383182902503578
0.379934959051122
0.381660880597283
0.375682055239935
0.376630229419632
0.377858230721426
0.373840904749782
0.372867096908364
0.37259711279631
0.367879777873889
0.366832871803706
0.361050709774272
0.360849307306988
0.355908907620839
0.350107833211561
0.346162658911486
0.341551027348418
0.338398656369489
0.331317096471228
0.328703707742271
0.326405795416409
0.325598876281553
0.32923701755317
0.329946237770321
0.333069573311224
0.33635656558761
0.341071833566181
0.348982239962396
0.357466968750579
0.365371115265797
0.379189904557321
0.392335295491055
0.406350867259647
0.419610272687524
0.437694711045771
0.450102000801653
0.467977642730865
0.480635903770703
0.49878792179426
0.513415577532674
0.525801282331083
0.543915711437341
0.55710332340305
0.56911049843778
0.585432509666829
0.598171937024145
0.608152603304362
0.62402166990214
0.638035245517395
0.646804952269595
0.66098532393169
0.666138170316945
0.675434235798029
0.690090365382878
0.698197380169184
0.7039831768852
0.708670839898358
0.722034065848795
0.721666911460722
0.717419588330757
0.726515095768379
0.731747254778643
0.730631497589803
0.727234787579712
0.733556942420296
0.730188007203007
0.734513417218506
0.736280427435163
0.734057060356241
0.738770789192896
0.737520598978772
0.736068322410933
0.744616086202544
0.748452407426817
0.747708154617878
0.751437688449733
0.759188832030287
0.758083042035419
0.771489665346525
0.778321662290642
0.784050449055969
0.792803299106691
0.7976614317163
0.806249791339832
0.81200291969031
0.818483507799388
0.834868911120686
0.846504407261873
0.85252719702262
0.869532610572691
0.886090647982486
0.887899072463396
0.906400299634226
0.91466056316534
0.91830256060997
0.926305905726122
0.931633928463007
0.923605028204757
0.935247616536321
0.932980188049995
0.940753231921837
0.928169955756958
0.919522373659532
0.919103320445556
0.927328843872186
0.915022810326914
0.918550139230119
0.92254270110217
0.922266577209048
0.92659594624592
0.936758733336488
0.949076048219701
0.963971755854738
0.967890442949841
0.982766196466971
0.987701901411133
0.999497157556269
1.00446059169752
1.03799607903524
1.05003976591183
1.07119708579712
1.0607580990318
1.08541702435155
1.1152942796218
1.12116927685275
1.13428598572777
1.13518454709677
1.14382311657458
1.18942728952552
1.19666014974078
1.20293370817119
1.23520915946612
1.27573256826784
1.29744563748595
1.33573707436017
1.32890964178178
1.35490077353118
1.36465024846795
1.37919040836865
1.40264091685432
1.42914327842762
1.45749818875807
1.5001796760989
1.4293643948088
1.46013847648402
1.48555864551615
1.57676680743898
1.56136264173794
1.53590616332678
1.5484730185495
1.55736920347335
1.49933029730847
1.57339234229168
1.51087616228803
1.51798365978788
1.51959285718975
1.54949518584152
1.56639399514922
1.57360956412913
1.45750886812163
1.49359490617221
1.50164169215682
1.54467378177016
1.5914648652989
1.58913165645031
1.60616638205186
1.61518958623328
1.53737054205681
1.62167914577182
1.65508880094326
1.6931439659991
1.60602716989753
1.68221563208189
1.66739204561093
1.69408102823269
1.67271459070393
1.67188099402404
1.73671062432356
1.73286202962689
1.74734502595069
1.84147331981357
1.73068299688809
1.90859515887324
1.79953535086092
1.79844726746853
1.81470805560145
1.95264535764991
1.789630160462
1.89220103363753
1.85598506265316
1.9642509690646
1.81960091216361
1.90794625985053
1.78565581734946
1.85129476511467
1.83274549552195
2.04642917273673
1.88906068672153
2.03441605470509
1.89719090369432
1.99517470249962
1.96150063146845
1.95892657308348
1.96435718485705
1.86046916494626
1.86011388136755
1.89773623331546
1.8064072106218
1.94478875754592
1.79587958286936
1.7432884411039
1.71066125677157
1.78575396788355
1.61119038736979
1.63179319838944
1.52407206931409
1.53003391603365
1.4385517307024
1.44452827513728
1.43763341272363
1.46998755000806
1.43139814602508
1.41588739422261
1.40734042991366
1.41163909931516
1.35461294747114
1.32661983223991
1.30761961688121
1.32106911471772
1.29313301173868
1.32501765927689
1.27637850802375
1.26858399409529
1.27385592779377
1.23109837205078
1.23109013516088
1.2408625095853
1.16714429717435
1.16289695406714
1.13138892332394
1.10256163134671
1.05074751636624
1.05190009241501
1.00405569389991
0.959362540932071
0.916824788985366
0.884222014304767
0.84967134724867
0.819916258690495
0.776478139814791
0.735739332122379
0.710579795808788
0.689009371179048
0.658290270684282
0.640185604928033
0.607495373767244
0.592243921088688
0.567016122145251
0.559265516141659
0.543516170594195
0.530144276864751
0.517321230247574
0.51399771909298
0.502705011423812
0.498053886960458
0.491748647111943
0.487870342995141
0.483973264205779
0.484967769172714
0.480571392029684
0.477853717186464
0.480912083449913
0.481589899572079
0.481535299899553
0.482026781772851
0.484273975312002
0.482558384550546
0.488270350686709
0.488053485329581
0.483171923360497
0.487792338209084
0.479247296353978
0.472757272968629
0.477949242100643
0.471753580693678
0.469399899951547
0.466082584192345
0.462400345849527
0.46104751514212
0.45693296183564
0.443403089697136
0.443422467419319
0.445354441549508
0.44742409331284
0.448450610236012
0.447591477826986
0.455578508314737
0.456422252192079
0.462913279908075
0.451960610626231
0.457900979511839
0.461186542709334
0.464218598027731
0.463508480187183
0.468619766952962
0.476198049656062
0.471084056307384
0.473350011756374
0.476929099111143
0.480443475289961
0.48512997658319
0.482148115974491
0.48327692979149
0.480540665909361
0.486503820780169
0.483895639578484
0.476694277586156
0.479693610320304
0.49151845412706
0.491911718577744
0.491591540032243
0.493098815561641
0.502770112533639
0.507589399933835
0.509681512075159
0.516707190525136
0.531460329237957
0.537922562665566
0.556621994103761
0.577468870535325
0.580361465494152
0.590181847487964
0.608043371283711
0.622792894099816
0.646128435915828
0.633762405977666
0.645255644548673
0.640352193892891
0.633287730989952
0.61911301295652
0.624677325376081
0.620343007796534
0.607244753452127
0.586688192998175
0.591093082886205
0.580344552993455
0.58022773692695
0.572034200497786
0.577811799932414
0.564426597215565
0.581702865883366
0.579296543390426
0.574940921345586
0.573427761537252
0.581522809156659
0.572505851341647
0.584774499655167
0.569629397440077
0.564300605151866
0.564738761529548
0.567680527644775
0.551981504962514
0.550324633979866
0.533972642692096
0.552529348175264
0.531128026287334
0.529868604643177
0.522381797404292
0.525233991039839
0.525922544155796
0.516127692371304
0.517762930371879
0.511903618305425
0.505768792667062
0.512718178696093
0.513571404357321
0.508477453892987
0.493678067952312
0.50624541491554
0.489524325265319
0.507878910014278
0.485831489826799
0.492626720753107
0.478848036798628
0.487640027022487
0.494386805813319
0.49916164421088
0.481698845200877
0.48071520309004
0.483246389077038
0.479184761570465
0.458100572658965
0.484462278117774
0.457937039923331
0.480702118288334
0.469589141024957
0.462129802874338
0.465421112250472
0.459324249594479
0.455341972195899
0.461232092251212
0.454660749199675
0.471100277920725
0.450641231021305
0.461698593776034
0.458201954043766
0.4646637486639
0.456948244104405
0.455389494840877
0.447186031094932
0.473054847432289
0.4606600355449
0.459090946066876
0.464605385946388
0.454832073418707
0.447673453423354
0.472670495647992
0.450556713415337
0.475664040735564
0.472302489127244
0.472200721121252
0.472130065926718
0.490996228735368
0.472902372438527
0.492965851592707
0.491316930038368
0.490124841520516
0.508818811740797
0.509632683313928
0.504210564572996
0.524244358044004
0.524520671134169
0.519971853849283
0.518989804056613
0.543989754963701
0.533357261986311
0.556191800876679
0.556824028541993
0.557076211275064
0.569715104516309
0.605212572552524
0.634386424726951
0.645472698605397
0.627179987140341
0.663105438258541
0.657764916071829
0.681948816714656
0.706311049111353
0.712823752666317
0.688451738777648
0.775611918077978
0.745219800289391
0.786825324403108
0.764751499621134
0.73089777241906
0.792893283564045
0.76557655963221
0.776928507005187
0.749389657323478
0.730911343761552
0.75530763803542
0.74209191998067
0.769559094207972
0.724708321801501
0.719011609968004
0.717943922707038
0.766504429385381
0.685905505338398
0.818995752005983
0.711638299064547
0.719315246162961
0.717478948374753
0.740292537145002
0.738349804557667
0.763578140970514
0.718307403146345
0.701563104309912
0.701084901269214
0.777013062367712
0.702934607374658
0.726626188539807
0.662860823771936
0.748678688267633
0.727597841521994
0.74494083222914
0.659722218324533
0.694691011770513
0.687706513873664
0.64147980300863
0.674396137574542
0.710947759791237
0.638554668385734
0.696952903625119
0.680228149531387
0.728473212196724
0.701168770744719
0.668244396937074
0.668610717177971
0.764719755850594
0.722296542286331
0.725245708146364
0.648438915979307
0.69165906647557
0.672050631913668
0.753162676955398
0.743191978670993
0.710700752701513
0.704228249999255
0.755988117895438
0.708104691694329
0.749918863828286
0.765067656519063
0.719255171530505
0.671152373689878
0.701230552741302
0.723512893500624
0.833452089282582
0.748431783232033
0.740456638880597
0.716219354712961
0.9314167825942
0.680644814910924
0.767455508685423
0.711935444899992
0.835423127994481
0.874630272353344
0.974678537233659
0.792329435300344
0.83975875606624
0.752530423751156
0.91219800866817
0.773086077807543
1.02333638684008
0.904249565328151
1.04182267469521
0.810074119478768
0.91466311980309
0.876819457842464
1.08287497707668
1.00908854262979
0.91461323925705
0.878436523087153
1.15609546021134
0.780268624702674
1.20072675500403
0.979590884670647
0.89654608153905
0.876307424901733
1.02346780297523
0.8069427081191
1.00982938052897
0.854605089532403
0.993507981115345
0.834455539957134
0.857604473300176
1.00387030465646
0.852676163750005
0.862091582169791
0.91182875172445
0.858554248875327
1.53582309992939
0.786174624281393
0.893848327960655
0.778655519645759
0.99973981230709
0.718457717205522
1.20787732938219
0.892301447240159
1.02445995933752
0.686357625236067
1.18010411916878
1.05666484270147
0.966249755661829
0.964931811683167
1.14117971695213
0.643388422942551
1.36441350240325
0.805480351959813
5
0.826412874356295
5
1.13403857047164
0.803437485553404
1.01038885913367
0.912944666111954
1.17939268303448
0.923081509339106
0.661661246623904
5
0.892096503778067
0.779894643907592
0.494540929726452
5
0.984265342620706
0.850305929370944
0.589145668660988
5
