3596
4000.36533379555
650.420452594757
1
2
2
0.070891005580746
0.0831965822942424
0.0666509829040832
0.079477760257419
0.0741815724682503
0.0835560673556879
0.0649573345904283
0.0853099684313164
0.060733740707829
0.0826345530026499
0.0715774716601609
0.0829177057069126
0.0683100023755989
0.0765027690002848
0.0690177743394147
0.0792750330317333
0.0690529147434868
0.0787222418102528
0.0639609940352123
0.0790514368423722
0.0606997364682602
0.0762456637787928
0.0652628156016332
0.0818553644990919
0.0712542714687283
0.08086558087847
0.066846696860174
0.0730121983232725
0.0678059880313828
0.0873991449176675
0.0652964417980902
0.0796930723458691
0.0645622622146655
0.0808924023273975
0.0668292561506843
0.076970933814848
0.0621325324235286
0.0715722114605642
0.0609463706672542
0.074271557293854
0.0696399168754505
0.084142060746703
0.0755660486717609
0.0870711733673334
0.0603254759482684
0.0763526542182565
0.0642174778126697
0.0768960674314441
0.0678581681311349
0.0827384870146989
0.0605407154179333
0.072496415241708
0.0579635640230268
0.0869254844601796
0.0667716331065743
0.0838932083629022
0.0654986559281873
0.0843222150797385
0.068945119310832
0.0789880195083133
0.0708293657176775
0.0812778705003937
0.0676049567605216
0.0773847372985571
0.0690371056384494
0.0756457747194368
0.0607613269584065
0.0793828337227922
0.0626751642149695
0.0758167455210095
0.0616461096873029
0.0715126986620441
0.0600392992293983
0.0796706255350008
0.0650264081661269
0.0775298112978741
0.0519873743302583
0.0695287263893538
0.0597439487663267
0.0857259882711027
0.0697774203666427
0.0817094480773572
0.0568110332763542
0.065675689907222
0.0578020099842801
0.0869234347721562
0.0510686261061571
0.0777705547146258
0.0748956624587027
0.0735990963999676
0.0597895089401724
0.0733682708590662
0.0594510145520433
0.0749535120828345
0.0572695562051184
0.0759384351995135
0.0608906253198658
0.0721185751433507
0.0553928759620051
0.0741810516212607
0.0572280879387815
0.0815612032143828
0.0847488174911265
0.0621689789176667
0.0798698234707539
0.0763153328829842
0.043243616445813
0.0964771633784556
0.0690327957817014
0.0772150416621677
0.0581262829718625
0.0739906102956936
0.0512820536185529
0.0732755702853833
0.0442979333834376
0.0815823637119583
0.0703693023138435
0.073162373323487
0.0552698239380411
0.0666104644074556
0.0494017742981813
0.0785148805376697
0.0760827547292713
0.0755026525792344
0.063861007201069
0.0684797347257206
0.0344477667753147
0.0852131316638693
0.074982636976101
0.0747826887391624
0.059781471389151
0.0738018163756473
0.0452740043576138
0.0585241227516053
0.0744814944705613
0.0753643066785469
0.0639058022249257
0.0563573391796775
0.0590689085379772
0.099890883282847
0.0591009534316813
0.070483716240084
0.0490345403575663
0.0673238918481393
0.0713554060639047
0.0712899844756787
0.0507629396838758
0.0788481870248346
0.0600756301479842
0.0683878928560316
0.0477250386079107
0.0622138760220516
0.0660580534253666
0.0732261921144229
0.00581326542287079
0.0871892535293234
0.0767524181763973
0.0800783071787931
0.0853284436428629
0.0728970462332091
0.0609737429140677
0.0632538546597319
0.0502605665138064
0.0611070551273496
0.0570796011802776
0.0604452758444398
0.0620553158710379
0.0777528524007913
0.0515705674204687
0.0668080722298865
0.078781602226924
0.0652714866585858
0.0305048128473446
0.113038110654344
0.0632854819174188
0.0590439868682986
0.0681971216832789
0.0787348528776564
0.0463329152626556
0.0734735373258608
0.0752030595147429
0.0684405751510091
0.0589059636510056
0.0688553720753761
0.0472172051537265
0.0722939252821712
0.0594518161031651
0.0703889908716764
0.0538833450437277
0.0494698848955881
0.0454169916300259
0.101089321870536
0.0722664842493482
0.0682284706160158
0.0576171884150786
0.0416385697280192
0.0724810867884386
0.0822498698071858
0.0520627616765403
0.0720878770321657
0.0516047549127443
0.0678762425680277
0.0506279840067784
0.0735606517927691
0.0461575692624353
0.0388796683065368
0.0712685449122951
0.0798938002963395
0.053683581697883
0.0650911812026466
0.0587423038307951
0.0500944642356193
0.0828407599169325
0.0883128362195098
0.0585646451119968
0.0567642153253432
0.0528504992273338
0.0794776777564581
0.0638830083886229
0.0697705424568329
0.0593599598982701
0.0719867793666717
0.0505426519813952
0.0675668545362846
0.0537242723267013
0.0719583184039412
0.0586669488226588
0.0667796211225925
0.0460303896494491
0.0656908968286863
0.0627346775716136
0.0703684058110466
0.0549857523147942
0.0649047226023733
0.0425576406161211
0.077091410585178
0.0702535548565264
0.0658721900805214
0.0507991478868881
0.0634223870107051
0.0530774132052298
0.0655582039436984
0.0566056493192836
0.0696137811710033
0.0468659335791733
0.0602238491825777
0.076695118824413
0.0714264111750147
0.0528528628049197
0.0634095599557139
0.0663479010901507
0.0815955538436166
0.0597381349862913
0.0679429057575559
0.0575063892255302
0.0596669496076222
0.0512288498181338
0.0810028687261106
0.0633860079972955
0.0586903870236507
0.0595262578974496
0.070521958892164
0.0588363164898606
0.0567699525468539
0.0266305563575644
0.110123928999451
0.0566546698446634
0.0540261791994937
0.100529975786488
0.0816328581993436
0.0551063360572839
0.0618348475723203
0.0149176754150561
0.110196591765412
0.092341899904002
0.07283998745709
0.0558724527124069
0.0775473306354058
0.0576247602706822
0.0705258263540259
0.0493902792151308
0.0753748131743215
0.0670420301335546
0.0878033505078448
0.0793023370034571
0.0476389878600889
0.0712695609836734
0.083834428647396
0.0600719863955706
0.0774308872465608
0.061216973366756
0.0620976796326423
0.0693866117839521
0.0800641682998252
0.068465384953586
0.0752197654763523
0.0586390710004564
0.0814062696207972
0.0700260796581336
0.0725103347843048
0.0560059760117744
0.0782977490268107
0.0630510793509956
0.0692413314987801
0.0660920934779975
0.0728526095172664
0.0533718854680064
0.0669586325727475
0.0967915425784079
0.079366359071187
0.0538006576772765
0.0947036005150881
0.0677343261364532
0.0762387157756509
0.0597850223937078
0.0766591065288842
0.0659964250271804
0.0751709110821782
0.0567721249046829
0.0972849792197252
0.0702262489111142
0.0811650915005478
0.0610609529581825
0.0796303328129949
0.0691187002705832
0.0775677728239398
0.0644967238699679
0.0804827481167026
0.0662081657437949
0.0801624862134543
0.0686120434192572
0.0951110552208724
0.0524612860806209
0.101989276424974
0.106052015757261
0.0878092494745616
0.0719579517774331
0.0893402387121361
0.0807815120748677
0.0815840183890193
0.0765685476336605
0.0864887747546752
0.0864043581668484
0.10491319230773
0.0840780573662695
0.0929253096106544
0.0675768406094339
0.13504824863361
0.10505304020915
0.112057723845614
0.0903818195199424
0.0760600423651572
0.109140123759685
0.117687635504011
0.0968256628413576
0.121294571642521
0.092634239700384
0.105203516766463
0.100185097918006
0.112300281384686
0.101649336135694
0.120362064185643
0.0979351606839101
0.113528908970932
0.10393225895469
0.129272232422416
0.103755361606237
0.113331451193095
0.126926471596471
0.128944592643595
0.105641958393694
0.132047776679151
0.109195326859421
0.151327896241908
0.122458328629248
0.166393568881393
0.131676783392979
0.153324406406597
0.156138787018002
0.149541721269842
0.135633368814209
0.139679030593941
0.133987990756461
0.152592156922733
0.143287434062949
0.155519935387436
0.1489603999514
0.163900042385504
0.14783996267029
0.164568156600364
0.157036583097583
0.175063382544379
0.178623033094817
0.180493918888901
0.163017068728083
0.167434387064743
0.157539568194067
0.224913019752056
0.213439906696927
0.188959796809711
0.19230574461723
0.200871073906238
0.175311602593855
0.201838272610822
0.187551915868001
0.211607681751286
0.185488156444004
0.23557152601242
0.211347511179165
0.221564630345207
0.213097398110758
0.215883844666001
0.222043377517112
0.226861869476487
0.230855647768761
0.255684533963535
0.223708385214447
0.2338930866184
0.246822943473634
0.263333010208027
0.234959788233415
0.271180179883983
0.24451715005659
0.257395655536233
0.241262082098719
0.272093108306275
0.253049311172819
0.282528983140053
0.257304801054827
0.280922726237007
0.280671855844784
0.300046336273852
0.258277695726927
0.297758621782321
0.273967121219839
0.297991914700872
0.303964828996364
0.309643455326395
0.289747354606263
0.308303724574829
0.306200602956683
0.348361268728447
0.311981777652568
0.359607113776689
0.31928557629481
0.342768946274055
0.321194428212011
0.338685550671835
0.326864893300044
0.353575981220997
0.344290884474278
0.380624455612747
0.350432224516591
0.36213995767366
0.360580444460974
0.385787868592786
0.387407934489775
0.383776416659785
0.389245160255203
0.406688381760028
0.371963273398583
0.408789108964232
0.387256926798723
0.439617697405828
0.401533614319602
0.464164593785705
0.405654995869419
0.431731677944886
0.391497024971754
0.450157973244378
0.425001301001803
0.467110681224045
0.434523507823913
0.46257227554724
0.435720017290312
0.476297620957309
0.452368745320641
0.484173793324461
0.452631455471503
0.500041361434206
0.473809962079334
0.526614026414109
0.478993657542486
0.509225731120795
0.47450926928206
0.564394420097892
0.482094218207803
0.535114757354455
0.499860289584104
0.554803015779804
0.517529011066774
0.549270279314199
0.525183322376713
0.5746191609321
0.525410056137393
0.572066662233051
0.534253148212779
0.585828102229238
0.58267516733434
0.593488279661048
0.583121515119457
0.621775114034702
0.577816622645834
0.620232545923517
0.615929892183826
0.658169946216752
0.564939779260646
0.639467191481867
0.586492549311936
0.671092858893667
0.62370439761188
0.678777764093726
0.639240375772544
0.661017416108406
0.618843541232313
0.67783048532837
0.682060786074708
0.705144651969822
0.642313507951667
0.734493675335862
0.659137545085746
0.698200733843718
0.697608002074183
0.738906226116331
0.666870857458157
0.746463179288958
0.68246943480397
0.73206299074103
0.712780906821251
0.80352901787669
0.689681595797119
0.77561866043867
0.721182319201511
0.790789674078158
0.721535456832584
0.764910255105044
0.794446322384414
0.84063170033408
0.775787431648265
0.850690826869542
0.761746208547842
0.819582743167852
0.767405783731794
0.886172943107978
0.789607930403219
0.865197231533417
0.805596178675987
0.880809368342257
0.815498087683963
0.876936542930335
0.844378935036668
0.92914816169275
0.847371528506406
0.855922095468014
0.83600801024072
0.90301336120379
0.847878757152016
0.906451372822717
0.894521941127024
0.953754459646407
0.924407274400244
0.968629304116606
0.934490006156163
0.964917696050745
0.896308537133561
0.938319849848935
0.882686991633361
0.93644045001347
0.920303664662769
1.00913693952206
0.88024093668043
0.975513411344806
0.964399882328449
1.07303042704789
0.928610471346072
1.05102877476685
0.998005881082656
1.18478957051945
0.972156901664893
1.06960443676285
0.998632141929572
1.05112717190694
1.01960404435405
1.0982034428208
0.984130463019495
1.0722230994349
1.01105345522262
1.19335837951958
1.08116437261677
1.16505257221968
1.05219465890301
1.19760151443995
1.03687649764113
1.21639877674196
1.07823542153005
1.16270708876161
1.06195197218114
1.16634526992132
1.09458378620365
1.21277332820744
1.13350704816835
1.32249560584969
1.08395213866653
1.25382703382383
1.07226124270918
1.24088640022408
1.05976271535636
1.22168148973861
1.24210870200435
1.27304786541084
1.11937396081394
1.24182758644972
1.08642447227598
1.44526200641188
1.18387433205066
1.3022579882268
1.12381380996264
1.46900497206231
1.23659593076954
1.30768982286536
1.2395154903844
1.29004807483111
1.24434082235936
1.4045890037923
1.20108434106162
1.2818513914509
1.28161085755749
1.30556098064132
1.24382247687614
1.30982116152458
1.25904235536622
1.38248396673225
1.31177358337275
1.350173166869
1.31831680014358
1.49192791133881
1.27136640028728
1.38164579714995
1.18721446754337
1.33301197162344
1.17152891757613
1.31964562994608
1.36281929345337
1.49539362439413
1.28868267047252
1.55132750460607
1.25523974781976
1.39824259803701
1.25395454928092
1.46749452264092
1.29569577016328
1.54740647915323
1.2665721279946
1.43502365166949
1.32907746408568
1.61004380605107
1.36747930837676
1.37910589011013
1.31849890518005
1.56434778463262
1.36146231865188
1.53865908417148
1.37891344297262
1.45464915249523
1.37118569644434
1.52511765436773
1.40417258614072
1.55257183783258
1.53207444108881
1.43959805397872
1.37844059404978
1.54778193985688
1.44880875217268
1.68534206804931
1.31442379360165
1.51331783126027
1.45241562810551
1.45840070888197
1.40644575970091
1.54536597488649
1.27455424941449
1.67968060974188
1.51783185448941
1.70713180988826
1.43992581436723
1.63406379838329
1.59694418351461
1.70894341670754
1.41508876322804
1.80979137432453
1.44437406845391
1.54403998012566
1.43187389333932
1.78276052760129
1.43120368019118
1.76338957932712
1.41886124839489
1.62630336096774
1.42045474684932
1.5807841372219
1.36939619529692
1.6591835364106
1.57986668957863
1.5120874421926
1.32535266503518
1.89635628379969
1.56405624748139
1.61493154038878
1.398496650852
1.58559575947018
1.47517701475057
1.59091108553071
1.4694376009113
1.61158134053611
1.56500206035288
1.64590671378201
1.51947346341183
1.53977736484077
1.45859040747261
1.75524951139738
1.3998902671393
1.59102235444611
1.42903187521872
1.95722519214375
1.42380210174873
1.62250025727224
1.43313817104778
1.76023457815387
1.50675747327887
1.59635545719525
1.56204962689979
1.66172399894522
1.42448753100251
1.86732870791239
1.39163984899067
1.68165673851399
1.39862018885308
1.57351591669811
1.58114655894312
1.83238246702677
1.39129347840979
1.66043998486105
1.75290564963116
1.83823690924471
1.49070743615187
1.72146241333405
1.41899611453903
1.63041408692228
1.46309312637176
1.65282908156926
1.49956019201382
1.71346001597594
1.60548824560892
1.96650874309407
1.47087325297796
1.66339797801541
1.53276054518495
1.56208601253445
1.46129349802249
1.56636955068298
1.76369077843298
1.66657280764277
1.62596458992139
1.58659223574124
1.49550807514411
1.67441799055168
1.45491582494684
1.61979877306015
1.51237884316186
1.68268659867311
1.44688205219895
1.70005246682076
1.49975541568324
1.66927211877021
1.63311363875048
1.54115254986411
1.37186985064335
1.62171686502941
1.53754713940863
1.74156600209284
1.53976146146994
1.58876881405131
1.55712464194978
1.62463304487217
1.49719603257832
1.59386995704674
1.43993946497193
1.5432019001781
1.64872482443958
1.65718620427835
1.56162841018006
1.4610864576634
1.56276203065538
1.77922763262635
1.56782069582049
1.71514408967864
1.49990997716579
1.5719416789987
1.41109443792892
1.57469333215041
1.56395211838763
1.60652228994476
1.46082665644858
1.44806041301591
1.47143504145401
1.68819528080453
1.54002593251803
1.67020004008754
1.51060677230412
1.68538539111396
1.51246808517207
1.59967878373942
1.40597545589587
1.64146917083247
1.44043470591904
1.63086995556872
1.383189313268
1.44815121488018
1.40427003379384
1.54184189770282
1.38777985347104
1.49495988059969
1.40656251732501
1.52330173507925
1.42024652499414
1.72139305007617
1.39568918933096
1.46689546405813
1.49379031288518
1.46592178171859
1.37079854599306
1.37628059614562
1.42712126730596
1.48774936424589
1.50781860686653
1.51832250783778
1.4490445955382
1.69069721106304
1.49580423536691
1.60974122871328
1.2987510641559
1.50766857694982
1.51389937771788
1.46858522878882
1.3498065204572
1.41912867206876
1.42454965697231
1.43762049338952
1.27261825927132
1.45808455179923
1.36596362115514
1.45918100514969
1.31375346693784
1.37110495865511
1.4099282759182
1.43354375800157
1.43440811730437
1.3640650860994
1.40799024709046
1.40102597682211
1.33780827937084
1.3670982549363
1.32123110254433
1.40021910566458
1.26254079969763
1.44550317363395
1.30603309366463
1.32567458527729
1.26507543155166
1.33278086456886
1.27486143953815
1.38893065938982
1.24090866516235
1.34690647735005
1.25846318902192
1.25812826974013
1.16075222559379
1.2901745175711
1.28764503707568
1.2107112458385
1.24773432585784
1.30372914498988
1.25190592103295
1.34607451672114
1.17817246074524
1.27504491929096
1.19726482020637
1.24413287893103
1.11760880866577
1.25694683219669
1.16751873063487
1.21449811184377
1.18051702381944
1.1899242137523
1.14540810868879
1.19206847456803
1.17600040606418
1.21725114781627
1.15844811087012
1.16437606840759
1.11158578491015
1.13574067304082
1.09948816362536
1.13759713789892
1.11013452772114
1.11752244676536
1.11132390351206
1.1607054798462
1.05497215016887
1.15801492375853
1.07341997090876
1.15291806743556
1.05038159689362
1.11645828484901
1.07867239110078
1.11715499874677
1.06650159842974
1.07547827170485
1.0299114328474
1.06411276976828
1.03497223835355
1.05732732750732
0.979328844786231
1.06906831995051
1.01823947203601
1.07109538899134
1.0215737386262
1.02359176384422
0.984807366683319
1.02504796325806
0.967391957791189
0.999862457950104
0.98244976811475
1.02052746919984
0.955583478189432
1.00317133048114
0.948210885518194
0.966225965944053
0.944002232339699
0.978685975714087
0.932299138464935
0.994033076587097
0.946551501698416
0.959883226235545
0.883218101240374
0.938366810415951
0.904189766800287
0.942472873327726
0.913890445609648
0.917835481474623
0.861899730875271
0.952079969236265
0.901903475586157
0.933992836456864
0.891634230709874
0.909114287442476
0.860057056990392
0.894834735505196
0.871967922462751
0.900303197153457
0.850660282003946
0.892332763996493
0.83429217982965
0.889449415902879
0.81882832040856
0.846271319121655
0.804195883278983
0.848913213680597
0.809382638782226
0.845987167914512
0.805514279889649
0.8292515816513
0.820232505474769
0.835508949402182
0.819200198328051
0.82487422435122
0.785626229832688
0.823302023610193
0.792755995933561
0.810400700360592
0.773978725332629
0.789541813339521
0.769926392673487
0.767055204609352
0.763126599457606
0.761793134068407
0.74096384549981
0.784751398939378
0.737191817837019
0.756951019810271
0.725431486403478
0.776164504901171
0.710356500061202
0.755219168016263
0.722767202014965
0.7333800924053
0.71715371198878
0.743438939156207
0.713921726139101
0.72817457656991
0.700837207919926
0.71103298837863
0.703835154188972
0.708220540642552
0.68445768759402
0.701414869155572
0.679023707070338
0.697381666470205
0.669736097963275
0.683411051334468
0.664880603242728
0.681424029785191
0.67474230469727
0.680288731355196
0.660936858194547
0.660610730663341
0.663927842317879
0.657663873339961
0.638226564464066
0.658822012200277
0.634741876817055
0.654307506844156
0.634765369735418
0.640938561398249
0.626849520783173
0.642217076085238
0.611695238539705
0.616672767206176
0.597814936524656
0.628198081808465
0.612983648055123
0.617389719089902
0.601428618338116
0.614720492279621
0.586294970817607
0.604495940356167
0.600206370441336
0.600888042645524
0.592833448594027
0.601798312603126
0.5781334574161
0.608042241740105
0.587039162527331
0.590015139601342
0.584054154051241
0.582980482857341
0.552766357856534
0.584428643383233
0.553888289623493
0.567613235915839
0.540019940285633
0.561889137353189
0.538387007094794
0.564206146607368
0.535477779605655
0.546777017303739
0.541947095194085
0.552717603955346
0.524845670635303
0.534534931941599
0.528274455035445
0.544555951718079
0.527118555886616
0.553990357307594
0.518919284894619
0.528647836405822
0.517232148717322
0.533750746628691
0.507972998614095
0.529139026799123
0.516667490639545
0.527409422943636
0.514377114201668
0.522076724872722
0.507061130721634
0.519885536072344
0.503288711140234
0.522008920446313
0.50611116298497
0.522583039803317
0.505651995459127
0.513444936108204
0.493405221055266
0.529857697101954
0.502138228603335
0.519054008437909
0.510883588155744
0.524373502970466
0.512139226093937
0.518395344128192
0.50924073775135
0.529957229186647
0.520774853061528
0.52630602117469
0.510954552060449
0.525615943309554
0.513299386433187
0.542843918921375
0.516170244710382
0.543653768533328
0.529263829243442
0.536791125351259
0.532660526348365
0.549197951953605
0.526776729471488
0.553790631182195
0.540778105565022
0.563016057918629
0.539985639522732
0.558681105888783
0.542436875169885
0.560487694978904
0.55685403838523
0.572297230387941
0.564322968319032
0.581988262240952
0.567851669612707
0.579109774450053
0.568881135764565
0.578522181287521
0.569286118716267
0.582795708432663
0.573357900969995
0.590262272296116
0.572065393834219
0.608001309902957
0.587461274926551
0.596129308464128
0.591042331207271
0.617460044170813
0.616349030844354
0.633209896491353
0.602267275265761
0.627664078775982
0.625613196564014
0.642599371118919
0.622192228383273
0.659507020280425
0.636432683245644
0.662680148442852
0.644855359417563
0.66594283744432
0.647118961489035
0.657759670567547
0.648265709626195
0.682680891827445
0.658225896892374
0.687605369575977
0.653067875076344
0.679402697368353
0.651682010234881
0.68945777725288
0.665748808761853
0.692149236968237
0.655748020305432
0.701326711592258
0.672359823114062
0.6931735618331
0.673890838608426
0.68547858481343
0.647461027630161
0.686453363770309
0.671285996687565
0.685410916603622
0.669565501415593
0.687361377124905
0.65963605218009
0.677134376740957
0.663342147558608
0.677063556608183
0.658983054521386
0.682794994546394
0.659669446642682
0.660869620996168
0.657806426219517
0.677238896066367
0.646599149813621
0.670496613283093
0.662430469844652
0.68908868706338
0.664295042118869
0.693655214244374
0.65788297019181
0.691068950971924
0.662740484400858
0.675065631610594
0.658855038454059
0.693746270343159
0.668821253881262
0.679594407676472
0.656271910668907
0.675731286513728
0.662091219841257
0.702853450536909
0.660706916802927
0.671126423224651
0.659826993900411
0.673113208764243
0.670378123614835
0.676016853875072
0.648175371202452
0.68180770877815
0.655043865422795
0.680702229798245
0.661128781755305
0.673241190820813
0.652931198920315
0.666705772483848
0.638998557498156
0.659057625831749
0.629153157274712
0.664383933481572
0.634469219210902
0.629065594773569
0.628636384537506
0.640074551150562
0.624382298946342
0.629972226828946
0.614841194449461
0.618379897836696
0.596484859689008
0.617778582773282
0.598100321089468
0.614859231672116
0.59465912619296
0.598927419326863
0.585518201920566
0.599351750426245
0.571788518211802
0.587048656714893
0.553441871642431
0.582843945754343
0.554089234446624
0.564413797894504
0.543039604216563
0.55737897009739
0.541420060814652
0.549888278076439
0.536664052860538
0.546049527218662
0.528771970065634
0.533368545580504
0.525135198426242
0.536950931222133
0.516779179011215
0.528204820042407
0.513769197434698
0.52374223047109
0.501945158950166
0.519973028837999
0.508518983480024
0.499176506865059
0.49833614487975
0.50990808302951
0.488229513732741
0.50372134787997
0.479157409731976
0.492912160769057
0.482063489716918
0.48227041311227
0.47353855626122
0.482646495068991
0.466735308010539
0.473924315572829
0.462216195668723
0.476010386924193
0.460819144360808
0.474069482170713
0.456187580306457
0.46624302770638
0.442932917564461
0.46335041796698
0.449843361772776
0.462817827394987
0.446246709013819
0.460375260223046
0.437837219596276
0.451002542135298
0.433501370178623
0.448262698774256
0.437720321951384
0.452193382388826
0.431440659080516
0.446897139755155
0.427416846418182
0.445029846763987
0.426840540995088
0.438589143268823
0.426571903702128
0.438132354676983
0.420262658050413
0.433110815306891
0.41728877208
0.422112573018953
0.416316084104876
0.426886125382187
0.404903720224536
0.419279313743285
0.412901911705743
0.420940646526654
0.414715645575445
0.415800234171477
0.407759023983033
0.419250086714315
0.399421276828886
0.407861191296577
0.401136940136558
0.419563991735683
0.396275999052408
0.407747547902812
0.40509770459733
0.411193491041089
0.398077196514876
0.407347258531319
0.399913795423526
0.402462334978013
0.395231362519619
0.393886954716644
0.389368040631796
0.400306046154161
0.392228465475353
0.402915241784616
0.391174852926432
0.39496041361025
0.387563361871917
0.396709542046823
0.386154625765234
0.392337164427883
0.383314851659878
0.392841916517126
0.373064147063378
0.390165576417762
0.384313237301492
0.391366004084135
0.384966278987708
0.387136035317955
0.364507595195904
0.383666282767025
0.374326520605184
0.381881612425104
0.367274197149365
0.381870733131251
0.365771715678043
0.377490187477432
0.37525306589161
0.381583683715187
0.363820764481704
0.37821390925073
0.3658640832078
0.380672727339983
0.366707783034856
0.369126092791724
0.367377040928002
0.381574828758372
0.367299484353053
0.372077881030829
0.365078254957766
0.36962372927262
0.365044474447238
0.371754301128082
0.357336113648066
0.374274722209998
0.360999689991574
0.371457660645075
0.360004502803167
0.368163711558957
0.36272557971022
0.37374654635152
0.355501998636881
0.368781207270498
0.354029825156369
0.372280908025523
0.354598263188631
0.368944488284019
0.35523019681147
0.362094308736037
0.357975023498432
0.364364770261187
0.356067422927747
0.356797980104003
0.347358952454838
0.358614383034655
0.355453464337225
0.359669438195652
0.344796476301393
0.363223206232863
0.347583267494434
0.355958027376282
0.344607424787619
0.355526997992289
0.341765935877924
0.354402461851589
0.336448522785427
0.352124228402397
0.338254205398159
0.350491116557177
0.345057862194542
0.35068130280092
0.337298467494958
0.347264399898256
0.335311816306232
0.342127119871625
0.340742858669565
0.344916597894689
0.340381455010623
0.34660917090049
0.330907480418267
0.339071760061634
0.333271003848718
0.336460821713582
0.332761506464642
0.343652995506125
0.331898691076157
0.334181659141259
0.329505874252307
0.338467264068693
0.329283167152615
0.335916799949259
0.326475671541193
0.335838766741466
0.320589420513009
0.331664292371738
0.318394078436861
0.329982087854439
0.31948762714805
0.331016289058097
0.321690573423133
0.332823152030554
0.31793260738601
0.324615028859058
0.314484874191706
0.319349238468988
0.311964967796925
0.322534318645798
0.308723455880466
0.323482611976369
0.315314123352659
0.315800750861862
0.310081722560764
0.315454906481201
0.303562732049374
0.31404363588475
0.307590296463019
0.309617211066869
0.304699300988239
0.307077339643665
0.308940369848022
0.307389855572432
0.300350978527646
0.307296375234559
0.300199934203805
0.306658187938427
0.293831537199323
0.302293001076024
0.292315774195759
0.298183022795872
0.293495636350387
0.299578103050393
0.290184796681939
0.300997964302517
0.294026195540757
0.297984687667401
0.287790794164723
0.294097526423353
0.28729859508832
0.294509646644238
0.280161500830528
0.291686705701142
0.282779933402605
0.291463753525299
0.276175730388557
0.286742988971493
0.277872128282687
0.285780910869151
0.278004057386476
0.286380665649904
0.27432894917283
0.282663765071392
0.278620672609825
0.278828794410174
0.276959163744667
0.280505590533494
0.271308439493201
0.278223124758735
0.267906748988507
0.275509650685589
0.26923928269868
0.274690385523022
0.269236267201354
0.27166563529071
0.263390167155637
0.276515761056597
0.259836527918373
0.268324518826021
0.266566392195349
0.266114436286606
0.262023285622426
0.263840662233818
0.262467428532857
0.265815418603436
0.257683901083017
0.262274405091917
0.25890615862248
0.267217135459216
0.253653541038801
0.260413129614623
0.252850880895718
0.265313043524554
0.254474865346768
0.26176512065163
0.256239378076063
0.25508760957978
0.250675029215009
0.258463862471053
0.249564766701141
0.25947915168399
0.249307623370967
0.255004459148109
0.252893139246334
0.254144841899739
0.246742899823314
0.251639851206268
0.246099920527792
0.25376182381154
0.244155316253131
0.255629094112328
0.247223205401106
0.254049603069895
0.243583337221041
0.249120257169904
0.243916158000109
0.247251561562044
0.241943636862061
0.248808475221155
0.242558346469227
0.249401836650119
0.241201239349944
0.247848876666064
0.239669137834632
0.243195750627154
0.238163787026408
0.243784765329902
0.237845062116692
0.242031207224051
0.2395668416684
0.24328239658584
0.238410732265234
0.241559238760209
0.237319597417679
0.242936290923071
0.237436564711117
0.241981019366847
0.236048723101009
0.246585488778232
0.23722008899773
0.237639747362547
0.231268000179374
0.238544569658547
0.231586044996673
0.239531807718831
0.231538180254913
0.235139540124224
0.230543258893993
0.23524665590182
0.230321052418769
0.240739592066737
0.229735036405629
0.235252386897495
0.22678446814434
0.233786061668963
0.227124668280186
0.232735367405416
0.225946215683252
0.234074637661049
0.226646074008044
0.234119951922782
0.2267010324329
0.232394533291282
0.224729615087831
0.234323493169598
0.224006428231425
0.231822330373053
0.223936887727036
0.22913047708344
0.21763437304728
0.227816650618729
0.216173499493807
0.228051441051252
0.220710466966584
0.224215346151021
0.218556588304389
0.221660818880716
0.220206838369949
0.225695248029677
0.216519349890397
0.221429975397586
0.218229797046917
0.225673849783909
0.218841802395039
0.221046757756218
0.214992042867684
0.22105282982182
0.21475251170212
0.224304981371326
0.214532710249588
0.216249886335552
0.215628537897541
0.224303391676968
0.212351864927144
0.214888858232206
0.212851810501866
0.216937863573256
0.212103543837773
0.218912897899845
0.212275473492914
0.218215138678726
0.207305725195771
0.21701972931296
0.20829809974497
0.211710327729611
0.207909519739333
0.214653623486628
0.211284164913048
0.214652746685199
0.203430740981593
0.215052746285994
0.205633454256224
0.210898448061852
0.205420813812132
0.210655098711015
0.204993821492333
0.205841901832835
0.201649242330838
0.209409618312311
0.202180329924382
0.203892931839241
0.202447057659814
0.204252346374021
0.195727889627645
0.204532724483582
0.195616155888562
0.202757132382148
0.193789860542183
0.202915583727884
0.192406951240049
0.198657579888767
0.192783872935018
0.198892919173654
0.191295487379706
0.193621225168979
0.190519947850823
0.198350433889548
0.192693783151203
0.193417045721777
0.186485900962093
0.195513829931087
0.186604265337115
0.19526390160073
0.188073386690362
0.190652763551877
0.186286766044585
0.194555351562453
0.184288623196897
0.188383744960983
0.182314783604942
0.190545846476801
0.184521917518049
0.185496751791043
0.180449240721794
0.187017827618582
0.179837065411132
0.187700050986359
0.177430260733186
0.185594217205111
0.17616618843025
0.184967595434695
0.174536660246661
0.181752950006948
0.179165492562803
0.183930950252769
0.176317655721399
0.185760092024754
0.172713952979693
0.181959890831473
0.175593058503398
0.176650990676049
0.172609876554455
0.177467027617957
0.169553856958211
0.177665083178181
0.169785943320914
0.175194392011418
0.169696635092447
0.176418230319781
0.167856710337401
0.176046734175428
0.167406839656193
0.172719800527333
0.164576531413
0.174005216011397
0.163421943024983
0.16949238094005
0.162709729712811
0.170739769962336
0.161630154999716
0.169567991154628
0.157950233653423
0.166389651321567
0.161378193236393
0.1645446108949
0.158915583541076
0.167965604930511
0.156618127260693
0.164846666897456
0.15676257769403
0.16418972282861
0.159034547839303
0.162523802442892
0.15574527876771
0.163480433515546
0.154275274932267
0.161222198589719
0.154526187836651
0.161943029610221
0.153302726068354
0.159104477020949
0.156741967642549
0.163633324700015
0.150083068605552
0.159726155516576
0.15664744994265
0.159796088258149
0.152290904690274
0.160421201197164
0.153936240615166
0.158224466574041
0.150981444034303
0.160087729377719
0.150139301477424
0.15766202441699
0.149752331234888
0.158063747966042
0.151536404249383
0.15889043236964
0.151380478819125
0.164875352332255
0.148226425782526
0.159123752055273
0.145647602521893
0.159562430825025
0.140749672395777
0.150765162285919
0.141235396069381
0.16458001951438
0.144212182444573
0.149935698677376
0.141400992673203
0.158327068525577
0.138774869035122
0.156922826157418
0.137701457430301
0.156621841766274
0.153221731384577
0.156073008599791
0.133640239397924
0.155953360888917
0.132944742229947
0.165517536690176
0.135282132773874
0.156581081844067
0.141291843451946
0.158724009391108
0.129458071218872
0.155355322064922
0.133879325190174
0.153477232941073
0.133974910626337
0.153278314028091
0.131655448805207
0.151727918304441
0.130227849106393
0.15656881266009
0.130375092912666
0.158195328422029
0.134180580257707
0.160540749952986
0.134002713325126
0.152655084981118
0.127030352013132
0.147394800839658
0.135442719931612
0.151434324184049
0.144173378918268
0.148159793454352
0.140702507544645
0.132847462308555
0.154919916503659
0.133229873126411
0.150972277294911
0.113001675679055
0.163371867469312
0.123191719547815
0.167303526725836
0.101157287055045
0.173332319086365
0.107757034902357
0.170336495805745
0.108842180944499
0.169864316246989
0.113737326603561
0.162679702889135
0.127493087950551
0.14460359786306
0.136954776683779
0.137748734360359
0.142703285536543
0.129911263282006
0.144073775475315
0.132738552458451
0.141759168141343
0.139526830366728
0.135405026168016
0.137916927628454
0.130656774871915
0.136378908567083
0.131133653220413
0.135802473689917
0.132620619919853
0.132391701546589
0.13550321769304
0.134895022126704
0.134702806065055
0.132500073732265
0.13198119765297
0.134534271371779
0.133962648710811
0.134138660504779
0.133893869574402
0.132254112229606
0.13254532229489
0.133539136782135
0.131261918606834
0.132703141781881
0.130782944598979
0.135752170869477
0.13391622965043
0.134678225998555
0.133756362104572
0.132541228097232
0.135071450322182
0.13401572301
0.13367297845361
0.134142767351743
0.135823456915735
0.133377010010869
0.133672448711647
0.133629535661071
0.132452804129865
0.130904452859976
0.132786690312591
0.133669667447307
0.131916883800977
0.132574368756699
0.132280075708648
0.133592344318865
0.133725518018753
0.136376769247155
0.131412328799557
0.1352549769922
0.135153125258606
0.132675064729004
0.135091757962704
0.132478094533009
0.134742434190674
0.1342424434504
0.134144317256033
0.131087733048286
0.132267518855476
0.13254801357238
0.134750695792023
0.131231939130595
0.133759759071774
0.134171951165092
0.134167555998831
0.129938106472525
0.130946406030829
0.129820001169478
0.133493653785636
0.12944330839447
0.134920279688053
0.129345218039952
0.134746913808586
0.131711210936584
0.131117285732265
0.131371014966079
0.135214060491291
0.133168603028949
0.134513338857495
0.134484868904317
0.136228666328964
0.134526667126781
0.134443088489543
0.132922707336843
0.136759046041704
0.133743592287203
0.133642347431431
0.134532469328543
0.134938804036426
0.130824317492616
0.135559625621549
0.132533634504677
0.13390756482227
0.134304214265077
0.137011024411962
0.133902727976937
0.136849364833816
0.132591809885817
0.135142687979001
0.133840786516801
0.135035274415523
0.135995566209112
0.138102134369503
0.135085918765518
0.138946156522266
0.134049212304449
0.13643343930488
0.132783434272343
0.137513310761435
0.135533532169791
0.138832643289273
0.135974929619617
0.141389597999351
0.137502516544773
0.136076101766478
0.136004383770803
0.1367880669706
0.137867867723298
0.137422337471051
0.138054576166534
0.138053538268658
0.132948014950214
0.138688448370635
0.138461794617911
0.139266535509793
0.135272914294639
0.136848161171977
0.136660841708302
0.138351460323251
0.136658949694673
0.138921632900133
0.136068484094821
0.137717472770468
0.138769964571317
0.140393177450828
0.136376874451665
0.139318250226229
0.139225005484041
0.138092282215334
0.136890116827012
0.140602433639901
0.137055793362832
0.139959155107054
0.138153076144347
0.143799620615755
0.139117138262891
0.141591710588019
0.138296153391665
0.142491963886485
0.141335797957808
0.143006393181425
0.14198522014903
0.141854849232219
0.140954407517843
0.144023750551804
0.138457934233002
0.143453425673887
0.141570731310217
0.143692436373781
0.141151520248324
0.145552687676007
0.140578883422723
0.142984750983853
0.142221473023965
0.143582282508638
0.141295097399227
0.143122927699441
0.13979556870464
0.142337476175401
0.138524787909031
0.142252992648629
0.141152975568753
0.145145931649854
0.141799606657217
0.142380316621918
0.140673106237876
0.141288753738465
0.13949257990283
0.141638587091194
0.138664702556709
0.138690833774593
0.137003041480827
0.1400917414782
0.137091774627148
0.137286269392263
0.139388215461334
0.138144046921642
0.133176517268375
0.140005994135666
0.134672090463261
0.139732154157724
0.135352112738737
0.139891159293904
0.136252615269253
0.138249033723537
0.133405267243701
0.137698809723272
0.136038047021594
0.137583852820953
0.136489350891576
0.139089109380992
0.133874917475256
0.1360941347474
0.135826630069284
0.139094598758859
0.132202616970358
0.133976512269741
0.132494561039848
0.13799297007348
0.132714114822306
0.134968259241698
0.132570370623314
0.134065968562077
0.133295270986308
0.135227841907356
0.133315711732441
0.134099868397903
0.129001098143004
0.133592218308036
0.130087495923161
0.132543413287184
0.131322414908214
0.132411092791569
0.1322247111774
0.135497068011204
0.130576353677465
0.131883149393132
0.129115605478162
0.13426034805264
0.132088770575031
0.131664504182918
0.132500389278676
0.132409968575944
0.128893395977258
0.133086060665337
0.127928178237419
0.133212016966003
0.128413316620523
0.130471264068475
0.126283477423023
0.132173384459777
0.128352529956705
0.132252786340519
0.129632169191062
0.131896521702205
0.129276005079536
0.130207502570607
0.126986739923593
0.131776653983604
0.129780339621208
0.131597766161645
0.128877847209433
0.132271463934014
0.128094090782388
0.128897561562185
0.127568433425675
0.130528742754797
0.126607242584289
0.132471610042437
0.127341673270812
0.128281610914855
0.124837229168529
0.12555576206534
0.125202080595845
0.130085062514782
0.125904835371226
0.127792327453302
0.125781344202617
0.128989728035061
0.128227421878314
0.129221322495622
0.12709550388242
0.127203130120254
0.122889164431166
0.125075703423262
0.122520968898899
0.124117947733421
0.123039481250953
0.127759450912071
0.123327596062295
0.126870714815211
0.120346413282445
0.12244197631063
0.123740211319202
0.123655154575265
0.122678397602602
0.123976564267659
0.117723053553716
0.123369933398655
0.120647429635254
0.121958779353029
0.12157291823456
0.121707255735772
0.11869827565118
0.119984090919669
0.118426231514046
0.11894387302416
0.119079294463678
0.116526763793457
0.116717230789441
0.120019240237516
0.116805232457093
0.116813561462606
0.114000753452333
0.116274600470004
0.116835102363631
0.114088945416505
0.111799148099248
0.117031915854521
0.114397005046468
0.116618310431963
0.10986404687293
0.116463689165249
0.11088568182731
0.113765638147165
0.110076543159458
0.11208843978848
0.107138603827224
0.113035988007377
0.108056560097572
0.112528790772238
0.106442503097774
0.110034306639193
0.107224163455626
0.111420330652886
0.106654414096727
0.11002417366964
0.103243520992162
0.108159324943721
0.104292725821333
0.108348640343328
0.106157211769593
0.110791128758512
0.103928771674284
0.108550212543023
0.101351883917562
0.113103955867245
0.105489935720439
0.10580793154589
0.104986491739549
0.105763549748657
0.102335258923449
0.106492475757783
0.101338972808652
0.104698209162149
0.102497156353192
0.103864158769588
0.100358837807248
0.10504947173822
0.102931864003376
0.102643208789793
0.102142681722131
0.101299394865852
0.098701505393263
0.103518194425487
0.100808042617232
0.101698948250385
0.0989871154532293
0.103727052391007
0.0975800004461908
0.0992227358613713
0.0988796355049804
0.100793281701904
0.0999297526706653
0.0990187429720611
0.098922211937567
0.0983144379882481
0.0962966779393695
0.0964895080375758
0.0972643383804795
0.0988210193112799
0.097860720323534
0.0961506604570364
0.0947774846566342
0.0990468400868813
0.0962447863947247
0.0982648804099372
0.0946381196385141
0.0961460744081161
0.093813664368818
0.0942733607408109
0.0936435094025631
0.0971013412413241
0.0907977719917864
0.0930379411846749
0.096207786204381
0.0935397596154418
0.0956410657958753
0.0898204489312402
0.105063818551338
0.0958325380283481
0.0904142177467869
0.0970681142617891
0.0914374178420601
0.0939650623160927
0.088544833069309
0.0923389897617038
0.0917546535264883
0.0959846303086901
0.0895885604514609
0.0926524541577435
0.0901356348896284
0.0939944631433235
0.0885354254678773
0.0918145409560158
0.0890816152422891
0.0917549375605295
0.0867364222397108
0.0917571126415172
0.0875157009927766
0.0960512877466255
0.0968268045176247
0.0894394096539018
0.0930782663575204
0.0878407403363522
0.0877331445596117
0.104482459694163
0.0814688931727609
0.0956077973289267
0.085097556773562
0.0937144112769495
0.0854154759681788
0.0954773425309977
0.0814594612842273
0.0942727890283467
0.0867530547481958
0.0929123920765502
0.0900134122726101
0.0889095447492439
0.0881963785505218
0.0931423839185679
0.0851560034048684
0.0913163320445369
0.0849020690390936
0.0908267284796826
0.0858199734905636
0.090362498122187
0.0853521312694914
0.0914917038609935
0.08399994982652
0.0958826129106534
0.0885681467440764
0.0925665779802795
0.0846539886957412
0.0923263493193859
0.0847083817741547
0.0986846435830339
0.0872299781514527
0.0890111826482769
0.0896406942237337
0.0875400591280504
0.0869260112978151
0.0889346159266248
0.0866883968759888
0.0881759959450795
0.0853954882439928
0.0875569813875348
0.0858049926167819
0.0884922544567649
0.0845803333533721
0.0868965797450804
0.0875678390286681
0.0870805857729107
0.086644617223937
0.0886047320302511
0.0861383019477719
0.0889509058690934
0.0834327486219862
0.105872970136287
0.0825761506234487
0.0970153240279166
0.0856936063620859
0.0920280570281166
0.0836147670265073
0.0907676550074855
0.083013638326238
0.0904337645516741
0.0813551240370649
0.0870688376653545
0.0846372688412492
0.0873497192642317
0.082370417043695
0.0882529267531668
0.0839397220921083
0.0881106237599287
0.0837102581816705
0.0890490562225737
0.083587510496631
0.0883185510454879
0.0856656740270102
0.0877055603689224
0.0909127375222797
0.0852388885183789
0.0914103079838234
0.0811942164315105
0.114499894783525
0.0819244081123494
0.0948220308366041
0.0874262654217094
0.0887287941883943
0.0880660649884259
0.0875912500346765
0.0933015709546574
0.08876057989759
0.0859961461889977
0.0898226469321117
0.0911601690662137
0.0872304205953554
0.0883999908597669
0.0836074487220806
0.101956122410627
0.098048150437096
0.0873540494587368
0.0947378363532929
0.0823895554904927
0.100333103372297
0.0964801695605363
0.0865472333663837
0.0954453020158223
0.0851185771642563
0.0948290950220176
0.088081589341928
0.094049284878888
0.0888299532432128
0.0962343257220113
0.0862479400234203
0.0938989118831035
0.0895828259636816
0.0928506560925871
0.0907573197144893
0.0963157337076709
0.098861269180416
0.0957079914204467
0.0878801829389862
0.0967862068041485
0.0905903983048387
0.0946260163968821
0.0880957347140446
0.0965749841798037
0.0935099322703247
0.105168966941165
0.0962741002679604
0.0995480075437313
0.0996570019592207
0.0952344738929797
0.0912790533460652
0.104193591283295
0.0927752958660385
0.105269361921692
0.0722668240256683
0.125461199065589
0.0942693574129243
0.105519989001042
0.0982904693051415
0.0985725236920548
0.100263513352463
0.09753363827113
0.0959621592124047
0.0945992136551967
0.113545250735621
0.0924519940816173
0.111516828100248
0.0915843518284892
0.110795555107903
0.0980828479996922
0.105517013965632
0.0993662030652827
0.104857667458739
0.0957229791301167
0.11451602660563
0.0940623198827718
0.110771719225048
0.12336101806305
0.0996211493051056
0.118263178674199
0.0987230864276252
0.121325227032406
0.11356688062345
0.101160267339267
0.112000735624692
0.100388483477492
0.113197020240664
0.0960046870864095
0.120302797599215
0.121203683293017
0.103635413663569
0.118760143056078
0.105336857821985
0.113209577908176
0.12634085516405
0.109357285400383
0.116256139529982
0.116031524932052
0.117266028509109
0.0999174028256959
0.148767235775599
0.100656783773325
0.142915793103198
0.120288331047538
0.130767847750435
0.125952279424426
0.129769709692614
0.123728756140888
0.13667249296361
0.127819903156611
0.129845340531365
0.122771041745736
0.1541218866402
0.134387284636243
0.133270337242668
0.143284059935408
0.126581298954214
0.146826088065159
0.183395331638932
0.160220233458149
0.148650521711722
0.146274160544614
0.161150299260488
0.158142146874356
0.148667309363822
0.155641045266556
0.150680351577465
0.151547705808627
0.158429704573727
0.161971299258907
0.163878250083971
0.157340970449294
0.17218056116178
0.154420205685473
0.176249273286811
0.18083754475929
0.196581665064964
0.180726056693282
0.178246852537651
0.201676564063625
0.177013151749505
0.189870148652327
0.178469905762558
0.193047614807914
0.188444081320866
0.191066208076247
0.188870739790036
0.194239671836162
0.214473823465704
0.187532104911567
0.22442378230384
0.20315572228554
0.206313546967337
0.196859398358596
0.239977599315378
0.274588877933884
0.207819630598593
0.256996644078765
0.197272037446918
0.313319469124437
0.269231727003474
0.264965229042401
0.268247046647758
0.279900327209431
0.275749295376321
0.297165926877486
0.289777586477617
0.312082096587066
0.311047850108883
0.320545048832121
0.28608152968005
0.394204557900559
0.352209285203209
0.375789394655313
0.350815569389666
0.376788426122634
0.379060106956999
0.393516731109156
0.380373456258172
0.411686244196951
0.374122396452334
0.459157619613968
0.437870712397431
0.440163295834475
0.450885252025443
0.473156545469831
0.472082386553542
0.451489890043018
0.535387241700495
0.480327448622279
0.511096108920036
0.497916527843588
0.526937008625348
0.519830470137204
0.553992586857528
0.561517348882108
0.549232488127346
0.570343236170233
0.573476980725938
0.580101793666713
0.581139922698533
0.597281484821333
0.595111406369911
0.608534586567418
0.625402075093536
0.67663391288917
0.673700131304623
0.598996212665214
0.621166258404414
0.602296876472743
0.650835649222687
0.646285184535642
0.637043164228053
0.68053044159209
0.620366487529986
0.638417413979025
0.634841714172868
0.637153884788818
0.643059875464006
0.643097933048512
0.650570261491445
0.6414471069402
0.670782506465667
0.605796044544722
0.712760724152909
0.650115662148775
0.650671004281983
0.641338768726861
0.645116059316153
0.641644014327774
0.649895851597688
0.636732241754241
0.666615835592324
0.641736604748845
0.623263616880977
0.621849320928092
0.631774324458956
0.660072656034558
0.610911646916862
0.604412141051474
0.591726943674912
0.579200536807484
0.585471216025935
0.558346527851104
0.647418506933966
0.594839168720521
0.565750219538369
0.57541072277893
0.559133325057629
0.56909803114208
0.555785519212725
0.56042338116193
0.560200052259409
0.551207001342687
0.558551468128733
0.557386729582534
0.547518052917457
0.558241899023834
0.544876630846323
0.56700832758622
0.547054523354314
0.550239475170549
0.544148902666577
0.556645755376498
0.550322999061034
0.557344472676508
0.546700380511546
0.550377412444516
0.55365735848803
0.551075509197932
0.544875236016266
0.553857889332133
0.550180309823881
0.551258027187147
0.551004133229514
0.558520807187549
0.544604098657541
0.552410904147582
0.54083938403014
0.551125558121747
0.544454105765753
0.553390987958399
0.540866764639588
0.550279752688102
0.540464198992539
0.54357036137504
0.531521049603605
0.530299677296262
0.580199959531828
0.521718581941499
0.543242684209822
0.528432199961205
0.53439017572828
0.526476118160744
0.53182731844007
0.556980821363707
0.516712774582556
0.52177658890561
0.512241242468613
0.51380038893622
0.523839272028953
0.508330253200152
0.494999059235387
0.504017119758508
0.465561602980852
0.583891787112495
0.473402012645732
0.584224315427275
0.503193505421876
0.48527588189469
0.460291172610291
0.523243777015084
0.485998183491961
0.469482246214179
0.485672365766987
0.471854165351466
0.49798329178427
0.470519098748576
0.468172113337327
0.462450110814379
0.45209026399963
0.478916937056461
0.463580875955208
0.444518179318252
0.490840253223631
0.465519420831919
0.460762407121944
0.494387863734769
0.467779432785742
0.440629930167877
0.430128928196484
0.435091285963183
0.417621878694587
0.44617177634844
0.442517284807449
0.419778326143808
0.418700531858657
0.398827426414057
0.413977433670368
0.402744970960336
0.415779732542235
0.389487807407038
0.412901064101088
0.407575765956795
0.366774111285042
0.411408067969563
0.381056541667726
0.426018316318162
0.378894486181523
0.386079718647673
0.371130941890409
0.414050020508191
0.379892070785876
0.382877188532964
0.369853935329721
0.358481603654279
0.373952842421341
0.369894584487058
0.345292080119202
0.36820272599175
0.346676708247547
0.370190712053911
0.384945194104376
0.371753472663041
0.35623644180437
0.343871708823145
0.338108386269836
0.346951290739009
0.335099907987874
0.342872031706242
0.314011892053881
0.369296352115542
0.324114481906743
0.361676175650921
0.353241918985487
0.3410797212474
0.345546973162451
0.34829102826061
0.347844104808116
0.373255509053894
0.368689412769646
0.372866725616454
0.345872602995102
0.38218306915893
0.365322502494135
0.376799653175182
0.373092632045732
0.381417208276387
0.384168598778978
0.393998973656528
0.403999046647826
0.408201773857357
0.407176450201335
0.432038936599371
0.418305429888773
0.464128080699294
0.443734605251027
0.439740742182939
0.495990081522234
0.4825475793671
0.501112086898358
0.476155832407625
0.496205455416362
0.502441729265096
0.510842438664109
0.513153716882093
0.502060679045819
0.55284174902137
0.543359464809947
0.531532100220947
0.542788628810483
0.540146847877794
0.560055835079807
0.55967760382284
0.595511856339476
0.540493624281076
0.635935193071797
0.573968180741695
0.586445528720689
0.581966724805733
0.581663452507395
0.594416906600164
0.591547432191728
0.599729318162301
0.58595784292152
0.614033455882777
0.609848539317563
0.59929086188353
0.617022697476267
0.610043249341108
0.6115483272081
0.620544935469162
0.622412159957028
0.628498431555873
0.623382970908808
0.638317266838087
0.621510834926162
0.65748673789187
0.673700780565335
0.633415968832233
0.662250588877137
0.655644738398502
0.67140011855544
0.663746651314487
0.678344961594622
0.683127920046944
0.681602409642555
0.688266934558581
0.692433102064043
0.689056563741432
0.696050108347273
0.701142017425115
0.721176774290444
0.699255433414059
0.713488726318636
0.671850198817004
0.784893180277727
0.736050121685601
0.747833147259793
0.739697141756467
0.736283509303924
0.743556731479913
0.738386453075397
0.741088215746371
0.745757373748048
0.744236306505107
0.741346196264972
0.755426940297186
0.748027289552384
0.752654135662974
0.747401020072696
0.7633570580574
0.763144640671224
0.744376260392012
0.750064847800238
0.747369404003195
0.751562906625484
0.739605415281241
0.766161332534175
0.755895400766453
0.756260528442425
0.744608946279811
0.754592195691595
0.755693264870401
0.742422970033914
0.745069895084318
0.750601854768516
0.744112650110038
0.752548821889021
0.735730989610774
0.7642848251706
0.769205148756042
0.765321733970123
0.763176535396609
0.762840220739068
0.772035736360323
0.775131321122876
0.772382404496294
0.777261410167141
0.780714897304055
0.776313248660813
0.778038557965192
0.781129501895279
0.797143026700806
0.79232475713247
0.80116957283758
0.784484760409323
0.774142935774258
0.785916904177882
0.77201495098471
0.775112333626809
0.769719371271061
0.77382437199657
0.765836812094313
0.750639028713244
0.742865055220211
0.760416951365993
0.761650682563677
0.734871601409381
0.734775141514311
0.717448029128472
0.730609872918233
0.717641249096356
0.71722006194317
0.707028237790991
0.712230947764204
0.703999525808746
0.700059715157674
0.698797790633564
0.697921473456968
0.695330217833319
0.697045309125002
0.698701266553349
0.688416116605005
0.684152293564575
0.693187970786461
0.691429219687738
0.691652303463344
0.686642762988995
0.687481039260272
0.678748803933413
0.692296957197169
0.694362260163019
0.696592808110642
0.678337930354391
0.682944714662537
0.678625271287846
0.685593272824366
0.680454228978332
0.678691873804174
0.680055908538287
0.684587659398753
0.681337341800424
0.676080343370652
0.682656988589803
0.685854721563235
0.677644108325691
0.673802382122813
0.682853770328716
0.679503545934559
0.672284476845959
0.674158745740851
0.675245275254599
0.677445441671518
0.685543465932765
0.67749165289472
0.682341973419608
0.674544277811376
0.670063806627867
0.67537387266898
0.673268241071939
0.679983691444113
0.678973555498523
0.67723636028755
0.676761470529554
0.678915450499174
0.678599803137925
0.673564120963249
0.670793472440825
0.671380208661324
0.669706980638324
0.670598001732513
0.661131643707736
0.656167417918863
0.651318618579005
0.644125915788191
0.638012578722045
0.643591110063757
0.64374747529967
0.630280369433396
0.625056038257484
0.617504178904236
0.616247773737486
0.616316209626972
0.612782626309005
0.609688738995178
0.60599039279818
0.603567971711771
0.596939114516549
0.594917167907198
0.596543531857092
0.599126474184772
0.594461097645789
0.593746226920099
0.588824199384883
0.586690728603614
0.59233306143358
0.594061648202695
0.596246689541661
0.600389811575066
0.597671796288533
0.59522278206429
0.595314052419343
0.59657683111929
0.603243341795139
0.601159556276189
0.602457817125576
0.607342117745306
0.607203924801966
0.609656954544703
0.613056625129466
0.617636964107215
0.620158680460098
0.624742730540389
0.623192957730913
0.625806258156741
0.622641763524884
0.628108348170467
0.630549568965539
0.627741220833699
0.624227348369285
0.625786735223548
0.625009419852824
0.620661310492221
0.621392030752657
0.622682502854035
0.620996686402445
0.619564620764997
0.619348185264347
0.615729168303773
0.614722138182843
0.615363818475968
0.614267043579592
0.613168110982504
0.608610394767583
0.607430518877563
0.599981505117554
0.600399063422619
0.601080833965114
0.599247737799072
0.594232820617574
0.592893440410422
0.590100060780598
0.590291056438114
0.586961126100154
0.58850557878168
0.586797135120616
0.584406156452553
0.581740001114922
0.575027777804342
0.577082184012954
0.575304273468285
0.576199487075292
0.573758216845131
0.57291395731706
0.568778769295717
0.568193025915373
0.566468403534662
0.562717343804261
0.563170035634036
0.559304634504929
0.551992188690651
0.548561758243942
0.54690379931386
0.542388122798335
0.543568433937319
0.54111369441431
0.526958018558298
0.525922142721653
0.526411030144156
0.523263140217845
0.515223296619431
0.510767178208077
0.509173870478888
0.509206872268149
0.506174128396969
0.502545911462207
0.500122817618161
0.501243427199534
0.501104301805773
0.497465103560564
0.497166128560945
0.492652409222458
0.489236655338711
0.487081082414899
0.487840181690033
0.480283542851279
0.477712511199167
0.472010506012872
0.466638121437199
0.461033095183136
0.451766872178188
0.449062767512504
0.446394865184488
0.438788613367953
0.434881282658327
0.433717866372416
0.435269804894948
0.438454789940953
0.442316936552713
0.446656523217696
0.453926281577996
0.462988941732137
0.474245073720098
0.483679781513851
0.50136206841409
0.518958863506377
0.534585032159793
0.550832386053002
0.570728424716413
0.586214421070292
0.610882404434096
0.631293373897044
0.644374841204605
0.663871030203026
0.688110530833125
0.702611744406827
0.721839320778603
0.739360595586867
0.759685887519359
0.77792477757314
0.797713019539175
0.811973430598065
0.823456617777336
0.840908594243355
0.850214437829329
0.870243887670087
0.883864639154826
0.888914217254708
0.902222941329518
0.914944420555599
0.912560126509337
0.918123528999888
0.935743918594318
0.931889837261829
0.948422324639875
0.942904840614819
0.946577982244522
0.955839566773163
0.943111847542303
0.938320928116663
0.949225409969208
0.954126901454893
0.963835047512422
0.955414128357794
0.959182741397462
0.954221304194398
0.958951578058496
0.959559970653424
0.964528993535879
0.979689572951338
0.969843059117063
0.985507987532924
1.00312427813075
0.995359237483915
1.01366521276143
1.01967035687
1.02383026927961
1.03537124100376
1.04438654451519
1.05327725202021
1.07831036074799
1.07990868573152
1.09952977898868
1.10915167070818
1.115501913145
1.14690381231377
1.1545992724215
1.16499803184562
1.16813490641884
1.18280426664596
1.20250683622599
1.19715507464402
1.18741686429023
1.19366995490408
1.18987123527145
1.18677229676009
1.19905458399353
1.16722772452154
1.18218595373213
1.17809689166055
1.16864716050294
1.16761209444679
1.1852189757535
1.19264395288557
1.19922868747562
1.20186461173778
1.22628490713869
1.22559584481498
1.26238919710422
1.24494972809118
1.26670747450635
1.28242435975284
1.29731340580343
1.32914849204231
1.3660797391792
1.38277956916399
1.39873263672714
1.40527313919882
1.44361043153121
1.42362256178295
1.4197977403681
1.45813107479928
1.50093926381322
1.56976010854143
1.53950274933647
1.55667369865412
1.58787671707308
1.6155498835107
1.64538056350867
1.6670887416519
1.73175391032408
1.67695013958321
1.73601298876446
1.71452135731683
1.83444470280923
1.791213794624
1.80419800391146
1.75975847623805
1.77902344347861
1.78239627188532
1.82744698243418
1.92398794678839
1.85532361542045
1.89678634808359
1.9838742365495
1.92914601964769
2.02254290300013
1.89362523957647
1.8973200577611
1.89301578751591
1.9712349196389
1.85755209322916
1.8777593920475
1.8614536227619
1.99350326130941
1.85436140331614
1.86927621139349
1.82496239459277
1.95821514078625
1.94552442236189
1.93531964590714
1.80556751158196
1.88827095037894
1.99196320601764
2.07533541957352
2.04611926032493
2.20083992376419
1.89458626272807
2.064132243345
2.12937782142555
2.09940304390936
2.08518713797077
2.14468065344459
2.09150880864135
2.10027587114335
2.03829717077062
2.33983402171308
2.22690832947626
2.35608004795369
2.01941352657432
2.2369945723936
2.11217004598359
2.14109668135133
2.17511728648099
2.59019331921323
2.29665210077283
2.44397996236114
2.22909619558225
2.15717958393059
2.07971640127251
2.47669950349272
2.08725098327216
2.55965625484762
2.14158918846977
2.2683293867526
2.38324823474515
2.62779000468623
2.16214901950717
2.65970554597339
2.20278486476832
2.14324328956334
2.1311404306805
2.2283129229952
2.16343567229979
2.19563175049755
1.92373008775205
2.00006037224938
1.99753074388731
1.90354477321148
1.94505223059021
1.88819534005299
1.65847595389434
1.75180491968319
1.81683466033109
1.7830589081281
1.6997665662886
1.70068971201035
1.72973610852284
1.82060790978131
1.72218950036175
1.70266488292825
1.63894047018274
1.66816098697678
1.81189180961833
1.65851158676464
1.55800994354263
1.68708409251564
1.59455083096622
1.60518754041272
1.5761358939236
1.59414268100567
1.57334659169276
1.48043847607038
1.41954799492425
1.50553679606327
1.4224932475081
1.40499033562703
1.3792089126092
1.33241398052537
1.329505089206
1.27933137254866
1.21398173178058
1.17015883165587
1.12892899887094
1.10505653998636
1.05249642963676
1.02799460360146
0.96454589828778
0.953302788727159
0.914621647384127
0.878365815139606
0.853837090907114
0.829886647187503
0.796966560620651
0.76759595737997
0.748855844002329
0.742096835697068
0.721724846347007
0.715353851530072
0.704232207003154
0.704337885346865
0.690466774291336
0.686445222347981
0.670198479694728
0.6789709652363
0.677566514876084
0.681618006678628
0.667979233829441
0.688709422216313
0.668511077628657
0.683732969192704
0.680250774951243
0.682417074426111
0.678866344971426
0.686498968132761
0.663005772948633
0.661545887017164
0.662978466659305
0.664428320652429
0.654433446398657
0.644755062843473
0.646397325502626
0.64634891719201
0.631362962961963
0.628973985005382
0.623651943414868
0.62194544985312
0.618768798333539
0.622516600086214
0.615759983874781
0.624147488362823
0.619193132784502
0.628274783637412
0.637038971320752
0.638434820836936
0.643557163756952
0.637966348151989
0.643754227868828
0.650871462366528
0.640970835620563
0.658446425268907
0.647924053833636
0.655162260323933
0.661799599504884
0.673977568749674
0.665343272391324
0.670105555470334
0.664717064608499
0.667688483638362
0.657691169973751
0.653953184581411
0.668273410723732
0.669440207762193
0.6813552159352
0.681467300357379
0.677736451025898
0.692465174168939
0.68685386377274
0.714566708880965
0.701524040854135
0.710212350726696
0.735594071786451
0.750820194984654
0.761793169600627
0.800050583548512
0.808554625870024
0.83483956176663
0.836245457697629
0.867422180496909
0.872016265182142
0.866488564634196
0.859321852545863
0.873031717135732
0.847728939480851
0.856157706917837
0.850463302582917
0.851198652630134
0.828035296508939
0.817506093019706
0.793099239359493
0.79204027530112
0.781343410120276
0.790470104206813
0.775928859317124
0.792748301796628
0.774145905505562
0.807784180556514
0.813460045599097
0.802996238245163
0.798210607839713
0.816209837990312
0.77405980978764
0.784944841966878
0.766594055446672
0.785234100769669
0.772811287236345
0.755943508479221
0.739982778650796
0.760098073511567
0.740321793166024
0.738108443191074
0.716171352138423
0.743112775279364
0.718436163549202
0.715817144798867
0.709111877136779
0.727139538106973
0.712916728344871
0.709383560373816
0.713819008223394
0.707753402380372
0.711151024571101
0.694424731947447
0.691272349883579
0.715255195250163
0.664008868896692
0.678423455102264
0.671222752994737
0.687841277718629
0.658628900533103
0.675005914689973
0.674149202335981
0.655136434175223
0.657523346879552
0.68948774334511
0.650180459141299
0.66840550623075
0.648709784504676
0.664226565250644
0.63838104318471
0.650521104729768
0.655561808439577
0.66607644008174
0.641377208057249
0.64622835958339
0.638420919896995
0.642482109458119
0.633000291355126
0.637167803762079
0.641123091824723
0.621525334156938
0.628120534284085
0.63817497925887
0.636000843425753
0.639830483985293
0.636474112966097
0.648913099072216
0.635666054480152
0.648950699559923
0.653710518900223
0.650332461590725
0.617308955554669
0.670222553609201
0.650918185982563
0.687398040431828
0.646014602071149
0.659404717880246
0.673720900924188
0.685555273350202
0.682682354257327
0.674486235834067
0.672549224640478
0.707613370987856
0.679198992556651
0.717494771035323
0.701485430850156
0.69574430760652
0.706835263472502
0.744986646090525
0.717361038642416
0.74072113747045
0.74361556237901
0.802963149613272
0.806772206362866
0.841944021965783
0.860031361724863
0.867561375786241
0.840486382450933
0.881481712026518
0.935817698499381
0.892703082643892
0.893560042173885
0.977631134012944
1.01623475909488
1.0320261416094
0.964886713376194
1.05974013743731
1.05995500588239
1.15090680626503
1.04718556358503
1.04238735087475
0.970387075671224
0.979867595900149
0.976594801560048
1.15983195739631
0.998956224583132
1.05115027454743
1.01159590574242
1.06227116648851
1.03617628294462
1.07072639837588
0.970280295572104
1.02987359695679
0.936549891866083
0.914879611419765
0.909998097845071
0.981993093748802
0.964086570841856
0.974102385735454
1.02593716414403
0.969763913938854
0.906442182148435
0.927785481174116
0.955071985191462
1.03549609080824
1.02792675385137
1.05451864543013
0.968365667601992
0.922607898499089
0.919632101055684
0.996944236559362
0.898070302928338
0.932046352978297
0.943324534118005
0.96477477913703
0.928847908478821
0.973421771926944
0.957129411639408
0.964923215911755
0.902249202866189
1.06961668391022
0.952759377089069
1.0296547765673
0.980269906759243
0.971218988653886
0.93218230709739
1.06853937907991
0.853896852484333
1.09003368200328
0.982739890198484
1.0074607032908
0.983444730339162
0.895045997158519
0.872655510701371
1.19372442300685
0.941867032765245
0.923911212042161
0.906005725593105
1.05647807304247
0.985695973902116
1.11116017038176
0.968210780071849
0.988598686416664
0.851856364963007
1.02492061084545
1.00201295903183
1.25914274418288
0.99477728574337
1.21808834919632
1.11719104567731
1.41144276959961
1.02986517814166
1.18343952041293
1.19402981528005
1.20193596798241
1.23836434198759
1.78523795098126
0.930806525806985
1.30998231042388
0.992962871851747
1.56641699654007
1.07706922909612
1.18321773921167
1.32024313523368
1.78252037058628
1.13029176482782
1.20132719300861
1.45261527069247
5
1.33441310400526
1.38562303880302
1.03083280074666
1.53114892243365
1.18239616651932
1.26597970725128
1.22849701980935
2.85156930332546
0.877620048541864
5
1.01179387795346
2.46326158962542
1.73787308781287
1.32903537797076
1.15642296949341
1.5289914813146
1.15576397776775
5
0.89770302783963
1.30702228103851
0.814220789539811
5
0.972988774623314
1.18395265491523
0.916714884674079
1.51237149155054
1.32190135334876
5
1.15469636946725
1.54570430622732
1.12408273164006
1.71017426865254
0.869276224637041
5
1.02716350466958
5
1.05909480890176
5
2.26216206335108
5
1.58244598350511
5
5
5
5
1.32016798412105
0.914736821882943
2.12940411941808
0.622920775663566
5
1.06756880163129
1.01289343242516
