3596
4000.36533379555
650.420452594757
1
2
2
0.0768136294855868
0.0841810998485569
0.0738393162692492
0.0784986128713247
0.0775108286051343
0.0829468795048838
0.0710186820460705
0.0857274051387856
0.0744074409884214
0.0848145479258784
0.0717922741609786
0.0771365916132164
0.0778396838235301
0.0820685705348592
0.0712507642200123
0.0787851679952478
0.0714485778015963
0.0797452915868413
0.0678014830455349
0.0793032566801115
0.0682815069187006
0.0850005354988524
0.0671706463703536
0.0857576348197607
0.0727988140184193
0.0878735691358478
0.0760830796128853
0.0772830699250142
0.0701005799473152
0.0824553100159824
0.0711491847530665
0.0877919361269687
0.0766314534186305
0.0824598415044573
0.0709495725876884
0.0819511917953166
0.0773676826779515
0.082256813507185
0.0732271221686477
0.0763762975480567
0.070775983790698
0.0820231229326435
0.0723927200478946
0.0817795193315444
0.0710079333499778
0.0821532383644568
0.0664830850637552
0.0718707522919587
0.0721432884253779
0.0836062464099444
0.0724059740063953
0.0728880607369469
0.0703795096745716
0.0915053343247899
0.070580969185836
0.0870628570230252
0.071609881353991
0.0813912830964668
0.068551510263834
0.0826216189107973
0.0791973748727011
0.0869715908381914
0.0746734027807012
0.0852120029801314
0.0716936048142103
0.0693434370084441
0.0616161100596753
0.0820414455312352
0.0657122111145467
0.0757595808397737
0.0693076480715697
0.0791527199518752
0.0756459426439984
0.0821768897422641
0.0690114526085266
0.0804812288560894
0.0637385736289342
0.0734636458175393
0.0663309285573209
0.0890884419338222
0.075270839476004
0.0807198198990881
0.0665361287203279
0.0648301878297759
0.0598435197968239
0.0847255958021934
0.0617676003246724
0.0816121343350268
0.0820680768389735
0.0817393747674853
0.0657852586970651
0.0696793119735422
0.0622961020329424
0.0732177501930116
0.0656658579700837
0.0723417894687811
0.0679138042913861
0.0774358293456718
0.0642063791029559
0.0695470650462929
0.0684212609225207
0.0771057078966119
0.0907977212713341
0.0683584903109446
0.0818444170949609
0.0848401345406306
0.0506015797986192
0.103798521314603
0.0686997651768379
0.0773438767812104
0.0652499770318256
0.0758415427977417
0.0574444405039672
0.072843193749468
0.0477732501954945
0.0823546446376266
0.0871098563685314
0.0793054698480701
0.0668580683524437
0.0638436696704434
0.0539491148587383
0.0803953461789434
0.0867770853668076
0.0702917028412927
0.0670285038363816
0.0689676003640783
0.0457671688599945
0.0975549388794469
0.0882424415696878
0.069213454389092
0.0687570307709429
0.0677266187356994
0.0548879199020575
0.0652314692501567
0.0787797397789729
0.0770667511074179
0.0646395322529928
0.0595669119347773
0.0632797538977365
0.106977217831711
0.0682522717077426
0.071199665014907
0.0513128277767937
0.072192590394976
0.0793633775732103
0.0770483419160647
0.053649186413952
0.0878909513897034
0.0719047617038931
0.0628126990416631
0.0617749515916376
0.0690224134430044
0.0656302378157644
0.0708828495658521
0.0239393378356893
0.0817818047688255
0.104173090906916
0.0656409920857659
0.0952332511271263
0.0784295295501311
0.0628913380749487
0.069259858432427
0.0533198628581732
0.0651623028084857
0.0584122109751969
0.0610497971680137
0.0638175182742042
0.0915513502873739
0.0624280862687683
0.0664946449368997
0.0749613173187025
0.0737495074769423
0.0457460970182513
0.110165080260817
0.0727703622454233
0.0599455614425047
0.0792214358348442
0.0742497878436575
0.0509294713229621
0.0690511124156458
0.0769514696386727
0.0711909107858557
0.0699763325968246
0.0721520954598947
0.0569158779106672
0.0783483221226516
0.0686808268446655
0.072786744805605
0.0609592632243565
0.0508544288074013
0.0542691643783242
0.099217809230133
0.0884539008299312
0.0677532743449098
0.0639661657631355
0.0440461197709348
0.0722950543762968
0.0929450047074185
0.0575814799955475
0.0745205129792461
0.0610818412209624
0.0705235264497659
0.0594766118765943
0.0743635443230475
0.0568989779280539
0.0445861314714796
0.0812610629843674
0.09256532136445
0.0591973627483666
0.0706163404590339
0.0577552407286209
0.0591437506072219
0.0941584761838097
0.102334601620012
0.0691390292003701
0.0659725869061121
0.0600191732109398
0.0832305022201899
0.0686359037053601
0.0713281954817064
0.0586486962977821
0.072194408714704
0.060135931112765
0.0750612929108472
0.0611123767869712
0.0750455760650104
0.0658267373866836
0.0729865675748749
0.0606654643238399
0.0715057962593384
0.0642210727457491
0.0794701440882203
0.0653423997254567
0.0700385849041524
0.0557233069977899
0.0791548990128142
0.0753509085783912
0.0745168020885575
0.0635592571193112
0.0736018354026357
0.0615564658810134
0.0696276970865984
0.0627310194472783
0.0712047996484851
0.0572282897686515
0.06507594539367
0.0823038163811513
0.0801423544917831
0.060693283902838
0.0651141767784177
0.0689007463217037
0.085198728010213
0.0613799144900881
0.0769285376074081
0.062875717931549
0.0733769491183755
0.0613634961572426
0.0945202889010271
0.076606242465115
0.0660803251455883
0.0655496403968193
0.0882617005298265
0.0587073064595436
0.063686228812093
0.0463108146371371
0.122012618811723
0.0731013355361833
0.0613440768550985
0.102254461743232
0.0924785995215248
0.0704568856859733
0.0717159718589087
0.0211034122530244
0.137536059576902
0.112484457560212
0.0808589454419044
0.0645186743781242
0.081793256414725
0.0645484120426211
0.0747195920425539
0.0641522036574297
0.0750836120918741
0.0784401270280747
0.0991796682866342
0.0935101831716291
0.0668346993977658
0.0724649998371691
0.0928028231351466
0.0681396465167485
0.090195586324221
0.076207404293482
0.0767104605744309
0.0752145982081851
0.0899065010822753
0.0820205999154941
0.0812203812808381
0.0623447471625703
0.0961839880436959
0.0840044234512165
0.083521778058807
0.0679127453552192
0.0924094194551603
0.0753517436539972
0.0800279592213304
0.0764625556081128
0.0881849916102148
0.0687192709211395
0.082211410007213
0.106270436067903
0.0875986072082799
0.0625153468061544
0.100737672804942
0.0783189445458539
0.0853979394741674
0.0711865662927273
0.0899904587990699
0.0809681646145108
0.0841626335264923
0.0692578858845509
0.100472297301701
0.0823826229477072
0.0872814597498849
0.0755035630091057
0.0819414599365027
0.0759750533056504
0.090114963084833
0.0814856536822261
0.0850912388331351
0.0815477477750078
0.0859575896011775
0.0851795750367487
0.109647096480103
0.0647936027998161
0.100565396319014
0.114814138021164
0.0992762685365911
0.0859757904054196
0.095550963870295
0.0966424568803084
0.0936862142591561
0.0902346058526774
0.0996339795942874
0.0990539433021242
0.113635654329831
0.0967339516583569
0.103021966534376
0.0776314297173121
0.138038405510084
0.129082494822691
0.123274115048742
0.103475711607488
0.0911125930059284
0.107146349686181
0.132011046086042
0.111509071232463
0.138278777207122
0.10096842199521
0.120434777287042
0.105733337986493
0.124184939849984
0.11502418626285
0.125120999616648
0.120593933694966
0.126681966491314
0.120371120496995
0.141303567420811
0.115940140228846
0.12802026076585
0.142570350646027
0.14550727621377
0.125140281525041
0.138650379319307
0.121873171274619
0.154086307791918
0.152189730122102
0.1731943212144
0.156098775739447
0.165913992241571
0.170570294655951
0.159368300268693
0.151317439180223
0.161360653208892
0.153982059947262
0.167875894372147
0.164966477437009
0.169927503769924
0.160930631367444
0.185139485723539
0.173932354727518
0.183699417598125
0.167431900757675
0.187268375919784
0.198416063284051
0.207819887577355
0.186077008223369
0.194104757204457
0.181305878153842
0.248279311091996
0.229412885041811
0.216270827885357
0.198330834580021
0.216167038477944
0.206747004326721
0.23074119156137
0.213364234820063
0.232712537631009
0.199711521112397
0.255575180956508
0.234925591005469
0.246818355430706
0.245421033728481
0.23993676299751
0.240646296312153
0.25615490623874
0.253440639432495
0.286646474060442
0.255653947502136
0.249864990685898
0.262549283804401
0.291261933912315
0.261358595980109
0.293895362527161
0.271626051541536
0.279978543584831
0.262554449531337
0.284976684858698
0.274574761017161
0.320675803863164
0.292577567204667
0.30959967164465
0.29961378598598
0.319923698158863
0.302549009715492
0.333503706868699
0.307251951712145
0.333586286905638
0.333049091616614
0.347568003393071
0.322818695182533
0.346558904879822
0.33894682321018
0.359456954846392
0.336823725611392
0.373568181032203
0.346053425546904
0.369947768726505
0.345273560766858
0.377504790033881
0.360866565442174
0.38866481625753
0.377883235207056
0.397426125846208
0.386728009696128
0.412794153052042
0.391678305974133
0.431135177179226
0.401830795997177
0.424716917488928
0.413496063288316
0.429497503532174
0.410985133476348
0.441085103185579
0.403642634132589
0.483465473180061
0.45190026629147
0.476598738353645
0.447926862145612
0.452410516879848
0.446180376590502
0.480019903682302
0.453577519513805
0.479286540606275
0.476130080848831
0.504946907243208
0.484034504679505
0.510583421868842
0.472966212094368
0.496010267910638
0.487000839303085
0.509466915701244
0.512219649551125
0.549017499052501
0.484586137582299
0.536299060228949
0.52504072591378
0.567868486496394
0.527877853833095
0.555031879994016
0.520743424563952
0.554814681582015
0.560370054526695
0.607449667109436
0.551475344372129
0.59541852785189
0.573315811135089
0.597192744997611
0.564213924983009
0.600706932601192
0.603658524887334
0.634523007164049
0.583852071611994
0.655980141429104
0.628363717607514
0.622421578094945
0.62899907712212
0.678372089629782
0.639770045856907
0.662430432339152
0.624414572289355
0.702566870626715
0.645051592013815
0.732651462563435
0.668640634149163
0.725301592403373
0.675923047891412
0.705808499386896
0.670945870415668
0.731041545553304
0.702171904933013
0.748361098528546
0.667806367784422
0.716838050919756
0.753497968145812
0.768317603266147
0.733538691053917
0.775412541172941
0.745608800003601
0.789290657628235
0.6923953121331
0.795155067864004
0.739463866450686
0.819436248038637
0.723858740872532
0.787879768143669
0.807309693177462
0.806934022267855
0.77809916560147
0.83447214874985
0.791157956849202
0.882028969308163
0.825470471742515
0.872345826687477
0.785545026102473
0.878451026568617
0.830777440703697
0.952169473198585
0.87144193255249
0.938178534729845
0.844096129696046
0.88825596487007
0.871191069154684
0.94029084885748
0.921101718415101
0.929164209905607
0.924495805551835
0.909201018810769
0.874465375677581
0.944411381876542
0.888953087291693
0.980939835604014
0.907292013348101
1.0228228075369
0.905493481151889
0.983560022660676
0.925781371258159
1.01300997383361
0.969124990340132
0.931929469665699
0.955842062982713
1.03463851310491
0.936274330478404
0.937000778722074
0.956262089492113
1.10553991749403
1.01104598510518
1.06399994041498
0.981012123915291
1.01538159697435
0.984789251641293
1.08492055116608
1.06837398580352
1.10231965826189
1.03253699954199
1.07783513191653
1.04449368350335
1.11838590696274
1.04920016332288
1.21299392408073
1.08148984035995
1.11732074785123
1.05713727758173
1.18744671144639
1.06970546539224
1.18316209139366
1.09566636840165
1.14661741236791
1.13160799551979
1.22556551555729
1.11405286817184
1.2486797589151
1.10740666272716
1.20882981646225
1.09874225677059
1.18693814040575
1.15028315349269
1.16919326316761
1.12387320943269
1.22854558294084
1.26838305444731
1.13351136063022
1.14377617817593
1.28820048258228
1.30091931373901
1.25786371242445
1.14904779524901
1.37446412586957
1.25982323434482
1.36648908198923
1.20532148203012
1.32200365160011
1.24780380328596
1.30858949062775
1.16230264197224
1.30314037040881
1.2221455519193
1.27860303844157
1.21231063626968
1.30251378244262
1.29306083407057
1.37919806141481
1.18427877286928
1.45583699096139
1.17476611496209
1.32277513477029
1.24350291974936
1.39760341813494
1.42546928446076
1.41342817246186
1.18754279367985
1.47106880018374
1.2669147496798
1.38060997356549
1.28492363445796
1.41211156928358
1.3594951489388
1.4501336583028
1.31947329541581
1.44664965612119
1.26792986358881
1.43165731478511
1.50437720792335
1.37653721371195
1.34517243111867
1.48398717999803
1.46844680389164
1.47455727202469
1.27336163897477
1.46982314521303
1.45670193033985
1.67120803287119
1.42785946852727
1.54552977181101
1.46342745239879
1.57520051177589
1.46655956063628
1.53967964285054
1.43128527439361
1.40380433667418
1.37506403332547
1.46431881392198
1.49153227496004
1.71194393035025
1.30638888715465
1.43906314091995
1.31708127641264
1.4474051889044
1.53533870322704
1.42741523669817
1.43846904160399
1.6914553904116
1.50415439460535
1.4668326386916
1.47720499102477
1.72070509935743
1.41439996481846
1.52848144944319
1.49386437428134
1.73822062567066
1.47763981546526
1.51537449655185
1.60731113415795
1.89529594912946
1.40171044515089
1.59559662420578
1.39651478376317
1.47070786419902
1.47548586887306
1.4994781366798
1.45833428958804
1.57617616591784
1.44347335329883
1.54749036119921
1.54418766741921
1.75146308373863
1.59139494395546
1.58486428026614
1.40158248568451
1.6700849475211
1.47268292801162
1.67155112768271
1.5227695135826
1.49997139535887
1.44236476269786
1.70076904909915
1.74401288117261
1.6519452715299
1.51489084053845
1.66558760622561
1.58104754704227
1.65923807142243
1.37946935362073
1.60871381256206
1.47909146284556
1.6473795856422
1.53060794365082
1.78541206687353
1.58391142790714
1.43362781661034
1.55033832823668
1.68616731624701
1.63018719896612
1.65368552654893
1.44236691874452
1.68784096783503
1.43091792778655
1.62605769916699
1.50947377733292
1.42700195874535
1.54965832181613
1.75515822522761
1.60280903627501
1.54405131299822
1.53222185950206
1.87404966989238
1.55837627781088
1.7896988424479
1.65195566316058
1.46672493690237
1.53280316948671
1.59614950324153
1.52857443678018
1.74187528546679
1.4717207885553
1.58341673268008
1.53425846459713
1.64761371661021
1.60282593672604
1.64209205884956
1.57538800041656
1.6886669250048
1.57386560847931
1.75790770423154
1.52022911212226
1.88269013956248
1.54803072667251
1.64548182448726
1.4823860057433
1.78311470617536
1.55900916138485
1.62256231374704
1.50109663759832
1.62294869146899
1.4485874096112
1.56658719663229
1.5537548286065
1.64095452353804
1.60430952266784
1.56409892560754
1.59692275972205
1.65356291343119
1.61004881762301
1.58630374213594
1.57805606562949
1.56301312239197
1.5086589487141
1.61277764407613
1.54894314564222
1.68285792399795
1.75155563851165
1.75839451471611
1.71538544180258
1.63013433423467
1.47208378893106
1.82902450320131
1.45512679234326
1.52504080573316
1.54561772617504
1.65345821224727
1.45623523154767
1.49452315025147
1.41117163568457
1.58134051696733
1.63123825455397
1.52271558420778
1.54803702475432
1.67023350990369
1.63563485758116
1.4706175833802
1.4756553919755
1.58381678680531
1.59603438776701
1.67695134726416
1.5271991154867
1.47491366442939
1.52302196387837
1.48372962751733
1.36679838817372
1.54424156559771
1.58173122679435
1.58517736001915
1.39380393461866
1.58499460781365
1.53611539628442
1.57976931362296
1.50756576743538
1.57359770051309
1.38762617371182
1.49837537132181
1.43226857069578
1.47883263953806
1.51157723739306
1.55120914591106
1.44365106120896
1.57052995427099
1.48701633379657
1.65134560571844
1.41443043332058
1.48663920202368
1.44401051112124
1.43098050717887
1.35101479752505
1.47894867364845
1.36977809800187
1.49631831004998
1.43733743278603
1.51743398757578
1.36999851879951
1.50765395382987
1.40615498771312
1.55047286091203
1.3764434409965
1.35349646534022
1.38515975345984
1.51778388030532
1.31562978590499
1.46651911190806
1.40171239259147
1.53090942221123
1.35835012340086
1.3018592192323
1.33734799626861
1.3739853720017
1.43955079752844
1.40089537087082
1.34323220575421
1.38785105750526
1.34138604146077
1.35579606394788
1.30800522399633
1.43775452303889
1.29567940365236
1.35365915565906
1.31151752939326
1.27805932149138
1.33026059969254
1.41619464353104
1.30365710798784
1.32005968124226
1.27864313463801
1.30597786935647
1.27251790419388
1.38371177568065
1.24174606622853
1.22600019639503
1.26712344620187
1.33110344160957
1.19062176037898
1.23752964684004
1.25036570749745
1.30910118976772
1.20907353751257
1.22428949614464
1.1915501301394
1.25733715195004
1.16801263125507
1.23630033899169
1.21253901470493
1.24989636941493
1.19741545954691
1.26465977114221
1.14205226052081
1.1795338477905
1.13001475971244
1.16686900850416
1.17348344267746
1.21193033850124
1.18867883761592
1.19225270310086
1.0936906100647
1.20597136217962
1.11929434127974
1.16844402674823
1.0986971636042
1.20548314589469
1.09934630516416
1.10276149184512
1.09952839904405
1.11805409893812
1.0883210247317
1.13545527082976
1.0933139658433
1.09943892109743
1.02899064743732
1.10346979755987
1.06545437636748
1.10980322994028
1.02026624835834
1.07844985523936
1.05170380625964
1.02520049582625
1.0169705664726
1.06335483853942
1.03063783727176
1.03084444885313
1.00685022536961
1.03990053752308
0.97768613339386
1.02274567308138
0.981760496015729
1.02463257894726
0.969513642519874
1.01084052090071
0.939882548416192
0.980992730333901
0.937828494485373
0.989978339200748
0.943672757022755
0.97302345768976
0.937253409687644
0.99617839411198
0.961316801731585
0.969571627349555
0.914713241071982
0.944590106072716
0.916658719633697
0.948199701838954
0.899231633826383
0.911161226262497
0.90299496346777
0.932619157702983
0.866406885748241
0.916029744110975
0.88030291059076
0.915564144902326
0.854829050559091
0.888978027755749
0.851980241573986
0.89036041123254
0.847096353544694
0.889035469092776
0.85010590951649
0.8782733133463
0.836939889594555
0.85885563526392
0.830683249881166
0.840520706200956
0.826704143943571
0.837548679739078
0.817804985505879
0.829054149601482
0.798339744587705
0.858435500675899
0.794663221307862
0.808446972817055
0.793796210738106
0.793206290093697
0.802837107550594
0.807247304803579
0.777440326344194
0.802435371549036
0.760689182558871
0.814593816548411
0.775764903459659
0.787358890262738
0.785227709891229
0.776367092033165
0.76984721483267
0.77137874835963
0.742657945538702
0.774469350578621
0.745194386875209
0.754329953877481
0.740291444355634
0.763169620734824
0.709218841165422
0.75043542254161
0.711712149388655
0.740821450463402
0.705811610366932
0.733205924137661
0.691255127795327
0.706221921607323
0.704953701845501
0.699376427150224
0.702290062917152
0.711426609133013
0.685123359227761
0.708269146647714
0.663844457763632
0.686119411987413
0.683066124564389
0.68953209722306
0.658325990154665
0.673770225155368
0.661435653754395
0.684008459134278
0.640520727346776
0.676916744966817
0.634362782667135
0.66457721266394
0.639768118045329
0.645165116563282
0.621217373813379
0.654016088186639
0.629042074601482
0.629523873497586
0.621522365478451
0.639802799748035
0.614006350069062
0.641525679077688
0.608868845006068
0.622627084045178
0.59471078058343
0.607871015444127
0.594441715812975
0.607884682541747
0.593083487358736
0.604025314339432
0.586359490171273
0.601905764966839
0.577349257506367
0.583919994849935
0.575909142331614
0.592998497188701
0.560490109160981
0.58050249938627
0.56328821334036
0.567922404523618
0.554800229907651
0.569296938890043
0.563149554026565
0.563179415236289
0.554262636269497
0.570044177268644
0.539603223826277
0.566724657297362
0.541785223967443
0.563480908748979
0.543122512829246
0.549667432682983
0.529666696539183
0.561697706320437
0.536731493306745
0.551347303959173
0.520582846748919
0.549914481811897
0.532571669570638
0.549518953245399
0.53154529515967
0.557255358207317
0.523259504908276
0.550059658213395
0.519078532899377
0.550210311806027
0.525257353244166
0.551039368385322
0.530706262218058
0.553464761446303
0.527851523354443
0.549704245734857
0.521915231053485
0.550566211829918
0.538578879530287
0.564951594999394
0.544339191995585
0.56257219976003
0.547404170672037
0.560106800296914
0.543114899829242
0.5610924652521
0.546023015685025
0.570244887282185
0.559039988434955
0.573591996936545
0.559624452196035
0.58379836536904
0.563001719799493
0.584000188053961
0.575114580027599
0.587232069204393
0.570783235688724
0.589894221899386
0.570346431003977
0.599990449183139
0.588271844979611
0.615792896229384
0.578200417087469
0.605971190929659
0.595777430578162
0.621756534412409
0.586922138541182
0.60887554454407
0.600237820519358
0.613919322087175
0.598193042781226
0.629271223184016
0.620395556351963
0.641017579665051
0.616219804934932
0.641814181670646
0.624254514875733
0.652560618891813
0.637463450187396
0.648036987432662
0.644463392039111
0.661571287959861
0.653231013226221
0.654203139140918
0.646823824284958
0.691421236008383
0.661927548349105
0.702326842603741
0.659133866128729
0.680384130122707
0.683288846585716
0.695940296397566
0.692502047217172
0.696086922677877
0.678807591972725
0.705290713240843
0.691800064393206
0.703306087273451
0.678238119842325
0.708628417622519
0.691266181883343
0.721063569913013
0.69163616092914
0.687490736392954
0.686743604688809
0.729568381810298
0.684861895343023
0.710359472678571
0.673691326404966
0.711027607172243
0.667894354128521
0.704144648123011
0.672645567721172
0.714442644376641
0.671182733369699
0.702175084861113
0.671494934863505
0.703392471742044
0.661927150163262
0.677071897539154
0.678507965799867
0.687082195566689
0.670575054597258
0.685880676880732
0.657039416431469
0.701337458938461
0.669186414537598
0.689759542849511
0.673344367522936
0.686906087192774
0.680090089874825
0.698952142003476
0.6774662373974
0.683812343278471
0.669530163659538
0.682081344984255
0.677248610220146
0.696874665490443
0.675712852678594
0.696539329011523
0.671917041091352
0.684337651319412
0.679259343686454
0.673253961994965
0.653733517004545
0.682719466049611
0.659638422758878
0.680688301598725
0.673165870522476
0.686733320767443
0.651627168113988
0.679283066174494
0.64999124375545
0.671828192168213
0.644175379440292
0.666644493047792
0.647286771151034
0.64926341493415
0.642073611549239
0.663372149587073
0.633901741634155
0.648131415763107
0.623797873228133
0.652248226049889
0.633261558631105
0.635612330486737
0.61003338981818
0.624332429403136
0.60971076921081
0.625937284367599
0.597282357321134
0.610308548324929
0.58867336908488
0.600789265756227
0.587646595450141
0.606740910416642
0.564105417155247
0.59154951038116
0.556874370536106
0.591163007639171
0.561438366780765
0.563078749878239
0.551089349488943
0.582835993159113
0.546879014623506
0.555991900774122
0.548709631685871
0.544737366709857
0.533328277578862
0.531513889080605
0.515815259545639
0.526943503588129
0.512385241002997
0.530768261800629
0.509829150822007
0.526184629295307
0.501765996012687
0.519960387215563
0.494215656957928
0.511376445568482
0.489787367832665
0.508919887308182
0.484019545226249
0.494061261826033
0.486127118949746
0.486660999569406
0.482551296172777
0.484454119720736
0.487948590653986
0.484173653418891
0.472443793852376
0.488111929337025
0.468593069741734
0.481418693337519
0.460702634818595
0.471842460843531
0.460261697624932
0.466657014613734
0.444348681995959
0.465953319938841
0.456021479502269
0.467340187395804
0.443603751631318
0.45460797522424
0.443307886733816
0.451414986609865
0.44239580265489
0.454203564474957
0.441965690830762
0.451402838552439
0.435712031421341
0.434032952615264
0.431511507833798
0.434819283715586
0.427186955874176
0.44312035559094
0.427993786060568
0.431840267697376
0.417537127246009
0.433057658576879
0.415857030277293
0.427727845128581
0.411179748218703
0.435079144040301
0.417327733584033
0.42445950284219
0.415034026652667
0.421287558491571
0.413787936721312
0.419271029054756
0.416940582396875
0.419371207049053
0.407845945003574
0.41669616696883
0.40621461352969
0.409994658417676
0.401372313115768
0.404539099663632
0.395315741186697
0.410741262348429
0.39488707537212
0.404502359170347
0.399440763247073
0.397508443178032
0.384570412995174
0.400528142921182
0.393910554816895
0.397721932353498
0.387882891856534
0.398503791134239
0.383796221328157
0.395939773546968
0.384565862279992
0.392297274579804
0.395308086452191
0.396835444954498
0.377840990365854
0.391806350421947
0.386478412761082
0.388403161806925
0.378863958247739
0.387508007378138
0.375309273114137
0.390412704479826
0.37646640750694
0.389079380059142
0.371931405254133
0.386280258541404
0.371477689430685
0.383136120213883
0.373879508816336
0.383328785995674
0.371478201837563
0.376674837646962
0.363665177381852
0.37303266059956
0.366679982527226
0.375773501246782
0.367711053287291
0.377420085292504
0.366898567026395
0.374308919005515
0.365014742164458
0.371990603784552
0.366791310889925
0.371869451413206
0.35969456816555
0.370648783289777
0.361529646869432
0.373145233455607
0.359839847301676
0.37324068362132
0.362304621725565
0.373345526897668
0.352258551731839
0.371096657948464
0.361012474278663
0.368026065532458
0.354356862938604
0.370001816881857
0.354421667771336
0.362455654133996
0.353451366241813
0.35864365445888
0.347504928272817
0.362429999906135
0.354452774225605
0.3584332109263
0.352625861160988
0.365496106500651
0.354235529453514
0.35885367172292
0.343497248148119
0.361605491134236
0.341777253493542
0.350868610609216
0.34336780083539
0.356354522547738
0.344456213691654
0.352674751747719
0.335958685406865
0.34350639704518
0.335254022636711
0.350142884069669
0.337686748510824
0.350477471011909
0.337368105318539
0.345357186920021
0.336735273166496
0.345796345563393
0.336871442259784
0.346444845949149
0.330967609717399
0.336260963630881
0.330969352714737
0.340776083226521
0.32748700300384
0.340578081195884
0.328077671110009
0.334304192082712
0.327504075954058
0.33494535447819
0.328921860584398
0.329068627370655
0.321913793477857
0.332387171338587
0.32040365631165
0.333633262864783
0.322558481158631
0.328364577411985
0.318778007489816
0.323443877280031
0.318832534814475
0.329657802825195
0.315249335592435
0.32373319067851
0.314707782151335
0.323763399771206
0.30763522233758
0.319795602938944
0.309216648927566
0.318759975428353
0.305872011702885
0.315635725565461
0.30940716800612
0.315434255019931
0.307298866015672
0.307584957230812
0.303782964713148
0.308296441513686
0.297655985202297
0.311562283929837
0.298372500854418
0.308394974817681
0.295059324131507
0.305012222837149
0.294532352389457
0.304914924142994
0.291186640246069
0.302192327135926
0.287748859159489
0.295896415113345
0.287400173852676
0.293493399418974
0.288415663906034
0.298098050038531
0.287166973139687
0.291763773500568
0.28409418769425
0.290084487710875
0.280443155348802
0.287726640236082
0.280754711111708
0.285634164047479
0.278076662986986
0.284791866001058
0.275965773151732
0.281037083595025
0.273700886138033
0.286957937634217
0.275126220276661
0.284794137199671
0.269603406329312
0.280025619672716
0.270888940494699
0.275196224860218
0.266336317173329
0.276175618076673
0.269447621578934
0.276939874360353
0.26706048910368
0.272413781100059
0.263313725296545
0.274003562137711
0.263400750766982
0.269736314564873
0.260741540165205
0.268063347837323
0.261070707873069
0.265506573112949
0.258977489536962
0.267112780316695
0.257432870124455
0.26256945739485
0.255299924880577
0.263997739576812
0.25699737277857
0.261616652839738
0.257161924305985
0.264605879656975
0.253660246268388
0.255315176064282
0.249500333370481
0.262453671920184
0.250950105665478
0.26160449924539
0.250526353237129
0.255319201208372
0.249917749810285
0.253416804270725
0.244115029155244
0.255885430909677
0.246787171800809
0.250900879072944
0.245870409353751
0.250455904972963
0.248446135510668
0.250389757746011
0.23978051815524
0.246716405692717
0.245254071061066
0.248068229026064
0.242225223393798
0.249045607628535
0.242956734315135
0.24615264261091
0.243087613648572
0.244972514089289
0.240233196166147
0.2460165404668
0.240157876823305
0.245899933563005
0.234512987714876
0.249070100423621
0.236511780358203
0.241973526087928
0.236111673017034
0.242706427133867
0.233868401322563
0.239082824611583
0.234987265431596
0.241701368232731
0.237440055448814
0.241158121716534
0.234492890758489
0.240110934373459
0.232796526006034
0.236072048398751
0.230050612823458
0.23777611816991
0.234153648460798
0.23847044756799
0.226216438417668
0.237629217037036
0.228634603251282
0.238266664118022
0.227779820954395
0.238265414918496
0.223936574353578
0.236310409124782
0.225198364260212
0.234329655817142
0.226793570505289
0.23050214643353
0.225483219636926
0.230456698856246
0.224530213773496
0.23382889588929
0.22189012797888
0.228053461034535
0.222197376494105
0.226078675108519
0.225617260979063
0.225498972369464
0.225075172634226
0.227142558181648
0.218344951088986
0.227056170851549
0.219864920491886
0.227617244036103
0.219175341108538
0.222790930171597
0.213679482281502
0.22595377180244
0.215917945234963
0.225696147172081
0.215664122358136
0.220787251490293
0.216432629410299
0.223364963116757
0.218446269932268
0.218004364477881
0.212300783722709
0.218218931475923
0.211845908984657
0.221660605160768
0.2116893256992
0.219041298912728
0.211910312698027
0.220052804896393
0.211189144471283
0.218323143506187
0.212372148612848
0.222086743759417
0.20806557830037
0.215531896762628
0.208967938643169
0.214605879981929
0.208869738435254
0.214668708514855
0.208918548088029
0.216073164727342
0.206319030722936
0.211615329531947
0.207633920209651
0.211281464427499
0.205091224765312
0.210330670910479
0.205796858505865
0.211717292033538
0.203619551778863
0.20951420718999
0.204719884086942
0.208745619402987
0.202516371184733
0.206113113650985
0.199399919705394
0.205872576937512
0.200602578165954
0.208002155694148
0.200761276943528
0.204734225694423
0.197828910506268
0.200184424298638
0.194933601751334
0.203521492434346
0.191488610170715
0.200486994742439
0.191951112251138
0.204269357635542
0.193331283543065
0.197344215060441
0.190588880032816
0.198307027883247
0.188589389550453
0.193750286223285
0.186787918942502
0.198383312292074
0.190473831265265
0.195257361930483
0.18608312969622
0.193082253941149
0.186104881612215
0.192719692872152
0.182232027384888
0.191954206062126
0.184603680243943
0.192922159919822
0.183068790321586
0.191243173300739
0.181923197935655
0.190621983999686
0.17997613306902
0.186632468058293
0.180217350181979
0.185405592277718
0.180961100011221
0.184270491780463
0.17904786537395
0.184975871883899
0.176003758955848
0.186227795015308
0.17544208092009
0.181457328019652
0.175819472142688
0.184557226474174
0.175589837332487
0.182849408785693
0.174757153866298
0.178197810910993
0.173964959605273
0.17701630975118
0.169694706163043
0.177907940486837
0.169978448534651
0.17556131166718
0.16872110884589
0.172662229320716
0.167585738222328
0.177919726262894
0.166686916177247
0.177894271598911
0.166580639625308
0.173070624757257
0.163138443687876
0.172635061807004
0.164431232473048
0.167775461912527
0.16136596512337
0.171865398859508
0.162839829931591
0.17275487345874
0.162888753416092
0.167432603383997
0.16115666272675
0.168715505116361
0.161517140958974
0.168081800794099
0.157057152125788
0.167135695026101
0.158861353539539
0.168166460804095
0.161076359550919
0.162936737975762
0.159371920707854
0.165255241663049
0.156446067684983
0.162750587821209
0.155916683742326
0.165215020281578
0.153388918155402
0.166342412821249
0.158125832773147
0.164412149847946
0.154425745990157
0.161483952046988
0.155706021188154
0.159272896718037
0.153939827442624
0.164513158220909
0.150821851211081
0.15843317479495
0.154337211121665
0.163799278512829
0.149069340847661
0.160024216522734
0.151590091480557
0.159136568143601
0.150834334704499
0.163234357993793
0.151430676770753
0.167511901526772
0.156942671927902
0.165200255482819
0.152505192582137
0.162959504663396
0.143582830254861
0.15323944159129
0.145691365787479
0.16745052453038
0.146715922377734
0.15065584233173
0.14012491846885
0.162409259695982
0.139663833717022
0.1567577392641
0.140867704771082
0.162095229333394
0.148046541874813
0.162730448322873
0.1330556366752
0.15996396354839
0.134777559756735
0.168436372956742
0.140010305374737
0.16000031733036
0.145345805448929
0.158773565842044
0.129510803550602
0.156321723216871
0.134401215064073
0.157742457163842
0.135512481129119
0.157309924021236
0.130539553168964
0.155990615642418
0.130849855586155
0.156006446644094
0.131953548405311
0.165275229214366
0.131224778522712
0.168104681532335
0.135061615062649
0.160678057278791
0.127869124910886
0.155165011031361
0.130990477525549
0.164119253125612
0.144743348260041
0.155949040111744
0.134739298473976
0.136905928281528
0.151092358902333
0.148123744949786
0.149261116705798
0.124362153085606
0.157630866212447
0.136286225197312
0.164140758195202
0.112596123217351
0.173679046637825
0.117840933554909
0.170211723706296
0.114023079079107
0.174075486541016
0.117979663552496
0.165578769694777
0.128086147924781
0.151001510343237
0.137371474965219
0.144892888801881
0.145669687488296
0.140776904772872
0.147397595274012
0.137853932893185
0.145539430996688
0.142078714365866
0.141080657481319
0.140273432903992
0.139369437803429
0.143150639543653
0.134647409525732
0.14218492402498
0.138256043822558
0.141988501185715
0.137246988685853
0.14184716611097
0.139637074335825
0.136239567304034
0.141006476732668
0.137692077507685
0.135623708832535
0.141272068302331
0.139519683465676
0.137319528299509
0.137213598878496
0.136303079415598
0.139760687868739
0.138295850014436
0.137428651705891
0.142067890432669
0.140263328677017
0.138431223338758
0.138831651477893
0.136482783841109
0.139936354520195
0.136109637429209
0.137461945646077
0.140262383656895
0.141477892084816
0.13539362306585
0.139871098200881
0.140036927492236
0.137515415179438
0.137421623398862
0.137506193005986
0.139960254809674
0.136305894064497
0.138035719359023
0.137567535785636
0.139567227031633
0.139273497491246
0.138062313578315
0.138429280186968
0.137432973262481
0.136434003646424
0.139498077530488
0.141426239499507
0.140021978251198
0.136410565746382
0.136905700702593
0.137812487340523
0.137005861989734
0.138376001883503
0.137186094456032
0.138581171868067
0.138595088363555
0.138944790699205
0.13678653330703
0.139029330936868
0.138132328952638
0.140250911698951
0.135084248310678
0.139040065974399
0.137101563018939
0.14050328111782
0.136115988857279
0.138447935572088
0.134557178254621
0.138057043195793
0.136427702345109
0.139992873283059
0.137981081699403
0.139643260253735
0.139182951524304
0.141205146973009
0.14004319313435
0.140705732530936
0.136853379196362
0.142882934308273
0.139100127371818
0.141026158688964
0.141323822957199
0.139104923612168
0.135535455607004
0.141334274955231
0.138239625355665
0.140239060692339
0.13739343629646
0.143781824879653
0.140713915064287
0.143232047811576
0.137878369642112
0.138081941641009
0.140811132467293
0.142723627191347
0.139578020161527
0.145074974042079
0.140871165698637
0.144546189407723
0.139016686624797
0.141367793307047
0.138231706267523
0.144535213425855
0.13915499082087
0.142730195487703
0.141874525203279
0.146778331919294
0.141137698082699
0.142544890914826
0.144455454537497
0.142978069002354
0.141953175113921
0.142162117568555
0.142034200786111
0.143009750588503
0.138187243162729
0.143331602352265
0.142158039494278
0.146183736713844
0.141474722150861
0.143978055111266
0.143484549928716
0.143244490778948
0.143519640968016
0.148505861155237
0.14255171384813
0.145113487707865
0.142884480908557
0.144931468806179
0.140132474411872
0.145673937989859
0.144895357511984
0.144734620017942
0.138782888402438
0.14471057241076
0.143095546549605
0.144627455630525
0.142981804098734
0.148762140961032
0.143655228634591
0.146182096211977
0.144458226579371
0.147249340416463
0.146752396073104
0.149437631284753
0.146945828296638
0.148493244973642
0.142571072188176
0.147501877382505
0.141484151096304
0.148358920743334
0.143884748182142
0.148836381946649
0.148537501929884
0.150962663389519
0.146389392147236
0.150782032169527
0.146409920887056
0.149088021677185
0.146168913509313
0.148209659297419
0.145505160438027
0.148579241522524
0.144529003521425
0.145370512225829
0.145925621702893
0.150142282164035
0.147064492390334
0.146621756623932
0.146741932395441
0.148777077310885
0.145696905889845
0.146069069855147
0.144791029427582
0.147360326153857
0.14309439905892
0.145500205322093
0.141185274958478
0.144148780914555
0.1421216525357
0.142462262133267
0.141806314483475
0.145549295277562
0.1409122097308
0.145889075333297
0.141676616546659
0.145435722636083
0.140874714887032
0.144012945484595
0.138914557061111
0.14423599942755
0.14290898636089
0.143826012000851
0.139059105598822
0.144889216440769
0.140137270013063
0.142577974898801
0.141514022074226
0.145457104359531
0.138129984454694
0.14093084675363
0.139376977746726
0.142591338503757
0.1381966223297
0.141082723143843
0.140521317941255
0.142101235204241
0.139347083473073
0.142973951097143
0.138163031901681
0.141548499505419
0.134455378000521
0.139525101792678
0.137211518724223
0.140395300751498
0.137994711272501
0.142157947719436
0.139308491227683
0.141347804563382
0.137063932927298
0.139970606789487
0.135897596423782
0.139061588306762
0.136666748082783
0.139532167645008
0.137541588189491
0.139396671349444
0.135142679962357
0.13944309628032
0.136152238901703
0.137250319005085
0.133380098243093
0.136984598939175
0.134727770225115
0.140698757507656
0.133028335326452
0.13724325885036
0.132820230439611
0.136812864687864
0.136147651941403
0.135988075637963
0.134783966302237
0.13869311590452
0.134909150431643
0.136756599320941
0.134277456791672
0.13506593943116
0.131298426118018
0.136830394918987
0.135588484440699
0.135537333013514
0.13376635412525
0.138233938584601
0.132358601253558
0.136262610500019
0.128986481619411
0.133330498431005
0.131232531865593
0.136119618914795
0.133682370391399
0.133237094404575
0.129046592009178
0.134684687525122
0.135924757016172
0.13339977882883
0.130360022923556
0.133609628922617
0.131448777499511
0.128793624099056
0.127516257038989
0.131062584558442
0.129237699618226
0.134474845462768
0.128104246778268
0.133846144696462
0.128446744860813
0.130411940364714
0.130135101153358
0.129008625860867
0.126423450615915
0.128860463827901
0.123148746671952
0.127927043700374
0.128554209400323
0.130618150716552
0.126279640034341
0.129061493072708
0.12574715463165
0.129501198614855
0.126023575178514
0.124528168872118
0.123007656745907
0.125424303278542
0.12367408346174
0.124959595711975
0.121361340286331
0.122367258290516
0.122374696252735
0.124912209923644
0.1229302652277
0.120654137756308
0.119997105589426
0.121591975418825
0.120752508066387
0.12392330366885
0.114356369862498
0.121478625817667
0.117915005753351
0.122650246311813
0.115065142379124
0.120126561146818
0.116790105360638
0.120461844970238
0.115084294003312
0.119903074700217
0.116142575238643
0.115797811278313
0.116163483737819
0.116671611191455
0.113092051090495
0.118858390187538
0.112346060919332
0.116671947488414
0.112258017083842
0.117372016454714
0.11311397814863
0.116501123519464
0.114624406810982
0.116879295525944
0.108587412294945
0.118683216123018
0.111571875917495
0.112119593928525
0.109297742068009
0.114045717957716
0.109589905077975
0.1124213352469
0.108862684078836
0.112849520288798
0.109753277233802
0.11489898339449
0.109224182207127
0.11179994313453
0.109243059945604
0.111141104028453
0.109658758196986
0.110295901400655
0.106859485205266
0.110440486529086
0.108212537799541
0.110342959683099
0.107608395269914
0.111097113687363
0.105580717454172
0.107770780443162
0.10527257986014
0.111790535628129
0.109442638091775
0.108486720662571
0.107410695773114
0.108573189792445
0.104934388772254
0.104061498298576
0.104303046281501
0.105851402778533
0.105180767582638
0.105059036217386
0.104226925426047
0.105716883870964
0.104460666947206
0.108408502309776
0.102887526751769
0.10655035125414
0.102966439367403
0.105948729788845
0.102332873098964
0.104688588295366
0.0993348972904704
0.102395702060888
0.104396625397124
0.103493486789988
0.105406097909202
0.0992460199181087
0.115867818192715
0.104805501498959
0.0981933929526974
0.103440289863638
0.1005351503524
0.103634059438066
0.100798160911282
0.10187564324988
0.0998077730227163
0.105216898371927
0.0999848943446996
0.101395174943479
0.0976539464286854
0.103206645216405
0.10100404878602
0.102590877283109
0.099261525985153
0.101843329999166
0.0956647302736833
0.0993653040847506
0.0990010934910115
0.10556602693461
0.104818215343179
0.0971878617432623
0.100315174051402
0.0950004252912801
0.0993718186409339
0.112792987271251
0.0928359666290975
0.105072317782328
0.0931977561741551
0.105297792215389
0.0936751262241249
0.104024014500023
0.0921929864952876
0.105662193349069
0.0952159672165034
0.102420262540268
0.0951722902042319
0.0980901310288847
0.0983233479928028
0.101508405761741
0.0968932629731367
0.0998400016998073
0.0934071783836727
0.0985649696784368
0.093509013498669
0.0997201133007418
0.0970169372585499
0.100099377457604
0.0902259980752596
0.103894670989489
0.0958821193343295
0.101452561452202
0.0955706639920209
0.10171307235599
0.0915607179355711
0.109284948956448
0.0941934300132669
0.0982000133592244
0.0952153511614746
0.095236246689943
0.0961215449576725
0.0985169728783741
0.0944997540783001
0.0992273823895118
0.0950794480833627
0.0958958811237179
0.0967616837259525
0.0984702779575646
0.0947699951495664
0.0949986289554772
0.0954767982981994
0.0966151269423808
0.0978368980155708
0.0988093377053607
0.0958612814776008
0.100322709939216
0.0910678688953615
0.115609776961187
0.0931231215107695
0.107232573507436
0.0924734238836884
0.101939968459294
0.0918580145923666
0.0984018486605784
0.0908706653035022
0.100905121362148
0.0904783972957778
0.0977853126902874
0.0929034819744106
0.0983030822834414
0.0890613168517601
0.0975179255172687
0.0918851936031749
0.0971836276833377
0.0892933061609566
0.0993473150971963
0.0904551688967162
0.0976933945067993
0.0909577382309342
0.0980325833230179
0.0995557810033124
0.0941151603292228
0.0965369747104872
0.0906589652319354
0.125659201579323
0.0907411878901456
0.10222776431741
0.094228677534463
0.0982385750381142
0.0969284862060008
0.0958683767119773
0.101513213769656
0.0975455075172266
0.0957708560231467
0.0988151829894041
0.0980186455378982
0.097327623928761
0.0972943599955294
0.091387560841185
0.110884752646344
0.104901037069292
0.0962223268032371
0.0994789392987463
0.0874814597927692
0.110271653451301
0.103703853218152
0.0954231013500635
0.105709735943047
0.0954582326341904
0.102408322300733
0.0961278462927152
0.0998635186378902
0.0948577097921305
0.105094632575333
0.0936345468837017
0.102708512071591
0.0963960940331155
0.101070734289656
0.0998000944087363
0.102593543460392
0.1052096966868
0.104075790745683
0.0961884022247394
0.105945043350456
0.0983024426083852
0.103255426996931
0.0964687274807844
0.104518952880594
0.101165810025633
0.114717974208011
0.101757477072303
0.108893855511525
0.109454726599005
0.104272462674828
0.0995332391191074
0.113732798017812
0.0996002371908332
0.112409450679819
0.0819969901965228
0.137629523621566
0.100096170227083
0.118727826081711
0.10344312263897
0.106831878677442
0.105140461391924
0.107037842107448
0.102255382184373
0.106271517717418
0.119373014584905
0.0981525436256729
0.114484387379097
0.101805855989822
0.121550589386442
0.106324057882966
0.11294544057951
0.108728222808826
0.113601103649659
0.105075603752714
0.12462374721708
0.10185120484137
0.124010304757616
0.130596733676003
0.108599136336478
0.130696545745794
0.104333112761559
0.132110407850599
0.122071588583014
0.110902382050082
0.123356613475059
0.110865179971914
0.12275889361999
0.10283686523674
0.128809483602915
0.131109972225795
0.111313090727798
0.127090344195179
0.115335791879326
0.13182141880751
0.140604057788863
0.12288522614844
0.128173155005971
0.129970950459735
0.12774662268833
0.124699266344537
0.170884357410746
0.118547772468055
0.162447388416484
0.13729075809482
0.148595784263095
0.141892472604108
0.145820739924331
0.141517976236143
0.157706716573771
0.143896102092308
0.146264088655299
0.138809020361498
0.170547739206325
0.148541618228432
0.150377175845741
0.153289481790149
0.13574790860294
0.15876987790621
0.199541218476036
0.172334968884362
0.158532830663207
0.156682281769398
0.175900300459789
0.169618676154322
0.160368454097548
0.166620734415271
0.161763037822952
0.166231276855502
0.168806069532808
0.174260564445727
0.177925512923351
0.168557574586972
0.183233093198427
0.163517400513465
0.194397655770585
0.198541244009571
0.214687003701233
0.191627692216508
0.200166482914556
0.216770454760402
0.188726453152713
0.20246123628222
0.190080393448351
0.208722332656438
0.201633928607974
0.20345178220428
0.205955430431711
0.213138144707239
0.232325734118228
0.20744239864075
0.248990869491682
0.218600788461008
0.229131536328378
0.211877714240228
0.285273409355533
0.299014518280823
0.234675802666494
0.28792652505475
0.220425351978584
0.352154450444855
0.298850304301219
0.295925419463981
0.302428095498405
0.316411765285928
0.318703461973831
0.343468125466597
0.338967704285647
0.363238709504056
0.360699433658047
0.371400446998694
0.347916958524627
0.458472584073713
0.418268925332522
0.440074930059957
0.410609942491626
0.441900666490231
0.444329423710266
0.460724738042986
0.448837729960702
0.486965581533887
0.449861807108026
0.564684944880309
0.517703108881047
0.515484743432769
0.525679933924305
0.558520531581319
0.559596846788551
0.550447055675084
0.625008056883076
0.57037868284923
0.614493558450433
0.594513226676646
0.62849853417539
0.60986433946016
0.652076155440097
0.676263937504299
0.659275598330375
0.682471372254982
0.681196562339719
0.705180668556666
0.70397121511162
0.714188642478723
0.714181103120246
0.727416977484906
0.741881913634382
0.759466682033922
0.808091029673983
0.728424336142349
0.764492211579541
0.739735061188411
0.771642871382734
0.770349033735155
0.748063423336393
0.803060055407976
0.746972472939605
0.770257888166292
0.768231850862854
0.759454180851444
0.761804591910802
0.777163920734685
0.755712849303432
0.751424038857215
0.793399099923848
0.702874059774262
0.861645611728888
0.758764561856316
0.758790214387955
0.764695551906509
0.765030861883418
0.751390280816947
0.762004497174194
0.738449000787317
0.780685762868722
0.750772059466677
0.727060157544488
0.719360602566286
0.707283945469724
0.751088577699387
0.70344287949541
0.688658501338734
0.68795436633751
0.687020621850664
0.684936863826315
0.646346172537391
0.753818335185685
0.667736361306938
0.632025976079901
0.652867227470964
0.64437214778447
0.648357759098268
0.621912394198905
0.626387434635575
0.616895197397909
0.606060715033237
0.616917120339937
0.624325536117584
0.602643579809161
0.603571272043752
0.592665579477111
0.60673481517829
0.596948731915442
0.612852192570545
0.585717816028134
0.596377825865656
0.599305998347388
0.596067798939546
0.594629497325888
0.585293565204652
0.589348681095332
0.598896297022981
0.596018842050031
0.597519390534675
0.591586407596987
0.600359360390165
0.590632314877931
0.601774629380029
0.594296150566551
0.600402238841023
0.591957744108425
0.600402377045662
0.586424932166347
0.593589140482834
0.590990769536889
0.59886908804742
0.585082794788881
0.598257782422831
0.577536504901971
0.581237265979669
0.646751522748578
0.577792350902583
0.60065284990181
0.578066473395606
0.586526275412722
0.575413514649734
0.599404383176995
0.623064963508442
0.573779741814785
0.579881808931865
0.570822123106335
0.571004966147874
0.578066577712652
0.571194292260273
0.57341875849062
0.565886542029459
0.534926470078241
0.694876429885649
0.555295051228753
0.672681422948227
0.576036219724708
0.569242743975517
0.544868959974361
0.613959999726719
0.570720145793642
0.558015105593922
0.563579974909622
0.565299004543473
0.587860234382674
0.552711067155971
0.565696042120611
0.557561422410539
0.548038326789737
0.583080171430756
0.552674479083632
0.53378166658968
0.585101722713428
0.558312068087503
0.551902691668542
0.593614318334922
0.571636956885831
0.539626559200592
0.517501636401616
0.519395945487208
0.505315001704386
0.546693550973088
0.525162559546951
0.497414496122669
0.51111537902548
0.486425559871763
0.496625911562477
0.4917694882144
0.503521060700651
0.470267054023615
0.49982204823432
0.481370422843123
0.447880463204505
0.494600070040835
0.459807798206875
0.512451846057118
0.462318685805928
0.457998890815811
0.442113779075735
0.501070212357625
0.454282838813689
0.454939689235878
0.438061775235367
0.429193890846429
0.444244565987045
0.428024163737741
0.403319188597453
0.4309280129096
0.406113165797779
0.440645033066507
0.447917396874142
0.429579500939412
0.408308976338422
0.386567947379629
0.388899327641722
0.395181506263954
0.376992478208945
0.389122852209902
0.3639764060222
0.409518053029086
0.353198008188906
0.410120345700527
0.399580219769836
0.380433961322532
0.38092663132253
0.3828000168982
0.378070380563351
0.406820955948356
0.406337333905976
0.409238532604534
0.372549125688491
0.41398891413551
0.393920618936338
0.402891796659391
0.402318092721547
0.410913922283801
0.404608560115976
0.421576331992025
0.428999145009776
0.442229829083279
0.432180779372922
0.448633517582126
0.437537826800818
0.492817313536538
0.462697677469516
0.464464803841536
0.515548413337568
0.50301120474504
0.533474883140423
0.504733501833653
0.522380114336952
0.527516018427576
0.533172397536214
0.540810911155792
0.5335247522461
0.587187717586484
0.567688446887038
0.557059136610318
0.574865801553155
0.570151371367098
0.587131027991608
0.576307454599563
0.615026675963472
0.580410298059587
0.654243072977909
0.597373996727279
0.624792947498269
0.61912201303819
0.619106197712569
0.62506637589879
0.613698802874579
0.626008177802536
0.613371240356374
0.638102282965526
0.637442364698199
0.624153099876767
0.63867124890372
0.636811212358961
0.638284188356664
0.636723681999951
0.648127769799794
0.649577518206119
0.646088025266119
0.663494279417726
0.636115177652347
0.702973854352236
0.694349121875705
0.652246097557347
0.692124947201831
0.671159410833233
0.692728196965144
0.672169123261761
0.690643708926167
0.709462843354986
0.689100236244678
0.704725046167999
0.712372666442342
0.708009087726507
0.720516055002373
0.728735535041419
0.736299031093161
0.712530168221298
0.733458558143595
0.696750240885928
0.813064461305243
0.74770817919049
0.762331604694438
0.754265505847141
0.749689136992087
0.742944585701209
0.755873838674205
0.760239675589697
0.760594651732378
0.763198295323912
0.756453757693994
0.769732847030919
0.756291305712142
0.763920791072211
0.75708447727512
0.770447439843207
0.781480886776516
0.766910297880202
0.766068266252165
0.751673191648821
0.75469269266168
0.779627067266653
0.793051254755854
0.761799754901111
0.77184892010462
0.751996443279046
0.778483166478162
0.778139096073831
0.759900192756242
0.755811735157524
0.766176652658317
0.762589194636483
0.7650357315996
0.739859506274392
0.774999029006937
0.770714309484981
0.774582756568533
0.776963679588606
0.776092245818583
0.776628049476198
0.777861190423124
0.784724905955237
0.777756965562909
0.78404697437728
0.789424865066041
0.78757967425761
0.785644745832518
0.796962022611857
0.792693960141768
0.795434672671748
0.791516367605383
0.78197870217573
0.789874766770191
0.775433765879983
0.792567914720501
0.783002199302425
0.766408522344152
0.76391271954409
0.764529835626871
0.758487620071393
0.769377669281879
0.75895714664639
0.737522141004324
0.743004438763941
0.722800309187266
0.732657813006703
0.715621462877198
0.724019854171688
0.712934878812467
0.713857089107337
0.707656385922265
0.706808693930105
0.701712485427431
0.699273309064083
0.701509379255085
0.701117375491349
0.694573990004089
0.696535346105562
0.690760385707674
0.687132250361527
0.694189902503781
0.6960992060911
0.691024991704119
0.690267476428622
0.688352740666453
0.704341173188048
0.68646445147868
0.700632406468551
0.685078758861375
0.689674610371998
0.687405045521026
0.690499619806882
0.688829839638382
0.681933244612372
0.68041439844282
0.683767098868633
0.686408934371398
0.682381627286845
0.675380485795751
0.68152214214199
0.680383663342595
0.678158949178475
0.673608585807108
0.673283968339156
0.682558612439008
0.675275130461235
0.676638552669281
0.676510301655794
0.681437640106399
0.683029646446825
0.685900127256144
0.682885940362039
0.683202540897781
0.677539388179248
0.684660534294399
0.686016349670197
0.684111973535684
0.681218049583146
0.6743292248884
0.682244984845234
0.678432083046078
0.684941246678245
0.681382560881275
0.671726378712647
0.671692676492173
0.671992935732961
0.665532735698486
0.661562043279701
0.655269110400855
0.656750754469755
0.648870554058742
0.646505775739469
0.643399777718535
0.63568434416863
0.628072388638771
0.62738625869899
0.625683654867842
0.614483016476008
0.61272373676257
0.609064494188318
0.612996984844749
0.609721155393847
0.603638468928334
0.603496012300844
0.608104034981256
0.606715772836508
0.598290056369072
0.598352090452548
0.595732218937138
0.596469146252494
0.600207659554664
0.605070289929525
0.596437345754776
0.597423110420523
0.604121191607464
0.605513144607397
0.607447681711616
0.607279232781466
0.604914395979602
0.609809668459706
0.613654955939884
0.615812808678745
0.617053263871062
0.619205908121806
0.619019523078519
0.627934244808589
0.624299869390271
0.621403114964205
0.629041671449817
0.630064119259114
0.629063182493242
0.631776461920179
0.631246220382853
0.630068490104131
0.630714145006632
0.633330043025913
0.635964081210968
0.636883848639639
0.630318922213544
0.63218789628409
0.634438336959644
0.628121818837153
0.626105039752594
0.627236709299223
0.625567259422371
0.625035617310997
0.618317827224495
0.617497483172923
0.618565870621699
0.614950376653496
0.612104689366211
0.612376895480454
0.610891844568441
0.608098669445354
0.602150026844738
0.599327286831373
0.601384915189833
0.602642718096655
0.603261358475635
0.597149676258964
0.591742265114741
0.592064868567679
0.587599491211623
0.581389259586964
0.581690576638043
0.581771524617263
0.581858544491683
0.581409328219163
0.576889474686924
0.576472187218894
0.57893054610577
0.570679839785512
0.570974256921531
0.564747266067656
0.560906374277693
0.558461843481096
0.553255290942101
0.552457007421022
0.546192878253371
0.541110656989605
0.539533727872113
0.539082310969592
0.533940738105249
0.530132787676753
0.522979523721762
0.517827916389884
0.514171136039457
0.513288611680884
0.513356290865903
0.514768916654842
0.511816836268584
0.504047536794303
0.509609068303366
0.507384491126956
0.502224697563741
0.499532056074255
0.497986791492816
0.499219632019686
0.491068652909141
0.489170690377377
0.485333740629452
0.481536644043283
0.478244514185159
0.469248036475522
0.462124262136848
0.457035513226967
0.451976424383724
0.446056655801058
0.442779172920503
0.443514725874659
0.442184417354019
0.441046387124098
0.443313769169308
0.447983265842418
0.451738149292183
0.459368405190756
0.466353426821303
0.479356568052135
0.494027768071992
0.506265046553059
0.524677410925391
0.539795320125034
0.552973228138115
0.575466192669767
0.590912417363959
0.61049648868228
0.626982301031074
0.650353188714356
0.672594514189872
0.688620142204843
0.70912739132092
0.729555516060476
0.750951131820178
0.764140744827664
0.780622079154322
0.79701701518271
0.813559877590723
0.832004267823568
0.841463183349973
0.857635730209993
0.868978010206753
0.880550040069913
0.884879480519122
0.903040772716758
0.910592920205078
0.913457132507587
0.928270606493883
0.945715388266053
0.937325319650993
0.940988321556477
0.945199771011865
0.941285976511257
0.946692177184656
0.933365715752823
0.939040046561302
0.937630120300232
0.942636206746335
0.946031995911739
0.939044752703917
0.949599564957037
0.956900468070354
0.952817982789836
0.950521855177241
0.962929818512333
0.969614225709682
0.982290028458061
0.976267344158083
0.983216013185671
0.996284544061452
1.00418893937972
1.00700284749555
1.01732226888098
1.02660142076589
1.04192041154749
1.04065089760115
1.07017491925796
1.07507144751655
1.08983451414568
1.11735194074066
1.12342907498923
1.13902613432947
1.15185762458084
1.15952566711312
1.17873846443235
1.17910520275448
1.18973472573482
1.17336763506019
1.1866784660396
1.19320426400827
1.18110489359222
1.179385803227
1.1717579586035
1.15260826263777
1.16556529632799
1.15919684740515
1.15777220024741
1.1653336601994
1.17711537221771
1.17439456383779
1.16795075186299
1.18635901729869
1.20728455877303
1.2102018892891
1.23345155842124
1.25642067082835
1.26261304877348
1.27843253502586
1.33461035389543
1.34004700645176
1.328690737569
1.35986972966245
1.35851252047341
1.36973711806126
1.40048586031546
1.41922300226391
1.4317858599074
1.42017910891435
1.47580655864553
1.49546448182025
1.50160834307969
1.55081026288394
1.63098223741612
1.57197041724883
1.60231800281694
1.66940995983027
1.73198293298516
1.67949752073497
1.66769578590614
1.67251386432724
1.71407918479235
1.75254551162148
1.79395103856806
1.72139681179861
1.81507453711079
1.84570116985056
1.87494011055168
1.80137883372176
1.88694185880437
1.86422133102438
1.87878269936511
1.84927586513754
1.7729685270775
1.81685214362152
2.0322696673839
1.9127430870995
1.87869736784001
1.76119928214451
1.83548363041176
1.72603536934228
1.79888385012579
1.80440641363209
1.76911816015042
1.96168651745202
1.91853595989697
1.92296169998256
1.92294422535085
1.91399317560287
2.02003828112362
1.87904226907277
1.94789144107416
1.96731500158327
1.97942575833794
1.95311955597246
2.07320567858525
2.06279771891624
1.93182587286813
2.05158999205628
2.13206711274758
1.99761972172617
2.04402061900846
1.96573217247673
2.02539116524751
1.95541366744156
2.20545014153828
2.07178378579577
2.01562370253083
2.02478246197634
2.25649274730321
2.08017447741114
2.36063402478715
2.20440778288908
2.30346744088909
1.97234363324487
1.96673846235884
2.02164710633961
2.21620665267732
2.17582285195147
2.07728810609257
1.99806176820031
2.51467879679364
2.11538313118447
2.05333271988388
2.02660638808108
1.94348015269498
1.90837386910147
2.0810952646153
1.95792963483325
2.18271694848477
1.9244231635173
1.9073271401027
1.81174475245628
1.77413557469047
1.78308778983121
1.72802130898531
1.73020974490425
1.72392640831863
1.65596586750251
1.65355134896049
1.57505020268559
1.63804568395257
1.60130112336074
1.55023883234669
1.50250406629464
1.57273907881613
1.56078975305024
1.49674247082502
1.46071758180182
1.51695346140343
1.45229583458099
1.5585415648779
1.47646167618667
1.48448545863616
1.44051351582207
1.44413661784395
1.38659443541643
1.38010279864831
1.35612633761944
1.37106493136529
1.33187136381962
1.31727407714575
1.27570655760925
1.27370101685183
1.21756293202961
1.17695357226062
1.1748727066224
1.13789536996762
1.08173139099178
1.05049107699461
1.01026825227405
0.97144394764454
0.938054910367988
0.923738211488718
0.874994730538578
0.848754817549232
0.831154793310575
0.807538077293471
0.774225991282684
0.75227234809374
0.721832854245239
0.706041565016751
0.69836008368812
0.684279925451576
0.666914957899061
0.66044837035753
0.650052590730379
0.649368512982689
0.646152983085201
0.645841399937571
0.636528396092337
0.630264903378532
0.622636230962021
0.629222737761045
0.628172645975892
0.642005106035456
0.635526072416199
0.638844377141398
0.641029672529482
0.644354239301434
0.638028857739952
0.629760161369595
0.625400391644529
0.633126643153915
0.625823745160753
0.619893036547894
0.618065537863109
0.622760857099951
0.609796858028237
0.601931343914855
0.606221607938562
0.589958878566324
0.59251037075108
0.594508415986911
0.590297383215959
0.587663137740842
0.586957006572786
0.600048192143978
0.603793964390692
0.615848218244966
0.601048127065937
0.603304072025643
0.608646690590094
0.607301528614747
0.609865648544662
0.61918978517458
0.627620830321027
0.617722801748258
0.624354816669767
0.632573150386415
0.629330985176375
0.63792110309865
0.64427250526109
0.643242659005264
0.629358875887862
0.637713870997485
0.636232451205893
0.633913745924167
0.644775931537043
0.64752751434897
0.646298854520723
0.64253279397309
0.644773000305856
0.667065261580735
0.664239006949298
0.664633515327148
0.667591274902074
0.692118813565403
0.712103909800325
0.705558364829973
0.736787787749567
0.773971563830384
0.765997223112177
0.793528563713789
0.785839556913758
0.800161344484406
0.823541254039612
0.836241870807772
0.804013793379767
0.816981966418483
0.817497137843624
0.818912391241794
0.774111894185961
0.772346549550143
0.776729885534325
0.767526689123047
0.75059286730681
0.754006182936263
0.732265451749847
0.750246141322227
0.758289432636421
0.760888503917833
0.752852979362723
0.759928398940608
0.751196530112412
0.760715772618254
0.751413847685949
0.751251644739358
0.730355137979411
0.738130417443642
0.751534552036259
0.732668878998668
0.714960140133673
0.737139722241927
0.738269736900139
0.714874500203948
0.709032564378104
0.699684909246955
0.697705435014578
0.689916595864236
0.697056144137462
0.695356025888784
0.70415120895609
0.697898131656386
0.668822901207667
0.669977868761819
0.684736218438955
0.692958015774785
0.667741282237208
0.689392833077326
0.675061301097262
0.669718020581639
0.650563069020256
0.667912420327188
0.651598182522439
0.66886901294893
0.677226615631515
0.683399930742256
0.670787494064514
0.665135197601632
0.657045451715319
0.670905655442097
0.650636693396397
0.662125701887465
0.65449205200371
0.673797273971531
0.655457728040878
0.660631662023227
0.640230084238265
0.639955964856289
0.654312409938553
0.649166996990243
0.639412068708478
0.635682473357166
0.627079494073721
0.645871603453814
0.625186574734428
0.65639505263216
0.65705998800554
0.656811513261019
0.65020816466938
0.646403597217203
0.648954405653388
0.654012543741174
0.668890311916047
0.66794940958664
0.645676700764406
0.646264864354214
0.654046315607338
0.666750691119253
0.66509194152791
0.678443088799522
0.669813185823129
0.668804810028902
0.666297242387467
0.691568995353079
0.675628749359595
0.700055090951314
0.662799845982954
0.696643111343585
0.68917171979531
0.69513690458769
0.708640360849322
0.732337622931378
0.721233573477113
0.773299297939917
0.741806655086898
0.794802096485576
0.779071979040231
0.765430748457946
0.765738679582267
0.822241613152452
0.800746405639917
0.871105244055178
0.851482305634355
0.893653223639277
0.902888951675366
0.939236504695827
0.936691984757216
0.956591084881993
0.932392611909979
0.960255337730112
0.944961644626323
0.984826279122889
1.0168963960027
1.06889005032193
0.992072291740775
1.05258957285545
1.03442262277748
1.07482047463767
0.987494577512683
1.03778242812989
0.984170734372518
1.00250330499261
0.97813383867072
0.957749061777712
0.956069551664182
1.04234683626172
0.978878247298349
0.990393282071839
0.983448824411421
1.17444045119155
1.00199011735031
0.975039450243216
0.921772433427563
1.00306004966496
0.936234149194831
0.932226953902624
0.906356673591513
1.00420469359264
0.944620169977382
1.05049281701039
0.915464179393376
0.974919995293619
0.935173309331005
1.03685321907413
0.892575127856892
0.990222101165666
0.969312873437303
0.938573114473949
0.873425689623735
0.968348088980874
0.869763410972425
1.0081069939091
0.943934138291323
1.06351849245167
1.01745048776948
1.03803069971074
0.987405537308492
0.936006969744167
0.901997411536483
0.987314305639904
0.941995598082825
1.04407726636212
0.887310379240225
0.994521934088555
0.89998356534298
1.12255988506612
0.953270914451786
1.06300232123121
0.902822164380399
1.12801110360161
0.892094377345692
1.01728765382805
0.921329697225461
0.995814819143047
0.995553996171974
1.06611889561167
0.895043805415217
1.12841317688897
0.912544848205192
1.23022900718537
1.00531368732295
1.17487602768049
0.968136943776884
1.27959306376581
1.11260077137475
1.13074662832718
0.851849167424281
0.971311845692443
0.965077118278735
1.24874656684105
1.15136008736126
2.03686036507273
1.59659686749314
1.82452358679344
1.01105721989671
1.15024214801222
1.01087541801694
1.76564874967397
1.21823493725929
1.04953053661984
1.04293489211164
1.50506103928352
1.05102971908271
1.45903835539439
1.09235119662684
1.27598294596395
0.981444518650825
1.21727528235112
1.42970418426471
1.36283627595459
1.06749555421651
1.77923136480598
0.957655059024826
1.22959925848341
1.470374379036
5
1.24835484091162
5
0.989299497901393
5
1.24135547634393
1.51378266611478
1.04580760401656
1.06572580668773
0.767612514128557
2.47705248994551
1.15380886917623
1.38186511525303
0.905836766573544
1.52974565470651
1.02838779509929
5
1.12010524938
5
0.897239703190968
5
1.45270774499863
5
1.08883860862089
5
1.07294227407851
1.7020352640487
5
1.46541920199179
5
5
0.900181005164272
5
0.846228991222031
1.81928002338651
1.05517076343261
5
5
5
1.05298950894183
0.808889488923291
