3596
4000.36533379555
650.420452594757
1
2
2
0.0409091757466366
0.0370640756205101
0.0309916151074449
0.038244756702508
0.036886032208658
0.0385225172050252
0.035664147997491
0.0425355838961799
0.0356558358849222
0.039886958991552
0.0335888274759429
0.0376297375317675
0.0322553168834468
0.0420476324515541
0.0391995355667511
0.0397758856624654
0.0360985798577942
0.0378591243196111
0.0279030577732954
0.0404462442104935
0.0316984121973226
0.0433897577277614
0.0329285940248527
0.0370835384835559
0.0289508084690655
0.040557428142531
0.0331131786627557
0.0310832210482782
0.0344414147895493
0.0391378803691728
0.033918313865077
0.0401911282266893
0.0341806195265334
0.0362635918712697
0.0328420102684103
0.0362098102178826
0.0347086872919936
0.0368503386363797
0.0402531046409557
0.0439250101583674
0.0330101706703117
0.0364489087391646
0.0368945743942102
0.0375157949255341
0.0250996300366397
0.0364532244494393
0.031439887847606
0.027679478841492
0.0347122093212966
0.0426508426292525
0.0320860563793601
0.036912679152766
0.0328845372038068
0.0468592665222502
0.0321068982584483
0.0407787421353124
0.0359725062851471
0.0362987477045858
0.0267886577703469
0.0359462142889972
0.0291809592701877
0.0385272116926178
0.0364309004557694
0.0390610239289239
0.028936403496171
0.0367464403003168
0.031690556205517
0.033789693835754
0.0281314802011259
0.0347911497795889
0.0344148761272936
0.0311375711862524
0.0318198110826118
0.0390707878492072
0.0306666811970066
0.0316817348339564
0.0230430797343053
0.0354482660106094
0.036662387866714
0.038682628746098
0.0338158405240093
0.0349322815020761
0.0245965875030341
0.0310201264541949
0.0293550497626563
0.0350180789680616
0.0265138629352588
0.0345079581232364
0.0367473693847658
0.0308300484024043
0.0273390883995999
0.0365058974825488
0.0314655681822889
0.0292431227113969
0.0288033803733101
0.0364857224338658
0.0362715566222254
0.029978817661985
0.0309016264445248
0.0342206860175785
0.0411837309881551
0.0266682851914689
0.0444761270911008
0.0279197432758707
0.0319140901356372
0.0424365814621084
0.0161756504835468
0.0342286669125369
0.0258660058663439
0.034958466886107
0.0250247230110502
0.0390372934432882
0.0290997029801137
0.0352564847815341
0.0222005773623852
0.0319021069060862
0.0378091464906267
0.0299923336986826
0.0291301528982941
0.0247453252846609
0.0321272378652039
0.0221131536095487
0.0358155104483742
0.0345858966380557
0.0263652322882299
0.0237561192168855
0.0177680563284319
0.0392900986095887
0.0413237397153304
0.0310708089672512
0.0387269826709303
0.0282168887632866
0.0233612970621485
0.0252176976637899
0.0345113433001996
0.0321644432931106
0.028027429854663
0.0332429862138825
0.0252408901277745
0.0457010581873909
0.0269754975452971
0.0255935598691885
0.0243177822731183
0.03221865083237
0.0340158551756625
0.0343891951238139
0.0254984485614351
0.0301552273053621
0.0302896334196026
0.024502316918376
0.0260009115661788
0.0324321255213729
0.0294907144526312
0.0330407620927791
0.0150706278371889
0.0148430788574477
0.0472088545499108
0.0153116419857133
0.0414954829785696
0.0306006798146298
0.0280573186686805
0.030817214332511
0.0239823811979912
0.0355116857536915
0.0288312904317818
0.0328652677270876
0.0286939650602208
0.0355434558356336
0.0295115000048369
0.028978217728907
0.0264034254309661
0.0311668796149207
0.0284734622588469
0.0268451178129319
0.0307270482194803
0.0251761758716595
0.0300879014226865
0.0295848816476912
0.0262885382115173
0.0227000956873993
0.0307771484556701
0.030836998940496
0.0300743797508983
0.0330267545493929
0.0284656050113571
0.0302866530945317
0.0315214277124168
0.0336566597621697
0.0307124902375424
0.0180151591915752
0.0202388739546849
0.032689928360626
0.0340506659550203
0.0262754784565885
0.0325073608828069
0.0191887871303938
0.0227480151680469
0.0335635712164211
0.0217833827072651
0.030801730782322
0.0294768695112343
0.0402019141336872
0.0293857412744982
0.0303632890181834
0.0313032586029893
0.0248345111893909
0.0300626123134575
0.0330743109298722
0.024124119669822
0.0271182986915048
0.0243274426612304
0.0296385059882487
0.0253188123530635
0.0413492876674657
0.0291284453184364
0.0265129724790275
0.0301103019962093
0.0287551492515419
0.0310365107659494
0.0368503928457573
0.0309017683759241
0.0306736115067592
0.0212094876297997
0.0335287810332449
0.0223142733827677
0.0358717118537819
0.0338875481183943
0.0321355538718763
0.0225864827254117
0.0336274892838367
0.027372012488551
0.0319947371012771
0.0298927823922597
0.0310035479726775
0.0252030039794721
0.0298440175990527
0.0296831880097464
0.0260474515857053
0.0249061345469361
0.0327244048096912
0.0291546334703253
0.0318106326379488
0.0357100626390017
0.0305156344191666
0.0293593685977071
0.0329064647502141
0.0391446675287308
0.0376725254782473
0.025286824152656
0.0330562823308375
0.0318524981484042
0.0409625370278799
0.0294872463676244
0.0417657044541229
0.0238652356717104
0.0358758317904163
0.0331587425348664
0.0358377329636764
0.0236751259691848
0.0266332008411381
0.0236002726529963
0.0404978999159241
0.0228325538090361
0.0335826218963952
0.0175098684399974
0.0426876567606732
0.0359128364581853
0.0202968591868709
0.0376484771062618
0.0415932052324222
0.0227057508140697
0.0371644923170717
0.00882621635434934
0.0615767034548363
0.0421940823619941
0.0280143816073074
0.026572872839034
0.03355450157468
0.0331281375875861
0.0310351664309533
0.0231757212038501
0.0258381443793632
0.0344171164498374
0.0145604232333247
0.0310304495714169
0.0259746974737633
0.0182176696972239
0.0393461052602884
0.0298646807912544
0.0389510476600107
0.0352328386705847
0.0370537568258459
0.0305032712908847
0.0384113193933834
0.0301401205159236
0.0440702802823769
0.0320277716917567
0.0394432621091516
0.0325875069145634
0.0334312729590067
0.024320468172208
0.0439722296593288
0.0332035963308002
0.0410818706761873
0.0395406222076982
0.0347575926291891
0.0354925045757975
0.0411503639530503
0.0399616596103463
0.0370160156876306
0.0222127120675957
0.0401866016166937
0.0308777102852712
0.0371818699520111
0.0297424222281075
0.0427511953878208
0.0365407454957626
0.0412849247459734
0.036603121335371
0.041004334928186
0.0402572057780537
0.0415194802721594
0.0357911089677216
0.0412866998872876
0.0386728054479829
0.0403941262911061
0.0430699117768215
0.0387365666580348
0.0368203882951597
0.0432928756345844
0.032331947625087
0.0465342272908389
0.0324305804968031
0.0386016179897737
0.0506936086109547
0.0370940040109294
0.0403808424309082
0.0430482815871506
0.0499811911651288
0.0442578992672252
0.0441642270111257
0.0481547196154867
0.051635877160911
0.0458134972250026
0.0465362797235411
0.0538265648821319
0.043041475487275
0.0591510700993137
0.0581976153636497
0.0546053335134413
0.0448554848671272
0.0484242269554298
0.0395158260361967
0.0619497954072038
0.0445540361109858
0.0663374518172399
0.0466301018470552
0.0595600378118848
0.0593522650502471
0.0636329624131875
0.0636805498400206
0.0647449861648922
0.0614239103203046
0.0661457281182052
0.0653799185779084
0.0636136585423399
0.0696477271294861
0.063737706212935
0.0764976255518596
0.0755636455217022
0.0611390367293669
0.074331385308249
0.0775103203971555
0.0783151952833825
0.0836584814580526
0.0770888197959359
0.0910316394865234
0.0776095230261155
0.0882737786731657
0.0788730478268707
0.0913307256154037
0.0880595762937353
0.0880086788148129
0.091298050229817
0.0883657620467678
0.100495421437074
0.0955303133893288
0.0970307214269077
0.102955259024134
0.100525707054768
0.105465370579804
0.110461208681704
0.113194502978297
0.112902624546828
0.102968804639233
0.113216218327399
0.109784302303202
0.12734067733611
0.119583009086715
0.124565909501421
0.118291405484259
0.127839386915229
0.122119386362387
0.136296649969623
0.129541959851789
0.139770682973109
0.132688227178864
0.146128753942613
0.14281312302502
0.142721616483273
0.148004164279902
0.141665957021244
0.147506948243159
0.151902641466178
0.151307356639822
0.159860043187709
0.15588758426085
0.162211593905253
0.158741344920166
0.176107993021695
0.164447754230715
0.17615125312795
0.178084037930019
0.178233987163565
0.170792999724117
0.180842608570231
0.185755812267341
0.182576598976473
0.191671446391461
0.200192410697219
0.192468886858699
0.19135665380827
0.190303424846654
0.216289691294914
0.210956535940464
0.203754656488396
0.225771591851718
0.221716695750818
0.212177812188556
0.221781356368838
0.221381525526084
0.229984957239278
0.218477504933389
0.231661815791662
0.228020431873673
0.235946287442307
0.232930798184156
0.22983289603836
0.245928287990452
0.248323764931734
0.258486050810707
0.26719612478269
0.250372016514484
0.253748513162711
0.25973747178128
0.270097755770535
0.283355493778573
0.283441280900735
0.285083963237185
0.288878512949198
0.275695134836807
0.307347538845042
0.291420113912932
0.306109020555336
0.300905401615075
0.307437584649277
0.313354528887365
0.304408928777432
0.309196974322326
0.326650243966351
0.331343474915552
0.327666689982913
0.339439640601821
0.34277805363234
0.345587266716383
0.345482224738422
0.356180177238312
0.358497404236368
0.360031420993438
0.358304487561782
0.365725077552378
0.361871297728966
0.364101522958879
0.381450812079331
0.382857596758777
0.378872785535193
0.38447625514974
0.391075393920929
0.408555838361011
0.401480751984826
0.409107471890021
0.40219246874428
0.416262286994096
0.410192843095084
0.413313188520853
0.423143586584581
0.428166957897134
0.431333274557012
0.439911040925218
0.45690465385375
0.442614888168954
0.436082567842086
0.479644566923562
0.462826606213132
0.473951036811365
0.487488398543105
0.488630093745309
0.478995795477033
0.479566686661821
0.488709039394645
0.479172528206021
0.502611618496692
0.497650519358102
0.520054769161669
0.516021209970566
0.483739699344013
0.521000326187504
0.523971646059624
0.515589469638813
0.544291280790147
0.527881794333198
0.536011522547287
0.565090573133823
0.543311615562019
0.565951489053986
0.571473066932511
0.572473343382085
0.571824100977119
0.574424401218604
0.569538749443037
0.569809702310693
0.566547237358236
0.582525240360801
0.605595154957398
0.630363297747552
0.604764331215298
0.618441047315203
0.607514402142712
0.612940281431999
0.634117231066526
0.650418275987946
0.628633471725534
0.630537402487553
0.629113211546326
0.658099761668891
0.672097814975995
0.669227920580612
0.661988421376831
0.688425205303212
0.670357904664635
0.675818411889611
0.682540344701389
0.713558942604232
0.721819993609351
0.7159607052703
0.683259121009022
0.714890659974962
0.716060010542503
0.732172163572376
0.686545950238449
0.735124187643509
0.733086365321709
0.69525753211969
0.733636068702166
0.754683553885037
0.713926819157277
0.758432628697
0.726933907464539
0.733436891662254
0.743638850877993
0.794663436362552
0.795862571235174
0.833037589813942
0.778659905711621
0.847895280038964
0.81163266991578
0.820667810385837
0.821847324477175
0.856914712573622
0.813164390467202
0.86223726538675
0.822154207274032
0.82497633306523
0.814710517983988
0.877164474240752
0.866651161924773
0.84464117664101
0.889752325810142
0.873917830159014
0.875878914556388
0.889503249426184
0.858845792227416
0.924825132720441
0.88250075023352
0.88367326565402
0.863908980912476
0.913960014140976
0.893615867077273
0.890096111577809
0.878756115494429
0.929633473734
0.859502566181943
0.870309733585728
0.892850367230158
0.964175017463675
0.973136930705291
1.02132956613861
0.926494274412433
0.948431270654095
0.893869612762027
0.939629269918277
0.997467434266629
0.997672042407302
0.983092701910314
0.969868117240845
0.979772493936232
1.01243285278881
0.930202351570844
0.950052565479085
0.929077950206142
1.02634641925223
1.01293978916884
1.06519952516296
1.0808661453277
1.10282561470668
0.953850878875456
1.03334794461789
1.02457735645377
1.06200044777858
1.07462053276199
1.08186963429966
1.06149327465351
1.08513489804866
1.05133215362953
1.1231013151724
1.00984862551499
1.09495661722886
1.02715087917668
1.04929330842935
1.0472372480428
1.09548730342249
1.0291251163069
1.06905920301261
1.06222866060586
1.09692595419797
1.0542097829938
1.16913288105812
1.10361343257867
1.17115047492032
1.07502458522237
1.12924175005908
1.09688882032003
1.12802479389562
1.08872438129984
1.24428917680378
1.16950616782516
1.11175214514117
1.10376957865988
1.10921856634915
1.17682690449304
1.2765992704342
1.20155299033466
1.28478448970534
1.111789069662
1.17975509019873
1.13728312117049
1.13253644433989
1.078484094866
1.15007544898421
1.10878973415746
1.17398731344491
1.16941029438465
1.18512413978211
1.15503743703008
1.21295437710055
1.10576446078119
1.21617381538068
1.16960544253046
1.19333325693796
1.20221629442869
1.23012733919534
1.20635977441289
1.22286495446904
1.13767089793394
1.26240535441652
1.18801895549668
1.20730780978898
1.17826690335865
1.22261471439634
1.1981092814109
1.21975532908164
1.1383846173941
1.33672828524287
1.26056501998217
1.17432548366589
1.22065505826389
1.37676958342881
1.20196353620429
1.20991843761178
1.25780528060754
1.18479231310222
1.20635230970179
1.25658269879727
1.27221270992381
1.25932479558348
1.20474479948171
1.22146451581654
1.17403141081645
1.27456217694745
1.25590913380755
1.28309589837603
1.20678714345265
1.38982786223277
1.22257377527203
1.27852743040605
1.27457125861172
1.26892839005175
1.21828290783288
1.316849898205
1.25455901870593
1.27124430176789
1.22312070901421
1.23087842015953
1.29210957317643
1.38725782017965
1.25916175028125
1.38423304324404
1.21658141091345
1.22328745109357
1.33699546824159
1.30096637453847
1.21611671663886
1.25644291373908
1.20100729570117
1.2058269198797
1.26456221685548
1.32885802411353
1.23946916914177
1.27378559058602
1.28455471912032
1.22848960873448
1.18084622137139
1.23984433496334
1.21899752241377
1.31210625955614
1.27978487467311
1.34584287624578
1.25189076198438
1.29623607081022
1.39224985223505
1.35883941194117
1.25669598530683
1.29068206520253
1.26627499355457
1.26772292410388
1.19410913688637
1.24100646981239
1.21468779634814
1.31973870782664
1.24525396821298
1.28034040563504
1.23249211263425
1.20851157786025
1.28334750324795
1.31062076976963
1.29227723542354
1.30891233397832
1.27493227421529
1.33546807129659
1.25321794748636
1.24818651931727
1.23852105115364
1.25203876032898
1.25515276324227
1.21616436726934
1.25001733321848
1.27069653246906
1.17044080564386
1.31042799667527
1.22070890617028
1.31265284831574
1.21807249638248
1.25616655776175
1.16229220589907
1.30495483171981
1.22681941540795
1.2380077690695
1.24945665545944
1.2656048117495
1.2591747981703
1.2938257642364
1.20726158021817
1.21556817280843
1.20251667274082
1.24096785889982
1.19913624986742
1.29517320504535
1.16806319173437
1.16512387494384
1.20204303998376
1.28561139412484
1.17103287199394
1.24657017738507
1.26066708543177
1.27120452681391
1.18968327008502
1.20366857518208
1.16011493371618
1.21896866196076
1.13536152213397
1.22071045338228
1.21646829949932
1.17136995234933
1.1142171976183
1.17328051180816
1.15160073215265
1.1476981430535
1.12698825620316
1.16504486562886
1.19115694304119
1.21215133705377
1.12970713039032
1.16484277279224
1.1401892682373
1.1776988214359
1.15565441598357
1.23233694301513
1.19044797134411
1.21103517189129
1.15220854519889
1.23110313098163
1.14789400629001
1.18334477199625
1.12626285284861
1.13843530708786
1.13353137911418
1.13997288403314
1.15554545119074
1.22933295315912
1.08467018579335
1.13821630109401
1.15405137137308
1.13498849431912
1.08795982786802
1.1126356639685
1.06728437858246
1.11853969900935
1.06085161338104
1.05469823524864
1.06993956861359
1.14712347891555
1.0968176879688
1.10844250152182
1.0594797069008
1.06564671605575
1.09781358063724
1.04412125964597
1.03674836590305
1.06348028909334
1.02090774091895
1.07459611079364
1.04302826629556
1.04233192223574
1.04319684276599
1.01790473848251
1.02183464147312
1.06628925195592
1.0309493124899
1.04544383741246
1.02639714446432
1.00673526582687
1.02651765105681
1.0285045990569
1.00536757208239
1.04563698952426
0.97079774808708
1.01231129813302
0.978165187010747
0.959163508165304
0.930695055655681
1.00049468078957
1.00935766073155
0.983989258037535
0.956635673999604
0.942883873197941
0.923998364775607
0.930160951599277
0.946325787474041
0.964989856609849
0.920325394430181
0.963239176596412
0.928768968088751
0.936596530568089
0.92010068281105
0.895594642950411
0.895726946857573
0.927214506319158
0.901105406933208
0.919035041698146
0.914888453238684
0.929307135471412
0.914070182112308
0.911239326970466
0.865534606123596
0.880944866590833
0.88237407336206
0.861640692620866
0.830169283760655
0.852587520395779
0.865262566213368
0.852849324498715
0.84040934081697
0.844434824420089
0.843612196526474
0.867539146348922
0.845074446102686
0.837123936338076
0.835680774014105
0.81056820907465
0.804141924573067
0.818352770917888
0.812013454278572
0.798627155849441
0.789802371758889
0.812913775353607
0.796953284970812
0.784866912475854
0.773848354705498
0.783276681177772
0.772459944094624
0.781816316532799
0.762075729344287
0.758220127650895
0.7463268076023
0.746724920107779
0.748198946130379
0.768133737988637
0.74985109344961
0.733715949828762
0.719677641348363
0.730838215765855
0.729671682014886
0.724222073124086
0.718741781901656
0.7175356540499
0.704324550682182
0.702285847457504
0.700554403531154
0.701059890865192
0.690207380579752
0.691393829109057
0.673513185938542
0.691038930838022
0.696385305560508
0.686091643366884
0.67154792067308
0.669786508359947
0.650805667740284
0.672007501933301
0.654294680173835
0.651678881627648
0.645198101011799
0.646829897265847
0.640951271836542
0.636368373529376
0.635930967784396
0.641131653068595
0.630300280836105
0.632818053918553
0.6242738923915
0.636840796270423
0.619059383749891
0.627851836471908
0.611619129990721
0.605393182334521
0.60474893685169
0.598833562943484
0.600569946271701
0.602858383736568
0.600448988949179
0.59640208383252
0.581561362994415
0.584447864218368
0.577274981690306
0.57702589896356
0.575403512218575
0.573372566259295
0.578445221736397
0.578402694644019
0.577285930317147
0.574406552053457
0.560431711282669
0.5593953814965
0.555754553546669
0.56211552039783
0.542259157380693
0.551899604788214
0.542309399632781
0.54377707836738
0.541074385256454
0.543469994030672
0.537774774893039
0.525349165827981
0.524334502363599
0.526901382017678
0.508209860452025
0.520374520040504
0.518717639488424
0.523472466983649
0.518556090165496
0.506271806283071
0.501980438617693
0.500914264257413
0.498700508281843
0.501600501509185
0.491336451795702
0.491153197055733
0.487128290947317
0.485186473529344
0.479931879308199
0.486304903646519
0.47826179118486
0.4798321602222
0.472192846183153
0.471117688880784
0.467401185937917
0.468324342897767
0.465366569876156
0.455193036608011
0.459203705427457
0.463181198927413
0.45703845894007
0.456551800554903
0.450996278739412
0.447278940722598
0.449725517954517
0.445757869746072
0.434941405727948
0.444917240668655
0.440012135270914
0.439482308527768
0.434178331013457
0.434234580107262
0.430451462961771
0.430282052368317
0.42110087435675
0.4270443071962
0.418579573581116
0.419861401748349
0.411427050885818
0.412191181285749
0.417428781068706
0.408882533750514
0.403099360972028
0.41526697664195
0.400301788714744
0.403563073966005
0.395316752352884
0.392944796899115
0.391904176187279
0.399339185440421
0.399517453382868
0.3972688145675
0.392764850069867
0.396101833681023
0.3961282769819
0.386994679383351
0.382873903954115
0.385425825942895
0.382213758983484
0.378229268875685
0.383964822867098
0.38970594701868
0.37886715860535
0.3803885533435
0.377291436699497
0.379537404297708
0.383556707878212
0.383957896065556
0.374014847388954
0.373604475605625
0.382081879606469
0.376665786137475
0.373913814533488
0.383156886541122
0.378047614014512
0.379415162315689
0.386215613443067
0.379082143681283
0.373761962613256
0.382685690371877
0.383698180859244
0.384630365655174
0.387993008525568
0.396629163380803
0.387121178728111
0.381014549672126
0.384330527857449
0.391173574423288
0.397961279423307
0.400776599739152
0.394609619321523
0.400890076689514
0.404775848301197
0.403862943569065
0.408397245977482
0.407744866314999
0.40662183813153
0.409253200395099
0.417369382885146
0.417513974866528
0.409493165623071
0.415901938738455
0.41705619707953
0.425826000933581
0.420863666661285
0.426305667648589
0.430649448573892
0.431172213483773
0.424398656200698
0.431207711396726
0.44047379217771
0.439593475412261
0.44530516651914
0.450736785373142
0.439687307542645
0.457378634497778
0.449356716968033
0.456050886241297
0.453610321820222
0.460522459484136
0.461294012835525
0.467526138581955
0.474851917309461
0.475484968918293
0.473689842076392
0.489287742996358
0.47873638511763
0.496157578834024
0.495850858393432
0.498728499307704
0.505104764865445
0.513505669100289
0.510485059974267
0.508346660862619
0.506898154395435
0.517168818498759
0.512116984065358
0.520643445075716
0.521643063455982
0.517959098701081
0.51187898119016
0.520138364483996
0.517347553174398
0.514683936307593
0.507882017122484
0.532929333834386
0.51909071409281
0.513564366137739
0.513644825329031
0.514223776047362
0.516173285031471
0.524694111430902
0.506607063986324
0.501924110697909
0.511163199590978
0.508407264546567
0.507313952938289
0.510189351017931
0.504160764232151
0.520620328587238
0.515088035681866
0.515453221677364
0.511041916943223
0.528549985545928
0.509745979850989
0.510368242146193
0.516988008593206
0.514210693175096
0.517038933957604
0.515210531242551
0.512826797438115
0.51168120338408
0.514946637934511
0.514079321729866
0.510698300253305
0.518665282050624
0.518922246223675
0.516929246526817
0.519045833513437
0.513805122936462
0.512646102720453
0.512643377890781
0.511489859566363
0.519881411994408
0.517990628481907
0.511230064238554
0.50896224756338
0.51707156553697
0.517408830942968
0.512061970588437
0.511351970103273
0.514167704304355
0.498483290376183
0.51000271285538
0.516036765254877
0.508066658638821
0.504169746007136
0.496239956064877
0.498464591041855
0.49573710648236
0.497792523220159
0.497270297309461
0.481465828052472
0.489455012091636
0.485768198526436
0.481049984416201
0.472506564094236
0.481862715157497
0.470877194706761
0.470533225373732
0.461141542281616
0.459826288288993
0.45328604999686
0.457073081068048
0.453893661160358
0.456850998189454
0.447353099102569
0.445756510453413
0.438276613131342
0.434649770356886
0.425990700041726
0.428769594911764
0.425550544556667
0.425747545746074
0.41827886957103
0.417938424027472
0.406535509059791
0.412674377511875
0.401014373923322
0.405325189307193
0.396155740568149
0.404431126109334
0.398301186038438
0.38885420914362
0.38931810111728
0.392857437683331
0.384297107165804
0.389920007714181
0.381439729899921
0.380249802207659
0.375721752012298
0.375947558551003
0.377575612471717
0.377346434926596
0.370252793984121
0.365451670998749
0.363010880295187
0.360795236699456
0.351482941340435
0.360967034106827
0.356334938298376
0.352682826818695
0.350380273219885
0.350947302535376
0.350921931264187
0.349054174224628
0.349015936450609
0.347822809854673
0.341090715608462
0.34163126491689
0.341478758307354
0.337919124421106
0.335169282452179
0.334710860969926
0.334081620709578
0.333888114566732
0.339014229359937
0.33668515890505
0.332768617267916
0.329738902227489
0.321272998454947
0.324848759320484
0.322757268221425
0.324245622570534
0.322320188102922
0.316311977062072
0.321285963423516
0.317009954180648
0.314725676314399
0.313839675751925
0.318482496057033
0.323697640019543
0.308923231463755
0.3116407607049
0.314252000951055
0.309107851249813
0.312030467545237
0.315035071548987
0.308031199779851
0.304171277707427
0.30386615863705
0.303032762737925
0.30114307399518
0.304507624067184
0.294698893690781
0.301485157829118
0.304242256701413
0.300381828083559
0.295606380677419
0.299939081082447
0.295052083393119
0.294436349263422
0.297969533868678
0.293823111928962
0.292297896075998
0.292607943682565
0.282649980359235
0.292432999128426
0.290464782617323
0.288531348442576
0.288517390903875
0.289292037781307
0.280771877339732
0.286795505731438
0.285184432326168
0.287340142338073
0.284195423997364
0.284990175691369
0.280456531643227
0.279718270840047
0.285972479471835
0.282435203289468
0.276895112747467
0.279376324978564
0.276433025773058
0.27421868468124
0.278161090830075
0.275876862835562
0.27413931738519
0.279547575045999
0.271870313990943
0.268790472348531
0.270518365215191
0.271689097417806
0.26980484001674
0.268972317793582
0.271295486698171
0.271630966745506
0.270617206523679
0.270017314401475
0.27043131958966
0.273318322317238
0.271747467722765
0.270981664160608
0.262897329903786
0.265709371657637
0.264338097065545
0.267085402338124
0.260523239790919
0.265097622409735
0.266717082454195
0.265898454383725
0.266641877721829
0.26233237954505
0.263571668136672
0.263687364772889
0.264015618660938
0.259635747256523
0.2606647152565
0.260133767355826
0.258639378545693
0.25923984484808
0.2642257368092
0.255320217821584
0.254213402885841
0.262650231644908
0.25711927061657
0.252589336623269
0.259139211302948
0.26042997445221
0.255670073743743
0.260616050212993
0.25710048252661
0.252383398222315
0.253981067236215
0.252643606837319
0.254186095426544
0.249790797506273
0.249416481130935
0.250657235505865
0.247772646001444
0.249415729311146
0.24783367977526
0.24378060020117
0.246571171451652
0.245834536573575
0.247944808996194
0.248659368567137
0.240399792204693
0.245107396407294
0.246493337946723
0.242608053252554
0.242837041269909
0.243707210411115
0.244784499526759
0.242216443319972
0.238787304245307
0.242348107893598
0.239731162983218
0.236395037873894
0.240441056066965
0.243127234366648
0.238946734379701
0.238290246451228
0.234439577321091
0.231928890555875
0.233964942704121
0.23563420063472
0.230958461093556
0.231409934095293
0.231228844085045
0.230305247993594
0.230457185403607
0.230246463197263
0.227520151496938
0.228731139595208
0.226248800358201
0.227843160123666
0.227034005249725
0.224850091914509
0.221386492595976
0.222292367491532
0.222766119436303
0.218371843668852
0.216527256995477
0.21995992261367
0.217268275033048
0.21703707095596
0.220030367324076
0.215111297455856
0.211006946136429
0.218731530482121
0.214142211058348
0.215080625562947
0.211232266126554
0.213340230430856
0.210587579870543
0.208191950657544
0.20734194365656
0.207091828146876
0.2087864729741
0.210296108464056
0.207460691996774
0.206084790921378
0.202491312806766
0.20100350537207
0.203232610665388
0.201644058062365
0.20520510910274
0.20135250967403
0.196067188754429
0.19736464455156
0.192323876281902
0.194693654529431
0.196486442090761
0.193080697990942
0.193366005532918
0.191693209391874
0.192290541388311
0.191078765479139
0.193344647002738
0.190506124232295
0.191379316969218
0.185505342759255
0.186895541776816
0.188477390290638
0.186332371208739
0.188832899256204
0.178109483178611
0.185553082134323
0.183139634546105
0.186593410043832
0.185168705299231
0.18117583738797
0.177726197860528
0.180275168591426
0.17575449085008
0.177229943678446
0.176574882095369
0.178935013907951
0.175018468598611
0.176016724546084
0.177685865127367
0.178515679949992
0.174719692417713
0.170399789323503
0.172704802079308
0.172174626490831
0.172387595719287
0.169750927311376
0.168247752001691
0.173123111681505
0.171322194256523
0.166112931294286
0.168273400787445
0.167185285912983
0.165767115191428
0.166305458108388
0.166771074987707
0.167101517507563
0.163669754193693
0.166178112494916
0.166171060779801
0.162605012619248
0.163222573759778
0.16184845605864
0.160616066416394
0.163116561849316
0.161480462340406
0.158996645215342
0.156223197208962
0.160205769694917
0.162748763564911
0.15967147150812
0.160085847603904
0.158511573846232
0.158005444028766
0.158152946193608
0.156754706173874
0.156492174200863
0.156559233388516
0.156283165085329
0.156254989500542
0.154526607310264
0.151166784589144
0.153166690401142
0.154951863525455
0.155665111014729
0.152707804761829
0.152772199805184
0.152132171783154
0.155650431812072
0.153676960814875
0.153839823890905
0.153953085147312
0.150370266150195
0.150890923664986
0.149455333071451
0.149060056368313
0.151228700424306
0.147757421020947
0.1482870361804
0.150576884470571
0.150155925984519
0.147237543241121
0.145684194791702
0.145395670263393
0.146815718764849
0.145727778396332
0.14557285588599
0.144297389368297
0.145853582564347
0.14770555136703
0.144371095336511
0.142938458505823
0.144978761174999
0.138935683839372
0.143650404574414
0.142833957936773
0.1462267558733
0.142665965707064
0.141287304163821
0.14104012550257
0.142325807225783
0.139654314867746
0.140959724667268
0.138986224577679
0.140451618683508
0.137335737678515
0.134821574563976
0.140194939960796
0.139615683233436
0.138751710260903
0.136215904588577
0.135795010013661
0.136086258951221
0.137723770935042
0.135289029294155
0.133754373001964
0.135988588684386
0.13320215180685
0.13530273261348
0.134608986072404
0.132706012551908
0.130210489044843
0.133949052980012
0.132700334012874
0.13261721720017
0.132509064866983
0.132663092047115
0.131278822402352
0.131154341982293
0.130285245997463
0.130627189432557
0.12811141838235
0.132754377243426
0.131075704185279
0.130261538200027
0.126566272362294
0.129184972228857
0.125927676026268
0.128653687617551
0.128401723313579
0.127124444630529
0.125954881239975
0.124349249228127
0.124835002553447
0.126056429641179
0.125733638024208
0.124061992184933
0.125310571900416
0.126974352422348
0.123143987971185
0.126176080990842
0.12211338139611
0.120455206036453
0.123294239350531
0.121844951173852
0.119966460590492
0.119712644523981
0.119058099085538
0.122041047140637
0.120134359725523
0.119795303517321
0.117913902045382
0.118733372739196
0.116764287742513
0.113650017465263
0.114801964026397
0.115008726189996
0.116163730047828
0.112562242541037
0.115487953226532
0.114228380810952
0.112214061245581
0.112702108597361
0.108361255932407
0.108760571342871
0.110082361242789
0.110015965754371
0.111320731049061
0.111179715132341
0.110223707996351
0.108473011956456
0.108455666617498
0.107055753330427
0.108241916005365
0.106529493299838
0.107636402896027
0.107780805927548
0.105778572570188
0.104085190920786
0.105299535911699
0.101854503561445
0.103166502693276
0.104808973011089
0.102021035100129
0.10083922625681
0.0999641663535296
0.100211967427596
0.101117701307361
0.102356653845159
0.0993336606042916
0.100379262271674
0.0990022657246249
0.0966157971814069
0.0992216053444178
0.0999925029450699
0.100639556896836
0.0969192646283937
0.0997822361848625
0.0963603558201532
0.0932779785615711
0.0956709324851638
0.0935611181503299
0.0937002626070498
0.0960386906999698
0.0943071644678173
0.0914157148455129
0.0924056143067179
0.0927417074752558
0.0930587608452982
0.0942747619073215
0.0945694995499082
0.0937646175510937
0.0911717990710368
0.0928549367198026
0.0873581115198396
0.0917910358001936
0.0899777254189891
0.0889681097345437
0.0910014946413132
0.0879583032921047
0.0844643326145936
0.0893026548364934
0.0866831559644754
0.0867011925634003
0.0879132523974599
0.0850993094486376
0.0837741180615539
0.0871900279593017
0.0865731805642416
0.0836399391564887
0.0876444608991766
0.0856166480182804
0.0870934137427594
0.0836433239062113
0.084368745923768
0.0832157535715788
0.0813604570060912
0.0831683393231732
0.0831625859569938
0.081294725659747
0.0816141645736247
0.0833713275580568
0.0854445418029916
0.0853244228602817
0.080811862544647
0.0803149537289713
0.0836142202096108
0.0804813791466572
0.0808691968458249
0.084024522884649
0.0823689058141697
0.0803340255074045
0.0803557141365324
0.0819715500392572
0.0780464541580789
0.0747733430972587
0.0799791938865529
0.0760344868765101
0.074862406532232
0.0793419004054947
0.079482229133822
0.0801149156638592
0.0739580907087521
0.0728400889866118
0.0754623019227435
0.0781044402810304
0.074479408490537
0.076908445310481
0.0762048114352624
0.0751844748690267
0.0718049617715668
0.0719288323699382
0.0728069749684548
0.0750991258870947
0.0786581073624215
0.0695221670245159
0.0725664824145656
0.0774919982081965
0.0777756311062039
0.0717171006763127
0.0719403354233015
0.071977047721515
0.068655858734035
0.072870591510244
0.0759833698208738
0.0724299028417224
0.0757146096340882
0.0736936937961448
0.0715992969093563
0.0692253555786667
0.0744548349949426
0.0744276299508918
0.0767966173244136
0.0741820010376139
0.075808396057743
0.0709589120853971
0.0782824202787479
0.0761057310809764
0.0816905335066832
0.0752469733920727
0.083258885572753
0.0726638779745949
0.0805243699137558
0.0687791476768849
0.0755032962193015
0.0707541116326199
0.0778164259876794
0.0681428513634489
0.0778779697309541
0.0619380114305516
0.0769969078580088
0.0619626467647734
0.0804606294574082
0.0592770092222556
0.0735453208519889
0.0563251014202901
0.0786897180004007
0.0663287303027508
0.0729244379300461
0.0654668758755626
0.0729980709616258
0.0628943764938666
0.0679475887156285
0.0724269863556551
0.0670236362546398
0.0695281419010986
0.06704379474882
0.0702493534783749
0.0604552776794652
0.072682129862518
0.0634300796205199
0.0731023489957885
0.0660321853445835
0.0691166607502446
0.0671846749677692
0.068621517940544
0.0669003603309512
0.0669897206433171
0.064580546643114
0.0685004805825542
0.0663554591312306
0.0663476563618124
0.066654542541527
0.067532834716714
0.0649862586504224
0.0665260278693679
0.0660273312142723
0.0684765890159412
0.0658808567545543
0.0656924609563265
0.0657738475338984
0.066609580516067
0.0684582692433676
0.0649166918038709
0.0631716327816078
0.0667334080064709
0.0639399240374468
0.0667482929556418
0.0647233742434791
0.0648531064030621
0.0684675220041052
0.0680402998376499
0.0681783971397737
0.0670003237493415
0.0631557169414613
0.066910637927649
0.0636373321696753
0.0672476804504643
0.0662605924083214
0.0670127036780835
0.0648359789599132
0.0662601237591655
0.0645652667667383
0.0649143355586762
0.0659676095505373
0.0643111945275955
0.0652418769467832
0.0659353436781836
0.0656094766628798
0.0660816809684015
0.0660491710366664
0.0648204666112151
0.0669180089733338
0.0667780204946256
0.0665041176076225
0.0687613539210042
0.0658521139901889
0.0689768737493196
0.0650096389401381
0.0652399320479044
0.0661866805361142
0.0662810761679904
0.0650740382983519
0.065112852833957
0.065494701787703
0.065195488887287
0.0634276738165743
0.0651454058894893
0.0669446497755078
0.0658096234341304
0.0667621934315522
0.0655030031192126
0.0637298276927931
0.0636866774629062
0.0644290043950313
0.067561602837155
0.0638230674261643
0.0658133487016127
0.0650265377245285
0.06496965811395
0.0633567563183237
0.0660848148191437
0.0679493967514022
0.0679987083258223
0.0668504271451184
0.0687929633240147
0.0682788657959516
0.0647850115460568
0.0654930281456678
0.0689457905535206
0.0672770317650298
0.0668180899530634
0.0684154160466303
0.0675657318717041
0.0657677368523474
0.069734698305746
0.0651471691017516
0.0682945197737209
0.0667326310784122
0.0670865074102959
0.0689442813369222
0.0666539566494978
0.0647175504879083
0.0656917195598848
0.0664087413982143
0.0699727322436676
0.0678665065294063
0.0688751602349044
0.0682729066310206
0.0702686859104361
0.0657081822050157
0.0677228667229185
0.0672542063476769
0.0683710270425063
0.0667411230237747
0.0674264757402948
0.0668756946642221
0.0709738412301821
0.0696421243048225
0.0670737330896701
0.0685681909883537
0.0691799691749466
0.0681374937703156
0.069512749643717
0.0679547507958108
0.0683778439166438
0.0680289345338309
0.0686332675871006
0.0694303567988398
0.0710290729458934
0.0709870889342053
0.0683262935838567
0.0697995248467929
0.0717549220912733
0.0676745968143531
0.070145348352893
0.070135969046776
0.0707330910445562
0.0716899851222825
0.0700893738099475
0.069967055038731
0.0700201356204964
0.070908457928156
0.0688948363885065
0.0695518264290614
0.069705879726897
0.0701067035622971
0.0695700148194008
0.0699157711635833
0.0707805665334677
0.0713948403328325
0.0727723429724562
0.0698277459263829
0.0726046894902624
0.0716325365629517
0.0728404740096512
0.0720005803853262
0.0728832040819871
0.0706335133389019
0.0725890771727581
0.0693566480248334
0.0721393227233382
0.0745754054201445
0.0720117007993008
0.0709410069033932
0.0736356428183045
0.0715225490120552
0.0720416833998029
0.0724561966143364
0.0729093029512346
0.0733085562772417
0.0727617071384053
0.0704718134276338
0.071889979671332
0.0721486709482281
0.0704576213110699
0.0719401064900705
0.0736649356978144
0.0716631158292926
0.0707743336722656
0.0748480893019714
0.0744762693098614
0.070264874124534
0.0721135574893084
0.073147426715448
0.0696096718248487
0.0701737698276956
0.0710015979768541
0.0698468808072885
0.0698185345743163
0.0705378199236424
0.0679728376311683
0.0679532754917345
0.0707390761502417
0.0691337197821222
0.069794921361673
0.0681273511039116
0.0694592329356309
0.0697863295562803
0.0698948897016335
0.0675563003501355
0.0679343547688988
0.0698372060435734
0.0689559672950842
0.0687342723346116
0.0676399750135282
0.0670988907313995
0.0695750366291903
0.06846673047049
0.0680160082235361
0.0683577000366948
0.0668311947269009
0.0670906909942722
0.0689905497902764
0.0663138641725904
0.0674327661401895
0.0687451285522628
0.06770524878672
0.0667476819344829
0.0700930158502694
0.0666757662136479
0.0674732476481111
0.0642156123375438
0.0652681772707251
0.0652318730356101
0.0667076031770923
0.067900579600219
0.0673297699593098
0.066332204469754
0.0670584358033082
0.0654273940145093
0.0663598296753
0.0638299577889301
0.0644262277260074
0.0678864191071285
0.065077085854786
0.0659480302574544
0.0663816892362751
0.0653406113743531
0.0645901787252228
0.0626269547161771
0.0652509748077499
0.0653775382054226
0.0648071852558173
0.0644331635977076
0.0663650826888022
0.0644225629801956
0.0659774132238741
0.0653112008270784
0.06508860446319
0.0668742261290063
0.0650752777132109
0.0646763364329959
0.0653280492022895
0.0669811183215226
0.0663122917073131
0.0657735117926786
0.0662416281146597
0.0644831182857674
0.0668214789865078
0.0662361146495118
0.0654298028533002
0.0655301196005398
0.0650942124869803
0.0648825025603022
0.065371919199808
0.0643879795663343
0.0626586528884815
0.0642513872057088
0.0652744308679375
0.0659278492417287
0.063472946909758
0.0651223208240171
0.0653370782018911
0.0652144394229932
0.0634553306883553
0.0637523038151969
0.0645087663348201
0.0623055090936951
0.0607482683071033
0.0632949227414413
0.0609425619551412
0.0603171150968215
0.0641680751504773
0.0617954815601299
0.065129257555183
0.0618521528782594
0.063906795007286
0.0600300271401431
0.0626072501363552
0.0632102377364334
0.0623841014863526
0.0603415691415268
0.0613870196404156
0.0617143251140546
0.0611513342547889
0.0608912415925876
0.0614090529264541
0.0616501977529638
0.0620383421592928
0.061557978836597
0.057918846035765
0.0599501588971493
0.0563258410566057
0.0576309069917993
0.0617960290357627
0.0574951999204471
0.06016637670965
0.0591756361897301
0.0582210167076563
0.0591357268665086
0.057024123592452
0.0563206106653513
0.0595173533777591
0.0568860838358504
0.0571300430341853
0.0560610244466912
0.0562512085833729
0.0567209132495468
0.0576381403485537
0.055870983307041
0.0564362766776091
0.0563670432465813
0.0580895363244005
0.0562403810936225
0.0573450605058137
0.0545298756753703
0.0555836378418254
0.0564526908381562
0.0558219500333005
0.0544337389223862
0.0560819320147362
0.0534957507847988
0.0535331296831398
0.0534801107397642
0.0548886536948849
0.0549364548226262
0.0535126721594275
0.0522774711227699
0.0527910274503374
0.0543311766040104
0.0531413723760442
0.0537108358592711
0.050386673045076
0.0534156571339312
0.0515101965065189
0.0529139538683905
0.0544416129930193
0.0507113836954998
0.0512877196310838
0.0541246227877385
0.0529881746792103
0.0524704809382889
0.0527897899554522
0.053787157758722
0.0519693846701583
0.0544889126688457
0.0503309725174217
0.0496363801597961
0.0526755302908446
0.0510996805205083
0.0497668898373023
0.0500684093745603
0.052163487620899
0.0506908494253942
0.0511723737530292
0.0516310749938928
0.0516463992341202
0.0523908151328183
0.0497388059222389
0.0505029224825652
0.0497485038302703
0.0499654420395973
0.0507435081257958
0.0501711043998013
0.0510611943629174
0.0496369492295547
0.0502644821602142
0.0485602382928928
0.0516147947205774
0.0507247191489956
0.0497586153721305
0.0490742895851434
0.0502963665450328
0.0497865912701546
0.0502647907325597
0.0493712023565344
0.0499875603900531
0.0476919934615161
0.0465265347898879
0.0479798575855236
0.0490212632468747
0.0497471189320975
0.0491040364674749
0.0484652533652417
0.0511803297483315
0.0466581676096504
0.0506790133990496
0.0492448876428151
0.0485470540974231
0.0482243362237771
0.048439830521037
0.0480885497191586
0.0507364656102275
0.0475721017951124
0.0480007796269543
0.046664025095954
0.0497569470171543
0.0488341658156009
0.0475223342344952
0.0461257752175091
0.0482674004315307
0.0461890620875073
0.049170411303214
0.045816368697904
0.0484299166357366
0.0489807442849039
0.049443917053672
0.0477865583722099
0.0485033629224802
0.0470624828183222
0.0523729082236389
0.0484185687351694
0.048167639705399
0.0487710113654966
0.0483573432000366
0.0464108983873949
0.0477434178981857
0.047746749506513
0.0481016638891497
0.046896287004498
0.0472836758981733
0.0466012442682034
0.0452387133929884
0.0494837895506049
0.0486860745803529
0.0447755767634293
0.0479941652881508
0.0459795803142746
0.0481609333279003
0.0495684758623959
0.0472168104688856
0.0460075382381539
0.0483287884537265
0.0484128672923778
0.0481827704911003
0.0484636033420749
0.0488061424107667
0.0467032645002203
0.0473997094500175
0.0461948631544968
0.0471164475391301
0.0489700261987566
0.0477401976453188
0.0471372763899237
0.0461654066537651
0.0456893337563878
0.0479248644063135
0.0488789679150904
0.0478874096216387
0.0472472089571951
0.0483130724821935
0.0475531458546841
0.047543401122153
0.0459433303480809
0.0473216931209659
0.0481679010695046
0.0473080733313876
0.0478166456535624
0.0503178472506201
0.0454300846468118
0.0478106757965797
0.0455807062934379
0.0513720116790699
0.0464549754137942
0.0494748807540104
0.0458200363829882
0.0461212205880051
0.0482738006706854
0.0486569803457561
0.0466435262906746
0.0494965658568091
0.046405465380731
0.0463675161422889
0.0482407907072671
0.0451112804533026
0.0467974730471775
0.0482666431565041
0.0480627830543947
0.0469169047105848
0.0462745838911924
0.0469393370009729
0.0477622452716051
0.0476456560509475
0.0482897794032648
0.0469883326918151
0.0478693365301107
0.0447727189600749
0.0482066999012292
0.0475647592525043
0.0528501307624914
0.0493168550607967
0.0480274147644159
0.0513806904399534
0.0477820455475202
0.0509725723807945
0.0493596730932181
0.0487418274834974
0.0500100183123294
0.0489043126188064
0.0490581988811597
0.0504971102507389
0.0494288254530766
0.0483677664755927
0.0504642202537974
0.0509840585952844
0.0542989545390734
0.0510570706752322
0.0475914872030201
0.0513608248094624
0.0515911400308749
0.0527768576623484
0.0479440951587606
0.0536368089921537
0.0508175407730526
0.0520016911484358
0.0515429210235375
0.0516927326032465
0.0507449864451321
0.0532581942667672
0.0499808400138739
0.0504063508963382
0.0514241639113884
0.0500247912690174
0.0514859047110477
0.0543411436183727
0.0523695063375837
0.0534976233558154
0.0507709324924093
0.0530273501227365
0.0540479237082406
0.0549702138512329
0.0529524822745448
0.0525988943285839
0.0556173194040449
0.0552008697564114
0.0546315632724978
0.0555518437631716
0.0545504047357015
0.053299698249506
0.0551172927072816
0.0564713453805967
0.0537152674841208
0.0563866137748005
0.0537887093704122
0.0592348544322525
0.0607016236369458
0.0545887604732672
0.058681893566857
0.0542399904239923
0.056655806917138
0.055882194293647
0.0588663844038376
0.0553494392848013
0.0645641913519913
0.05487082290529
0.0566777466223971
0.0557167543594272
0.0585442501264141
0.0586226760660369
0.0593569121447445
0.0612934521772347
0.0594715032586678
0.0587979360532717
0.0619716674914185
0.0630307683775488
0.0603980523486081
0.062156392355099
0.0625598819755446
0.0645685013939827
0.0624966495176872
0.0602207799774962
0.0623348003190322
0.0616880144232135
0.0652817103919463
0.0612476069921083
0.0636078063657258
0.0614325697988123
0.0640225009862943
0.0639522237965234
0.0659598902125828
0.0677022479414541
0.0653084803558283
0.0665144138079204
0.0704675631578296
0.0646910121277479
0.0705386350602875
0.0660781198695585
0.0682967554275056
0.0657563622542653
0.0752750074765186
0.0696239277070917
0.07655230454514
0.0743248391014515
0.0740197963850451
0.0760716340674615
0.073126831718409
0.0757441560665063
0.0780197635369524
0.0773103353325882
0.0778391329687978
0.0793648874915696
0.080029925614945
0.0838354100982504
0.0788243924520998
0.085338001344237
0.0778886331889933
0.0869890398949485
0.0950203635981252
0.0937770028051283
0.0865620789369351
0.0919253293318478
0.0936980542989687
0.0945140266818085
0.0940258078103528
0.0935599919240059
0.0945941645989564
0.0955311953707944
0.0996923314495438
0.0996754605162805
0.0971235612070439
0.103009363364354
0.101574849415265
0.101698539318618
0.105688353181402
0.111030911081373
0.108266028808697
0.113617010462923
0.105129780663935
0.120442947738657
0.112501593487248
0.113879838561548
0.11554142106207
0.118232305962431
0.119950351238094
0.120714667841443
0.121506486879832
0.124366924230301
0.129882722601588
0.129070435647372
0.131962661956987
0.133765313124026
0.129585053055503
0.140949277227621
0.141446183765668
0.15803624475586
0.146386621531202
0.154465788298531
0.154704171958516
0.174051508752166
0.174051807823431
0.175612144737949
0.177610616062612
0.185071079670049
0.184411517177164
0.193896139459899
0.196022688987539
0.208018604531857
0.207598616132018
0.214740453293899
0.206701505874202
0.239380602953925
0.24031004667899
0.242647304340176
0.249198091974708
0.259660407299231
0.264062860791515
0.270414674902143
0.271419171687656
0.283556213766292
0.283872562366665
0.30569752475223
0.306803964444907
0.307383964170808
0.320736914023381
0.319085945816505
0.333825332838505
0.332319364271752
0.351127607702
0.34528378210108
0.360795814318038
0.366598495207275
0.371020206041476
0.373594893736474
0.385860903912104
0.394750122394513
0.397797846342514
0.396489877400148
0.405448046137774
0.407996960142313
0.413625508065549
0.414755613693806
0.423222252335934
0.422004324922179
0.418312995653114
0.455092893681094
0.446647349889768
0.429029139417696
0.430458694135467
0.438484976666841
0.450751040324752
0.439809754706847
0.436644970834389
0.452632425227679
0.444382239497823
0.44581492943702
0.442812062498642
0.435743072428274
0.443517894913677
0.445774481531512
0.445990596255672
0.44405426694898
0.443068133386064
0.42954937763307
0.457121548322544
0.439206770730232
0.443171753213131
0.442757839279671
0.438744143761874
0.438548080018453
0.434640271040252
0.433611606995832
0.441394962729412
0.434712959675197
0.422892456063923
0.423175258072954
0.425196946117515
0.427052699594601
0.419230604928921
0.416812433588824
0.418020614856129
0.413261553733731
0.403674213796792
0.395903570563802
0.428817066369103
0.39978737490094
0.396629124009451
0.398810659148564
0.392893362204171
0.38676720189265
0.382134903535839
0.390329750940699
0.386896383501712
0.382143855039965
0.381597662365422
0.382457639738928
0.377089144496223
0.380149647288612
0.370963098894931
0.378274939839207
0.377695230863849
0.378315504522489
0.375233812645038
0.377825888862077
0.379206275209208
0.37646807171122
0.373749215891941
0.368646986432022
0.37315315158442
0.366782083190118
0.372198488495705
0.369303066076512
0.368156965010154
0.370585899121699
0.368105081476366
0.367357402103529
0.368162202400369
0.366653000636561
0.365565775444307
0.363870158779356
0.361017988875884
0.359841697033936
0.363719098108086
0.365035448589008
0.35790234497899
0.359897976531563
0.356485227395356
0.366733930830275
0.362994582866508
0.356910143879737
0.357250307484332
0.352155552794197
0.344307090274204
0.344285171673295
0.357305572507182
0.350918920257167
0.33999583998504
0.339942140814392
0.337675283534247
0.339613762796154
0.338147743647906
0.33247294826414
0.323247991004696
0.327128958779148
0.324455975354262
0.328500988348205
0.320945975518641
0.336020575492759
0.325895418570736
0.317719246714625
0.322129978925907
0.319777328320921
0.319669034955103
0.308052443031126
0.310511393528197
0.308765552506863
0.309038240519211
0.305701410507798
0.305626632200808
0.300508683175024
0.297677945834905
0.303627933113039
0.295812632268029
0.294290655352628
0.296359871402614
0.296000262081671
0.297337388200852
0.299124912839951
0.291254926913247
0.28358015294189
0.279000271316498
0.275159773501071
0.277753002726016
0.276331212388915
0.277613905960163
0.269838569202166
0.267650258108335
0.261131521671397
0.258258129192428
0.261256769781033
0.256212051566738
0.258311547525293
0.257112880431049
0.253339028594856
0.242154643648034
0.251501479278898
0.24872543313952
0.256057474338545
0.247365523299895
0.240605471109327
0.249981018866901
0.2458442606548
0.239469864087674
0.237292887395061
0.23373181756651
0.23328803016672
0.233090105917715
0.230681964584395
0.225163719272213
0.22418739868278
0.223127656724709
0.222992327528896
0.233825241727331
0.222350206761458
0.219873987738168
0.22096057112043
0.217471768911138
0.221120649536695
0.21878242926783
0.221576253645863
0.218390364139861
0.226832691011536
0.214880260429279
0.222786004358127
0.22664573682153
0.223976256721871
0.228037097322018
0.230469853587932
0.228798005968321
0.238417890092665
0.241916352889191
0.235862813693751
0.236646783111782
0.241847647495797
0.245905160220231
0.253325319355964
0.255961675494135
0.255386686760208
0.259551874072991
0.267827907044705
0.271047372363823
0.275232131006265
0.282960759882107
0.289584144944387
0.288360722335116
0.300672247504281
0.299955985887412
0.305717665951602
0.322365557989205
0.32974619086213
0.33537298825998
0.341578841524894
0.342928949891071
0.348258973001577
0.357667720264991
0.356535235957722
0.353470931981038
0.371191099925504
0.37358873308718
0.375914952064688
0.379145527967883
0.383392082972004
0.391671268302203
0.395292287948151
0.39363052993651
0.39883462388128
0.413100270855905
0.412373073532388
0.412435865784429
0.412449410264283
0.41059385454219
0.421989437096644
0.419967528752777
0.420357299271807
0.421403665400251
0.434286006109861
0.427920067634591
0.430838831099219
0.439371714794583
0.43777158997277
0.437574660716853
0.444837426222539
0.447065307622922
0.448568646177423
0.454547456390549
0.45514670536389
0.45045900059392
0.47076365970106
0.467980488591605
0.468096286763974
0.475363024714773
0.476640162778614
0.477724716433526
0.478698541325651
0.489413972019738
0.490403379030664
0.493196171270044
0.491745888539888
0.498428359891353
0.504861783336844
0.513994889524391
0.5121124196901
0.515894101668697
0.512531365333018
0.51807310549707
0.51095338078504
0.53583147810092
0.524216045137081
0.528096741280044
0.533892318243457
0.53841260211954
0.535168700450397
0.537041523060349
0.539521759272986
0.542080697484258
0.540861687940958
0.546712194937322
0.541029122321617
0.545843812546148
0.545566486545519
0.536442338404861
0.541644934417705
0.543862510977924
0.538887811797893
0.539597439250777
0.542143522123427
0.543803864447548
0.54018023661152
0.544048963004785
0.541103000869562
0.535980974850137
0.539191398159722
0.543321487544281
0.537694188469145
0.53705258847102
0.544370803566012
0.537944093412229
0.541645558378603
0.538727765511206
0.544205360294546
0.543817974865516
0.551144368285272
0.547543763613564
0.548800503260182
0.55524022319368
0.555634334199535
0.558121799585168
0.56091803993848
0.569849523050905
0.564302377209392
0.563539844717926
0.566725600760397
0.56510679306341
0.565084929756582
0.569038560462417
0.568867825034972
0.571681552831674
0.563434047761481
0.559011395594534
0.553750023064893
0.556472223297716
0.553524294837901
0.544166454171998
0.551107953351487
0.542882255390278
0.539867046508113
0.541908614013464
0.531408264633087
0.527880153766691
0.520670578777277
0.515390587778892
0.515407376272303
0.505938842668701
0.508632012977843
0.50340343523703
0.493344802053817
0.497129813369379
0.496616519612118
0.498196388653664
0.494027906575825
0.49004994363999
0.489070139737794
0.486005344578447
0.487291843823946
0.485806120922067
0.482889939130143
0.483998666959081
0.486776280559451
0.485042668565508
0.484192773695631
0.482855548206047
0.484385949244898
0.485622691845462
0.483390887073203
0.478494856505908
0.485467953611031
0.474207202572844
0.479143999531473
0.484509292974341
0.480878837892747
0.475299395580849
0.484155575984832
0.479009090644336
0.483309515750879
0.480356114897146
0.477098797665406
0.47554244527399
0.474033327678162
0.482468238772176
0.475949067767725
0.476645023170028
0.477140317839817
0.474331788362588
0.47105503012409
0.471702239972617
0.476727853829652
0.477231099505282
0.477622918210523
0.470355544518413
0.473185461527677
0.478369456826052
0.478116425309118
0.470826476328491
0.478618082275859
0.474592293544997
0.476410445391879
0.471530763847779
0.474047411842357
0.476601585049327
0.470452843529288
0.46709357986655
0.468426214621944
0.466476409590449
0.458877013361617
0.454719780675488
0.45439042173056
0.453558503673984
0.448339556539347
0.442896712474333
0.438346577015758
0.437612037584192
0.432821369047568
0.428352548414269
0.423266596004936
0.421944943861396
0.421014515690228
0.421481498493897
0.417495844383025
0.417025871414915
0.416288780714754
0.41453155106243
0.412028857944455
0.408986116834264
0.410148745642968
0.409926611463489
0.413498377644962
0.413650390422077
0.409963667796948
0.410931708658706
0.410872343719812
0.413160665174553
0.416052089667329
0.416791024919118
0.418123282042951
0.421080158795435
0.421257305992619
0.423080683963105
0.424303007868997
0.422927728196645
0.430361731679093
0.432594540326129
0.427958613933444
0.4345532290799
0.433693697510587
0.434989826076511
0.436755825004135
0.435166979466276
0.438634300796697
0.438496389926527
0.437389438014218
0.435795694329482
0.43849190609025
0.43904308080638
0.438852304410018
0.43832355091231
0.435986596778413
0.43241691164791
0.429894835555306
0.43045769687825
0.425481426419175
0.426761717472298
0.428058930021895
0.428283495888633
0.426212303971577
0.42714923220797
0.422325238877652
0.422204877751868
0.421159401268097
0.414809721828326
0.415516913336493
0.411415027369133
0.416250261501461
0.412121321098596
0.410106788820866
0.410247091862909
0.408049890074558
0.406611954443857
0.40372430989391
0.40180502661729
0.398405441839408
0.398774138045643
0.397538648108611
0.396389178312164
0.396451002473716
0.398398613426257
0.39398027060493
0.392083951260068
0.387804210102381
0.391091870462919
0.386534159895556
0.384989620407078
0.381875642248243
0.381479340496154
0.378577181843006
0.374836310001962
0.371995482916712
0.372217494592127
0.364605083570509
0.363365747135992
0.36222635187354
0.363128348326083
0.35664175743291
0.353139516921782
0.354138238347607
0.351069134247199
0.348941582419039
0.350154296900223
0.348588186896893
0.347397784846699
0.345770266224623
0.344760899462146
0.344362116067372
0.341957247046305
0.342339120507851
0.335982965234512
0.337867329900832
0.332325465956969
0.331393891346087
0.325084843549053
0.321128862757388
0.317386731437211
0.313307498664387
0.308018141512197
0.306860090751044
0.303055267383443
0.303378397449462
0.301250735555151
0.304181421436517
0.305045496394998
0.310758550593939
0.316770140563399
0.321557398063481
0.328300344436647
0.337293354766548
0.347078585090349
0.364959886026198
0.37502087115905
0.390227071513669
0.405634904513329
0.417148554626971
0.434086857229333
0.452841882143403
0.469238508673988
0.483966207662243
0.496859710636504
0.51667356051743
0.527134316699058
0.544897725537595
0.561015132603305
0.573033282454778
0.586328441775582
0.596978512849169
0.606435221341353
0.625831058516726
0.635426723766732
0.645325489819947
0.653700490519979
0.670280215066619
0.673332566033296
0.683511604875115
0.683157174606956
0.695275110172081
0.704020831615112
0.707086418185588
0.709398323797484
0.716576446794877
0.71047208366616
0.711013877761514
0.719262622950908
0.718297103396182
0.715332862570112
0.715287096079989
0.720439549263594
0.717028340196644
0.7178376055981
0.718424777897912
0.725771328321622
0.729092722730964
0.734660730396381
0.735353667710666
0.744416399798288
0.742586814533505
0.757224131287334
0.760135593827923
0.764939866502208
0.781045236141458
0.777317340989573
0.790834980250421
0.791744160644458
0.80525142083267
0.819635983047818
0.820326280562468
0.839659761860333
0.842141448905921
0.861532526231739
0.870285488204593
0.888722486230195
0.897195058799428
0.90052371146624
0.912706109305626
0.90773188031731
0.919491566431063
0.910020035391872
0.924366344276455
0.929438872363742
0.921338746652395
0.915302726993017
0.920212251688193
0.901927032819096
0.908466915250331
0.893089991698865
0.905778586997226
0.910719034012633
0.912193949601563
0.92084279048704
0.927946110280663
0.95022188212833
0.958452184020445
0.974956035813841
0.983999343599455
0.990091458876357
1.01997048268722
1.02284121640863
1.04070218332783
1.05808463546742
1.07466160209587
1.09611201877957
1.11307050554684
1.10694880792637
1.13739897022539
1.13556368992876
1.17894067251591
1.18263456632406
1.21958638434326
1.2154561287108
1.22981614557898
1.26300603110385
1.27361351545776
1.33214440648284
1.31969335156385
1.36282410220819
1.39724673133028
1.42413301592861
1.44455356483859
1.44217664468962
1.48198291016154
1.52091781296132
1.50512244313888
1.50005739856649
1.51431290709736
1.54138680600808
1.51281491479127
1.55194779444545
1.58167596332201
1.6089042313671
1.57369278725635
1.55641732383803
1.53307106377878
1.54669866660583
1.60438456700009
1.52816068965067
1.46025074700829
1.47310280112733
1.57539980954439
1.54315834928163
1.53667189209709
1.54132360083462
1.56641355582026
1.53221637182462
1.60445867691879
1.5171688197537
1.66534068108695
1.59442076444082
1.67115388473783
1.63327671005565
1.65623971186818
1.72020343294584
1.78267636701233
1.69302826900722
1.70127152135314
1.70261857720442
1.70133706653028
1.69954803180813
1.76439943853165
1.72155327871969
1.7944693620416
1.84816239049804
1.85932085791758
1.73313427419899
1.86261748931712
1.79118126432419
1.7924711416537
1.76745297739371
1.9131037308658
1.79286910063121
1.83299909363842
1.91792100412435
1.83375921974131
1.78828853723554
1.85760750529333
1.94734302659911
1.86628652286068
1.79590814372795
1.82659138326742
1.80214013402361
1.8740180809581
1.66310049328599
1.86146749207204
1.79103211932039
1.78727045834594
1.74460998136642
1.76868211794291
1.68463054589716
1.63952491461205
1.58348992962815
1.5842932131525
1.49299849571231
1.57359019844312
1.45419673192407
1.40938937529912
1.35906543218062
1.35663851949561
1.33086490967483
1.27103099889638
1.23672998461647
1.22215399805785
1.24208247504008
1.202819321974
1.18783911627439
1.20036314700572
1.20046102621162
1.17414852310121
1.14505665080952
1.15135673072253
1.13428996494614
1.14009297965936
1.10101107278369
1.11265011435112
1.09777212978462
1.06837863899153
1.04467107524755
1.04640618778381
0.991120506288024
0.974330363156196
0.941280881561922
0.924525809248238
0.894009919684715
0.861345096825551
0.83851473670802
0.791937506012297
0.76374100614402
0.724987989428625
0.690934182005536
0.665134919505961
0.626376667344085
0.602608747488209
0.56751685317666
0.550007802250965
0.521964006536696
0.503234547790123
0.478085269486692
0.466716438095909
0.447065948125931
0.433957144646392
0.422669344194506
0.411543957392024
0.39815744171388
0.392438542044535
0.392103437962662
0.377804196568139
0.374575519303585
0.374368443214125
0.36696183431557
0.362760195695333
0.36717686914194
0.366118284278637
0.367928350569441
0.373308451537019
0.372923394973991
0.370967120787896
0.369200073247012
0.374241984509374
0.377954440373603
0.377766946895701
0.371751408953579
0.373116732400837
0.369813248693788
0.365884283483128
0.364297342925414
0.363431169878644
0.362147308101218
0.358426104031993
0.35560239378338
0.350520421465753
0.352100308113366
0.342217600531289
0.339099989030484
0.342291625715451
0.343189554476538
0.344705930798219
0.345039288635342
0.351560324336375
0.346676664728261
0.350011056672828
0.35258365089
0.356138345348778
0.362210552605601
0.36263859685613
0.365803944883809
0.371196301053715
0.374704048713324
0.371749910049226
0.374509329460565
0.377271252199295
0.379372239577621
0.383744875789815
0.379161369777834
0.388643237598731
0.383677799006882
0.38741347544031
0.379322357021582
0.383641168350216
0.388984222796521
0.390199284272699
0.389573150274184
0.394626819478956
0.390586853991923
0.411967338505159
0.404120564407446
0.423734751069454
0.429450802001979
0.435642021336052
0.444275850431007
0.464451823237829
0.472195683551508
0.492129842088575
0.493658263950989
0.517845364941883
0.517362023291205
0.524723696504189
0.527698580781764
0.531607974574537
0.532429247143403
0.528653355466526
0.513428443182232
0.51657146396535
0.503065492670473
0.503186465033876
0.480030899244117
0.475876652548066
0.483393312872034
0.476681820483803
0.47228126184438
0.470852490597192
0.46657639018568
0.468671397573729
0.47349849896119
0.472328110576679
0.472268431087157
0.473319099955994
0.467310064983071
0.472223983628594
0.46463660528157
0.462170359998474
0.450404839726317
0.453624071334005
0.441326163156475
0.458702793862041
0.429882400730323
0.433741774742934
0.42233771974914
0.435713582351012
0.424920213776878
0.420534761302198
0.411455236140654
0.416565273310791
0.405274482402297
0.413596795845913
0.402544901469353
0.39364462420549
0.393739550955557
0.405042650068885
0.396137451316014
0.390566434435919
0.390463349481578
0.387088893513467
0.389220525045955
0.391709157385833
0.380095764555907
0.388344371913739
0.377036000866531
0.384692885884687
0.380028999810597
0.382595753808129
0.36270415358544
0.361496195719661
0.361420675294744
0.380545746363543
0.355892296796854
0.375940566798186
0.358299131681701
0.35983414937373
0.355747465797424
0.362126504838563
0.349145525340937
0.355075578941335
0.35318233340576
0.357935027871261
0.350938549491756
0.365579248540172
0.346654489829584
0.350736635875969
0.342354507630562
0.36502836647691
0.347750265863911
0.352892224003141
0.351862104458229
0.338910859177333
0.357311879628151
0.364523343211267
0.355880905695823
0.366759078927109
0.367778682261079
0.35834116076487
0.369140210741796
0.370047230235699
0.379959660060371
0.385079269247579
0.371214122512178
0.372744536012024
0.393064235472759
0.388279928557143
0.391264990606153
0.402793659392455
0.400245533486025
0.418753441196325
0.41572980625358
0.420959515085116
0.429354842545218
0.443019293762138
0.419285763469797
0.44854808577287
0.433571835949489
0.469344250462717
0.477786691638504
0.481827489784863
0.505744750350655
0.514003442061351
0.531970771135734
0.544655332847276
0.569532809015299
0.595357403979477
0.602450421689839
0.637645541502612
0.613921795476821
0.622436911693683
0.643064501510118
0.651565694872763
0.646091028513531
0.627060781114055
0.643186098174355
0.637074013981094
0.620400246626551
0.628456857826209
0.652598060246941
0.638338692880994
0.620311288747919
0.625531189692849
0.63486936206574
0.623974575377336
0.626070236212477
0.669095602987322
0.594559926107282
0.61283942140232
0.582329122114502
0.597958193538791
0.585413652238599
0.607185273571262
0.603646036874122
0.573481318225454
0.580935394389383
0.606903435440541
0.536115976875877
0.590983248365328
0.547096735609895
0.548005142106394
0.561652312858782
0.586576629013928
0.533670483861359
0.585532900757857
0.532901369143422
0.519840580406944
0.55153536849098
0.592428546902666
0.474141628737912
0.575313527191483
0.535766965024821
0.550806685974864
0.551916815363922
0.557479889930863
0.551581878501726
0.586859895807951
0.550664747150355
0.568931389047875
0.569008451543664
0.590793292470791
0.542700904567373
0.604903036797802
0.564835791189853
0.614613470874061
0.525410675962426
0.56496370865111
0.599718148789256
0.552191417208271
0.581216501995608
0.577488731070479
0.611105338050169
0.61577330369049
0.554689315281723
0.592923556253284
0.59806241404523
0.594637780621848
0.644448467898388
0.632759268874305
0.565161729374419
0.680285731688725
0.624763336090786
0.660529978153065
0.637874341733161
0.669925727584496
0.689060364105682
0.72469549664804
0.661703786604368
0.776524146173307
0.650857614595526
0.849543887217964
0.682052632789962
0.68104375295851
0.698313775520506
0.824070630243142
0.679089979380482
1.01232508181648
0.742964125392907
0.754166345357439
0.643479671279999
0.810105077227903
0.779119774160121
0.910277800438568
0.690434764691861
0.824970312346869
0.68459335091382
0.778987971099706
0.766949755832921
0.81433745910702
0.643904232616936
0.751362954930327
0.783029735402893
0.889407443774039
0.622661591521574
0.859557264909135
0.617291015400089
0.620329273521488
0.802449188140696
0.619670262262261
0.715088023545539
0.770793736382907
0.765508406501306
0.737702213973991
0.715949119929012
0.742152055825554
0.565483470601099
0.701651893715161
0.558128982148523
0.775414095582459
1.27215264793531
1.09566690826694
0.693543731878996
0.661912700771716
0.870141451678709
0.890166747839559
1.0605058477858
0.727575669921106
0.426522608533701
1.36533897419552
0.657314342276449
0.718510522489903
0.538305244407947
0.666665892296809
1.07625010673817
1.00803547460718
0.725261589075134
1.84583675701582
1.00098159242973
0.67308425039627
0.799402818398486
1.00252826929218
0.532871010933642
0.711528618375306
1.09002403738247
1.64217345276829
0.465172387661916
0.701066892001102
