3596
4000.36533379555
650.420452594757
1
2
2
0.0780194520094256
0.0731320108348311
0.0685799839143064
0.0716203413021866
0.0760625078028441
0.0715613443670638
0.0691217554933678
0.0757362444290984
0.0676423441559962
0.0734108639558594
0.069529298984909
0.0716151764165591
0.0651214012999057
0.0698012551860285
0.0740905539498711
0.0731289186504713
0.0700475256392706
0.0628714189592573
0.061124492848975
0.0668995530564862
0.0599605731607147
0.0719354187279393
0.0647737754471113
0.0721389575751466
0.0657307057800629
0.0733043448201141
0.0628239369470177
0.0703530546406719
0.0720764308148323
0.0709042829092805
0.0726122658203531
0.0801530281251467
0.0688814438947223
0.0727578500306977
0.0668323639260616
0.0684472240997214
0.0674819762005387
0.0709306351824337
0.0658558991814661
0.0749202639705414
0.0696416571565009
0.0710576281790314
0.0725453107332148
0.0748870393736715
0.0666479519412979
0.0678863911485864
0.0648128273770735
0.0660933937404991
0.0609941944587286
0.0705020958404204
0.0687651899625488
0.0657647031890375
0.0669989809947654
0.0850834537251922
0.0678270452149996
0.0780325575696756
0.0619837233989669
0.0737625218549299
0.0690572226666894
0.0663249334720786
0.0727236204028973
0.083784117311432
0.0625377689363905
0.0736536829050347
0.0679337413061769
0.073930141105153
0.0639568907767322
0.0726654537957922
0.0619859369453048
0.0681448846309984
0.0630422024103843
0.0681028792117851
0.0733316958658968
0.0657090047294961
0.0651396580009874
0.0724621616910132
0.0534038260271852
0.0686998787488647
0.0633281366578416
0.0797994313506595
0.0717783371811905
0.0687476007535145
0.0648118329045976
0.0582615982744895
0.0502322605110556
0.0737299770963728
0.0575990320634667
0.0674238530654228
0.078631305889309
0.0739195959523999
0.0614964812831759
0.0655153907422289
0.0665972256589763
0.061934469492608
0.061531235947821
0.06600288156714
0.0635615853099205
0.0674374529255959
0.0608701189112601
0.0593658516208863
0.0788206056920473
0.0548229806416927
0.0923823181049161
0.0476360640008412
0.0855322695018656
0.0860095574922055
0.0407563150099903
0.098621373451257
0.0673929483686911
0.0738421072707689
0.0541960129973649
0.0739464355264058
0.0520930591331273
0.0722925675375747
0.0418220709475643
0.0666908795574519
0.092267538148411
0.0702816266946446
0.0573042813273596
0.0568933440968486
0.0493471669662039
0.0615514860009428
0.09797133650147
0.0625982581889899
0.0682883116520758
0.0583550888441765
0.0428548011054393
0.0770738692737925
0.0959872380095734
0.0627457427364708
0.0701575369025283
0.0585103313519453
0.0559549000658866
0.0451217670352995
0.0899451018955421
0.0723851798148038
0.0638910728925517
0.0461963888976012
0.0468527594498408
0.10187514038839
0.0712608533439096
0.0586620735455121
0.0425942000400516
0.0550239868570194
0.0811278729240487
0.0711331569908605
0.0545076838129655
0.069413780833411
0.075010126709323
0.0553923683942028
0.0521075307880582
0.0516063788793715
0.0670859200565918
0.0686544180162068
0.00884612069456972
0.0505101142908725
0.132913678568638
0.0440905539498564
0.114232203446174
0.0527098176681961
0.0657028151147265
0.052380495246483
0.0547780863080674
0.0583579047342846
0.0602871538908517
0.0589693254323931
0.0570750314015488
0.0872586412723477
0.0574597888972812
0.0629964195668308
0.078434701878525
0.0618531029757975
0.0362637929260484
0.109916974976251
0.0796972603086072
0.0439249341548007
0.0837712060853597
0.0718297849517475
0.0478329667461641
0.0505186467114527
0.0837524700246858
0.0598946553353463
0.0663512137352196
0.055672864869695
0.0567141310510384
0.0692397670225208
0.068075622955736
0.0591983029096073
0.060999122132857
0.0381978928322177
0.0616163200716211
0.0822225382007131
0.09030193687881
0.0555434282748726
0.0651797690531576
0.0255466485350491
0.0758056388651547
0.0927260457452303
0.0516570682770672
0.0644076432758454
0.055119653384978
0.0569880273343738
0.056048948123529
0.0601070371561361
0.0583221981080749
0.0299945344096748
0.0913213960618907
0.0762419152253216
0.0543900207617264
0.0558902579473506
0.0542178948435715
0.0492129986758793
0.0898489640518499
0.0913953386166887
0.0590216909495154
0.06220605461282
0.0524005427430439
0.0746726076875566
0.0697598907077124
0.0650907129493137
0.06157483077127
0.0616220841250246
0.0522106562497115
0.0579049820225105
0.0508182348010899
0.062565989810217
0.0562837831410504
0.0601527164969434
0.047821754141453
0.0628449575811914
0.0682077072405916
0.0645648794895027
0.059729789770762
0.0615611980836275
0.0519756510241824
0.062592170812925
0.0768838369595127
0.0606075256942453
0.058970933661543
0.0544817167191832
0.0594386443980203
0.0606989737840743
0.0651880525156669
0.0638146708709403
0.0567344756130127
0.0455151319708205
0.0947018549972113
0.0681094256352398
0.0586385645732102
0.0515454388284598
0.0654983114076206
0.0857965845153889
0.0542985662607361
0.0733670380271681
0.0560775027534103
0.0598420146051039
0.0478911416143963
0.0839576615484752
0.0688633324729966
0.0627884727192768
0.0655279069846726
0.0811026056449545
0.0511535262632736
0.0600670931713428
0.025241227421716
0.121720332439863
0.0748874245053062
0.0409498327721526
0.116279147530428
0.0852824594963864
0.0611351308541565
0.0734134853946393
0.00178737001960899
0.132998513098543
0.115565911094782
0.0661811251807666
0.0524463905564249
0.0774349826574919
0.0615035993273242
0.0634899825284611
0.0653697525147127
0.0564726439298905
0.0824932594573961
0.0726131463711862
0.101951311286159
0.0522184782815147
0.0692889016105781
0.0933574506809872
0.0575630068678299
0.077956034098499
0.0658711826679086
0.0643587115634072
0.0655883730254269
0.0802268998508327
0.0710441349924078
0.079804630582452
0.0521683414751775
0.0922007705591065
0.0752239405275233
0.0694700986058653
0.0561610997108468
0.0801760754463803
0.0619454899458086
0.0743706721871992
0.0635829575402464
0.0716056893933905
0.067001908801284
0.0681769969392132
0.103804233669416
0.0841156906826284
0.0583157248368806
0.0972581686303899
0.0687311750561671
0.0717180307107167
0.0618410152644181
0.0819079102354322
0.068327722053683
0.0724012903509288
0.0610933356447508
0.0936885456130118
0.0783665249794839
0.0769936759481903
0.0715338815794356
0.073287745272879
0.0717122701557264
0.0769120042515034
0.0718353823102418
0.0722172393042837
0.073863212959481
0.0684747970643968
0.0756879530241907
0.106465353972055
0.0525439023154215
0.0920271608417188
0.113867807052446
0.076690906926691
0.0835817163300909
0.0839642827722357
0.0896021973911229
0.0777032200203384
0.0841002678872361
0.0852769100888696
0.0880329367555031
0.0964816532615505
0.0930351713995071
0.0885751330256462
0.0801710518941498
0.121074001068896
0.128055517125782
0.108830974755744
0.0962648948412065
0.0791727308679012
0.103025946907472
0.133526032371956
0.0921862095125832
0.135240363955055
0.0888893784649637
0.110174282042112
0.0943881266204717
0.109491638142181
0.103562483994918
0.111228831813693
0.099552880329797
0.108798987122978
0.113081306290487
0.115082034586274
0.110660272263586
0.11365468421323
0.146661503837412
0.130864758688841
0.110371113475742
0.128562626975559
0.109062050846788
0.135771456125012
0.143155010647412
0.154297625947876
0.162556375450803
0.134456421266072
0.169293896930024
0.141724977033208
0.143651016043408
0.13413015225201
0.141591781117149
0.149721587439927
0.147347486093075
0.151537445144656
0.151420359389989
0.160340183578986
0.159392062498548
0.152125941533772
0.160214372921318
0.165310584349193
0.176877336686604
0.171576074550369
0.166610749005083
0.165694576743148
0.167045681164523
0.223012090322509
0.210548474444893
0.197111865653135
0.18053354951043
0.201657917194136
0.173219071892886
0.20097252770638
0.18535408994433
0.211649198374499
0.195343369584238
0.236842033300061
0.231473059396129
0.224272419004761
0.225925646714638
0.20277818322806
0.223182916955511
0.224792151726843
0.222988049476091
0.253963638511428
0.23296194395087
0.232489950284005
0.238466991839033
0.263116445119211
0.233275250950882
0.270683487956734
0.25168426975557
0.249817592438708
0.248884991065353
0.263715176419031
0.250762567600484
0.266572762175911
0.269031871164082
0.27466729173022
0.27800188150092
0.293590144811206
0.277873893789734
0.298914454576005
0.289467273255715
0.284392659135499
0.298794961276876
0.309363051787187
0.298247981799293
0.30323550265004
0.314522683877876
0.328766475515452
0.305678984760749
0.347131387871927
0.326039688619531
0.33482607331704
0.322467945468117
0.323990044928366
0.318496393879595
0.349767693945977
0.352648389557301
0.355376601235085
0.343171292385016
0.359693563581974
0.360258218996425
0.371354310585423
0.358464099214867
0.371879492297332
0.38034636835532
0.393761253583426
0.380984688320787
0.400043223204085
0.410512825362595
0.45050843212344
0.409401081049363
0.455909021527818
0.425803940260582
0.414778893563375
0.415387033890768
0.431159251012337
0.425043381457185
0.455372065781182
0.43988115949801
0.444690400022609
0.448832326140361
0.453148666899736
0.460147794631911
0.482349556007382
0.459771521697512
0.472995120750481
0.486164485202989
0.485998930374644
0.479867902390492
0.491008467371193
0.482232677858233
0.527548041669281
0.502942757187662
0.525212152031787
0.534549617546582
0.536862412005315
0.527898715659125
0.548328812357849
0.557263823173825
0.555048147594644
0.531515456455807
0.545675657370992
0.540326503063525
0.584936770534945
0.5513424874445
0.563921039620429
0.572378660982298
0.560523263433417
0.581126983340906
0.606765251284984
0.595597178580066
0.614075672817236
0.599223960982831
0.62379234296423
0.615566834121072
0.622463295345093
0.621374639728733
0.670816126194624
0.664741780318228
0.667398383186235
0.632133220858625
0.671966669207136
0.657043775294747
0.667054645342364
0.652323228544473
0.677387247035183
0.6685730307458
0.683557226581764
0.705052760256881
0.722065890571015
0.704414947800725
0.723168695166617
0.74161808508585
0.721766315138279
0.682793470939102
0.765698178569233
0.729568393300244
0.716355063753148
0.721021432055426
0.782723582654698
0.76429496542219
0.736183572698338
0.765428978449698
0.785177818376941
0.755144692732382
0.806537214333712
0.815414420204606
0.807978166878584
0.777427368077112
0.84589840444099
0.835497139158313
0.821255406293045
0.849649393409654
0.841160278060791
0.841863011613017
0.866447279614512
0.803222738796201
0.823896794696263
0.814755049218199
0.858837338072237
0.859172094402961
0.880598596451147
0.816404465538828
0.871048754135735
0.855061484687906
0.87252700679942
0.917377030759351
0.928501044138106
0.886199436369718
0.944834468633479
0.915930667060677
0.942291052577486
0.914340611528951
0.892316708479658
0.888124369733499
0.940710502760172
0.91124701921813
0.959762032665366
0.977179910451543
1.00761923153556
0.998882151253742
0.996272955069057
0.998614262157842
1.00322259462808
0.964577373995707
1.00583019088812
0.985738190210912
1.0508424020255
1.03439243375727
1.03854329913457
1.0325625197363
1.10780310873115
1.03374899326093
1.07871376528023
1.08000279312964
1.05515058697506
1.0358649336182
1.05123691943579
1.09128348549049
1.09344243577778
0.973072405095927
1.10298527661226
1.13074676637374
1.121067302975
1.21354420143954
1.17150442765981
1.06569572536014
1.12696598767285
1.04529250432325
1.12256189746733
1.10822055793036
1.15713786359495
1.15004346432834
1.24052315011928
1.19742772110725
1.14952996934073
1.10522805819608
1.19779326431754
1.15607258322822
1.21098049079629
1.14381964422852
1.24445973472231
1.2606580786642
1.29051533847797
1.26914235401992
1.17557048237356
1.17228978419939
1.32050260464702
1.31038011477013
1.25730163045501
1.23661400603979
1.23098235438018
1.26264733456358
1.34448702600108
1.19630078606393
1.18257385532414
1.16890265252968
1.31128538963118
1.25216037977891
1.27787336008661
1.24787083892765
1.35684539996106
1.36888799281946
1.33826105968577
1.33103545376376
1.31404760277615
1.26853150175534
1.24597929138162
1.27575917554694
1.43337698328834
1.21225690596447
1.23422467830868
1.29230095457703
1.48755633811595
1.31549530555925
1.33688206581409
1.33764404256918
1.40011774751952
1.39799727978803
1.43746547228932
1.32977431190391
1.42009744664916
1.35797497739378
1.34848387370054
1.39487409142493
1.39594015574494
1.32506452662993
1.51456399526623
1.35668514457489
1.38822258641597
1.3635577189975
1.41316883955838
1.45450749740412
1.31098614636872
1.38067998418436
1.5590304612727
1.39278324723922
1.43758145193612
1.37106300448152
1.40923486618082
1.33631105544459
1.3969062434755
1.38529548073009
1.50790627743963
1.3835225263155
1.48910625566424
1.52505323677547
1.55350858537949
1.53353075570623
1.51833456185323
1.48962640915395
1.38537962959084
1.3734440633665
1.53521412798411
1.46711616445948
1.45177379285896
1.35882843676947
1.66520789397511
1.5612913469868
1.40853335240501
1.44849899057186
1.57085076016114
1.44004743264886
1.49602069305391
1.71305734288555
1.42748979420087
1.38677062059511
1.50358439097698
1.45840719747264
1.50383989831068
1.43182049670393
1.79690245022701
1.62166982923286
1.51609870535723
1.40982907643751
1.43406872706322
1.44807115858005
1.58053767580739
1.52622046960284
1.55802128594206
1.44314746161763
1.4913641944382
1.41722358247784
1.53295119781017
1.5051052384296
1.60948737311309
1.46463011588203
1.40159619638254
1.51347847631535
1.49809985600815
1.40091232620556
1.67718759544144
1.55551160050301
1.5402060215486
1.54180670133934
1.6727591691751
1.53569619259657
1.59144908770255
1.60282360384898
1.61972642641635
1.57917938945763
1.68355918577708
1.51886728863494
1.63998844539419
1.47695670739165
1.58475761700571
1.52738291528487
1.47566719697004
1.519980478807
1.5772675957423
1.37407708167112
1.52117970389037
1.4889005603281
1.67466824357238
1.66190131938498
1.57288195561227
1.52538245956601
1.76968330795171
1.53445637350367
1.47150027648618
1.42382757339312
1.57721516589903
1.58941876630396
1.58264819343714
1.45238673528285
1.67126352523939
1.48258177265557
1.55877123896738
1.56065278270541
1.64061616778883
1.66651045260739
1.52698656257621
1.49530584866532
1.58566028133994
1.47246744679101
1.88392559631449
1.42757536003662
1.46532190516489
1.57024059485695
1.54767952333456
1.63357299444809
1.81836252132192
1.57369574774013
1.50264705612137
1.56895959906077
1.59485400069676
1.46973858130997
1.5326706354179
1.49187161995357
1.58721614462277
1.59336613800604
1.51308668484157
1.45838751555974
1.46722837412778
1.4208542883516
1.45650746315665
1.60159746355687
1.54833605686354
1.406963560687
1.47674624039151
1.46048316062061
1.53312607919486
1.49726213772774
1.52656635648656
1.46537317108529
1.65783655345212
1.47453252585772
1.44053915921265
1.44776057713857
1.58783088528837
1.45223750613196
1.7281014745823
1.44482910001279
1.54441522700245
1.45431333357288
1.39927638105794
1.38066926971001
1.40898078967668
1.35258828886845
1.59797242452926
1.44318431582512
1.53927631250922
1.48228096914049
1.40108411461435
1.39967071714946
1.42709963570142
1.41336326644003
1.43384804866897
1.3755056748794
1.51415650920791
1.44823731143659
1.45493258481027
1.36821476884383
1.40144866629217
1.33737121888951
1.56859409809377
1.51246358088841
1.51688439172953
1.3996473594127
1.44972519823736
1.4260922027011
1.41101439612143
1.33343107490493
1.36509797648783
1.36909939262487
1.43996525621141
1.33868091130869
1.39560475919027
1.40079263569729
1.4006654826687
1.28173204309567
1.37061805637503
1.26295561306765
1.38800486874339
1.41663841198769
1.36305289793361
1.26167577748286
1.3592518138188
1.31724875593933
1.35614392979003
1.3042858198173
1.31121012675387
1.38808318350467
1.42632221771769
1.30845306727519
1.28186662800764
1.32213787690504
1.29483117316296
1.33916094412735
1.31554817850461
1.24104826731301
1.3442881218277
1.27564308802269
1.25187187363309
1.23076248242953
1.25592084560429
1.27625988404411
1.33401971398617
1.24524954251281
1.23308208251946
1.24293374564366
1.21436835784341
1.17961805372551
1.24490389495947
1.21898098154816
1.29175552871236
1.20259603535786
1.22277021497114
1.15380278604194
1.16897914457162
1.221747261296
1.17654062370232
1.1964332423896
1.18458982451816
1.13367726018494
1.20130704673797
1.1770836375045
1.13733856931522
1.12924424791401
1.13951979441304
1.13533221033752
1.1453831333927
1.15301741613346
1.16297935611684
1.11480078637391
1.1193450073183
1.09303291109337
1.12006788665254
1.09275719797607
1.13545381003297
1.08400690534228
1.09664930822721
1.08956062104333
1.13217959558339
1.0397947418585
1.07419783085633
1.0401862030029
1.10375718187595
1.06105051061471
1.09504704452423
1.01317151508871
1.01998673229623
1.05574505890689
1.03173958735783
0.998290796843106
1.0355757046142
0.995053199762011
1.02722377852784
0.972837225074563
1.00351847661143
1.02619602551934
1.01931740933167
0.968933608028193
0.9888395888373
0.944514583012561
0.976028966042212
0.977395720645154
0.965693848296952
0.937775293966562
0.954300580817868
0.911613413868058
0.944528974587024
0.942944312160906
0.964137174471716
0.927905776351143
0.946051591656569
0.905743900195568
0.925685314462292
0.890560831906247
0.904287612234287
0.882617209104386
0.931513750479703
0.904935015218545
0.899562349134278
0.877272990453018
0.887665492969522
0.868794400456574
0.898936462388735
0.851401086949819
0.887721404164265
0.832728398926303
0.840210302672491
0.824583886440548
0.821979116842945
0.833689676315879
0.856852642627927
0.826967841269842
0.82928999094842
0.810490891227722
0.82567939694575
0.800621156823662
0.823838077103084
0.806261678783797
0.795033041531555
0.807925302561106
0.807390091962954
0.791725764124488
0.806883634625337
0.780423965431199
0.79409642236697
0.766659900955094
0.765200520608889
0.764153446987644
0.775365089472669
0.751574310075444
0.799037410656465
0.739895908521818
0.750723172749393
0.71711752244513
0.7389479623521
0.72976645375597
0.753661903732939
0.724877304168002
0.721904814772272
0.710991375512674
0.756153722267381
0.709465744318695
0.741560999417676
0.701022494271625
0.713762295724366
0.704905186770182
0.71392066831358
0.698369102755787
0.711869406868157
0.678170067268674
0.685939459620971
0.6735291003177
0.701006481979626
0.678125226107416
0.675648300377829
0.674772252987913
0.681659766405167
0.661756551530509
0.669446655392391
0.654656472129596
0.660432334754908
0.643925094975757
0.666600226561034
0.64222597340621
0.648722608043482
0.623642965975931
0.650089049987628
0.632764300359119
0.645156176371556
0.612582368185959
0.629163980251663
0.620670323325539
0.631037425709076
0.610135257370377
0.619209385741204
0.598995957082912
0.611217657803033
0.599862961782
0.609886717568677
0.589685357859141
0.608977948920018
0.581874483299445
0.598028992887287
0.576807674762646
0.586631034137861
0.577917962297307
0.574082129844317
0.563686335172667
0.578503298177109
0.56075024921585
0.567713647533495
0.556919376140092
0.56728478309633
0.550742405148831
0.563135257950003
0.546095603228722
0.558593384381938
0.538013151491832
0.554853730012186
0.541003789654165
0.54908167839955
0.523922710371557
0.544518487122808
0.527214521695423
0.53772798302351
0.528437004951499
0.531976852389273
0.519786727280155
0.526976671415966
0.511743370291446
0.520456608720449
0.515878771432183
0.522318683036919
0.510199005357871
0.520680259416593
0.495893226892192
0.511869571098642
0.500341134138362
0.50752614239334
0.49581239516091
0.504933037080979
0.497080751612598
0.501643893126742
0.489818146978951
0.499243248722801
0.489495279099978
0.494974108701586
0.481875611741283
0.492118764895979
0.494471325500334
0.494629958342342
0.483366617737755
0.507442602233883
0.487562606787046
0.504521977885593
0.488978478254809
0.507081819899032
0.485600717528287
0.505526192172132
0.487777706998905
0.502107257066444
0.489259795868861
0.50406129866994
0.495634055514455
0.505019226142251
0.484045412035095
0.502570033009543
0.493079627217166
0.506175820377113
0.495040968696598
0.514771119286028
0.516255910797442
0.514031117677377
0.503241730052538
0.524763996926791
0.513131410088372
0.528442587023453
0.510556276431828
0.536806797387465
0.520532933100469
0.531598028515983
0.533140501053299
0.535190093892427
0.515882935414449
0.541955778504403
0.538119028351576
0.55445846338844
0.548029314226119
0.554075317941156
0.54821937540453
0.561515657852539
0.55124927335454
0.570495945395212
0.549106962803558
0.571502740105871
0.563098718505029
0.564792901422882
0.573720549632953
0.577476105610494
0.572733206014354
0.587309642479676
0.586193837400396
0.593752544703423
0.581749670686118
0.598519602474245
0.607180270884488
0.613090625541782
0.596528636637154
0.62639231078857
0.616909245674972
0.624187200346889
0.620199756245055
0.632457367711397
0.623416718644006
0.643261973033471
0.636369297380481
0.643108686193503
0.639972139843519
0.661039490360349
0.627777747430795
0.655324336386705
0.6428271312667
0.677158334499724
0.644549470431575
0.648308554047042
0.648431704178685
0.671692975065856
0.636268426726901
0.655044634412249
0.633377612803617
0.649809097510784
0.640161061234233
0.645988136327081
0.629752867171141
0.655979605752824
0.636763649754691
0.657551257178656
0.631725699309946
0.648092659560479
0.62405335229811
0.653479027508017
0.629528357081347
0.65554632179639
0.621418589712407
0.644979725952483
0.630546714445378
0.646867051925346
0.628812368768892
0.657982876440915
0.633958574418953
0.652198185082296
0.63441815344878
0.659707312588918
0.640414752185341
0.654522795836085
0.633690620616845
0.649892204266712
0.636141754583071
0.661069622269906
0.630464098287822
0.65546356406497
0.634663714119576
0.651477653585809
0.629798298431763
0.664630364289912
0.633296619343828
0.653582435103256
0.626114631225113
0.653332560122177
0.642312887512231
0.651742566367237
0.642424246466104
0.637852809068447
0.626299307633127
0.648616625898885
0.61830455356216
0.644437831008176
0.625084281147249
0.642909948565289
0.623627607686594
0.631043044699999
0.615839467461755
0.621203058342007
0.613179034161459
0.619559979279121
0.59986023076573
0.622903891950723
0.604310047284706
0.6028913280568
0.592515075733417
0.593906420439018
0.583713942491177
0.587392692566758
0.57761126565684
0.584232157548723
0.563867849009957
0.573416348520035
0.554972104885877
0.574073039078256
0.547889866067644
0.559907874352328
0.545641023748904
0.557311314217043
0.531468623774936
0.552589414989782
0.529100399430243
0.533887017863717
0.518358021860042
0.532913417232121
0.522211780358663
0.512686937944147
0.509684082230307
0.506661076432119
0.492197905791765
0.502508358232771
0.491072013839369
0.503532867311641
0.489825630333395
0.501289349801754
0.489925448146797
0.490162773300396
0.478820137731965
0.486610293701138
0.471255328114218
0.486372194114197
0.472668246392842
0.474697832180135
0.459058771729216
0.473552538545064
0.449785126671125
0.452771309805897
0.461960751375312
0.465457959437463
0.453171699167382
0.453379585124764
0.448657274190768
0.445691293195264
0.435007865486532
0.448448055090032
0.433932639896436
0.44065267457869
0.43485615710334
0.445068940163973
0.43063760563916
0.438830425700632
0.427029322693633
0.430065364694466
0.427451305715006
0.434975167148784
0.423265349293107
0.42430299876806
0.416167175286813
0.428448062358143
0.411466752038988
0.422809904603524
0.413521713374001
0.420398175470679
0.402125274476747
0.424948535662792
0.39491696788626
0.412255761775142
0.402193919430943
0.41602755126387
0.395924726433614
0.409402894881073
0.395931668845972
0.408648342249482
0.38877395402738
0.393897787009874
0.398265163448773
0.400694824327915
0.381452055429635
0.401231221166881
0.388990022519954
0.394133120244462
0.386062336042409
0.388246409873495
0.381826058630289
0.395824330855819
0.379285943985055
0.393285248219676
0.379673365173725
0.391859006320822
0.376196874096767
0.387269031396
0.374774891216215
0.386098356953158
0.37017445702693
0.375625827270256
0.367031907004731
0.379626776104277
0.367930070845648
0.384635588463956
0.365364474536218
0.37579041174709
0.366919051693369
0.374551990425844
0.365454547295844
0.367315006994092
0.365071337410306
0.371848453598593
0.35782428144095
0.370693179521887
0.364032173633181
0.367051369169682
0.355591286465812
0.36063539699409
0.348665064332248
0.364454272636487
0.349557982777589
0.361766934637703
0.350171163358943
0.359749565478277
0.348731912729737
0.35820392441901
0.349495396748461
0.354861111593346
0.342789353850086
0.358396140130253
0.34508772066115
0.357498302813349
0.344384985092352
0.350343143468263
0.343287004574928
0.359397633721898
0.351227629740822
0.349638982308359
0.341810725402066
0.352457264520381
0.34234997514267
0.350568411171578
0.339317595891992
0.34588803867258
0.341171311926725
0.346430757428717
0.340754093995263
0.349527784317134
0.338021047394638
0.348489475425542
0.338902330863139
0.34114708346719
0.33206557975822
0.347549101852643
0.333654288485166
0.338662167245196
0.333491999427075
0.342101259215194
0.334104791804202
0.338437670563284
0.335907205688759
0.339870604989451
0.330622720146348
0.342569075237022
0.329909269361009
0.336104686588235
0.322962882398736
0.331549595360462
0.324136929089346
0.338141774851946
0.329500826829415
0.336942778751273
0.319702718291443
0.332558880159031
0.319139111244959
0.327219015391057
0.317296625415567
0.326839722402617
0.317306485374974
0.326718646108994
0.314514095743507
0.320490630553787
0.31495019239708
0.320122540499976
0.316155858898714
0.325475354837486
0.314948918212348
0.324674560940824
0.311130719678633
0.314942043510227
0.313067711630933
0.31286366634632
0.311067565948917
0.316296902105352
0.308374712504526
0.316409825723186
0.303687018082582
0.310924694067847
0.306731214520184
0.310147093187695
0.299667805607022
0.309314208876775
0.295302322215281
0.306963672560421
0.295714731215361
0.306432139127313
0.299678227602862
0.308749346987956
0.296915458834175
0.310603627054363
0.293064322496683
0.297758710084933
0.288493159654989
0.299956352054349
0.287684770190662
0.298142355496724
0.284279280034968
0.293821856845033
0.288219979436303
0.291215990507996
0.2847768051149
0.290904369930674
0.283056536645211
0.287135320509619
0.285014853602611
0.290592145704135
0.279167936900058
0.287347230447218
0.275008621528812
0.282408031686124
0.275658237573153
0.282308029556997
0.270425713881595
0.28128788184517
0.267440569512481
0.274615270665983
0.26683818321531
0.278428696225227
0.265792601592061
0.270605459165269
0.260401356919835
0.271500127963608
0.262984513875796
0.265644284159672
0.26297009315755
0.268214394975175
0.256338632084454
0.261949535741002
0.258792842274196
0.262203733963393
0.254199671293278
0.268087550028792
0.256431495041511
0.258570829186919
0.251940423490595
0.254878855042765
0.251666748461488
0.258301619926173
0.246156277193936
0.251374690173285
0.246490395915346
0.243046035579825
0.246058728627191
0.253529505762722
0.245148290303618
0.253751481770617
0.238817914700206
0.246539774373402
0.237195808990805
0.24232208484718
0.235940295507917
0.242479199250283
0.236318030788846
0.243519495780668
0.234245105298004
0.243522932079392
0.229513947418536
0.241139698179064
0.231003921577298
0.23907795109378
0.228849566875526
0.238637830020201
0.227409192593067
0.234122176565526
0.22911071347772
0.234070228493307
0.222541198440666
0.231915110174802
0.223690114363748
0.231324613131083
0.225753591431282
0.232195687663855
0.221350146347662
0.227276979325177
0.219046632576624
0.228228604086192
0.219083292748968
0.22657808080285
0.216935214431088
0.224292238727752
0.219333281552251
0.225218677672389
0.21646742033322
0.224676722176506
0.210064423753039
0.222337983392568
0.212236068898198
0.225428705700638
0.212856498564841
0.21589170271014
0.212647831602217
0.218466495435363
0.212049558215932
0.213662936451122
0.211437339672028
0.218835718900727
0.212894715620929
0.217243977002275
0.210387986726525
0.218589765857139
0.207730671639015
0.214095939824101
0.208757810912484
0.210659879082513
0.20633793343209
0.21059952319967
0.208148672012315
0.213028514356108
0.206237483138011
0.214168535968062
0.202948909226633
0.20735655214684
0.201483101772921
0.207052165939593
0.202020460323707
0.210275157750104
0.201994689032702
0.211927170904471
0.199902189151512
0.208156242103232
0.197216714401433
0.203561200539065
0.199168362801054
0.20493368056364
0.197542696763135
0.203027274722296
0.194422074595023
0.204509231815007
0.199596947365047
0.204305536788019
0.192265778620047
0.199923963287661
0.193357352780785
0.200991544423059
0.19174474495413
0.196754767023824
0.191270611107083
0.200276926508259
0.192730874665486
0.193599850815941
0.192139797277912
0.198636781060344
0.190115271279603
0.193886591722861
0.189188064744522
0.198151154004686
0.184265856984028
0.194823431139726
0.187286080597665
0.191452549754715
0.187104888239365
0.192942521650822
0.183782007960324
0.191617923702303
0.1845007956139
0.189196373903322
0.186026791219728
0.187903818710669
0.182145317829241
0.188314693225274
0.184332488908159
0.188163961436589
0.181778196473586
0.190236307169252
0.177694968899836
0.190158236364732
0.178000045507208
0.183838970245871
0.18275424090642
0.187954181127254
0.175982625329076
0.183777117157432
0.17498477127477
0.183179402507103
0.172867346925989
0.183695418615222
0.178349346073248
0.180894669724939
0.174419800310005
0.179967842506451
0.177900373555028
0.178968392833913
0.171192701125254
0.178979294526026
0.172380681610719
0.177939868831131
0.170538832603957
0.178853246909075
0.170040227786206
0.175713816277596
0.165910022644268
0.175783481798323
0.164605977575484
0.169893580558127
0.166692133467556
0.174030661168505
0.167003774204204
0.168252361484115
0.163445028127615
0.170086427918383
0.162398807156005
0.166081683831987
0.162268497827964
0.166691557258538
0.16082605951366
0.162615349224692
0.15880951560536
0.163189257916632
0.158963991496871
0.160909207322371
0.155512926448712
0.158142759566058
0.152938439096363
0.162913672593729
0.155507377799821
0.157801790220751
0.149665465002174
0.157845403990342
0.150343713008762
0.155730694049455
0.149213514413729
0.15392973636157
0.149785544822491
0.159447371806187
0.147175124082423
0.150537863296162
0.147780334157899
0.154767108368695
0.14424714189559
0.151927616976539
0.143073124626424
0.149905788503563
0.143838291995557
0.149009202299031
0.141121729298437
0.15038814200345
0.143193813314633
0.150460593512517
0.143284608295648
0.147306220382025
0.139777796218536
0.147264145036772
0.13793109323157
0.145077241440724
0.13762093665554
0.144758154822269
0.13769385078101
0.14159936755689
0.134162908876075
0.141645773685814
0.132074039369975
0.138642027737626
0.131457372709971
0.135472738035768
0.132038098161684
0.136901263620789
0.131107276417657
0.14054751291669
0.128647291027691
0.136702836602787
0.127609016024775
0.137012405404553
0.130056854119115
0.133359126890475
0.124945826639749
0.135611290768226
0.123968087234271
0.131649427731276
0.122984635794977
0.130206880184378
0.123284898141794
0.127328718468028
0.121533019194385
0.130903149554436
0.119038262336875
0.127268141643611
0.124507771065165
0.127471074394243
0.12493295965577
0.127847948294598
0.121340041413789
0.127350704321824
0.11858196212197
0.12340459885832
0.121068739510452
0.126604728167168
0.11623817754583
0.122978846149622
0.120407218393057
0.127980427635267
0.11614494752316
0.122395402171227
0.120859673610894
0.125838508205377
0.118368356560279
0.124354647045637
0.11643092186953
0.120638035680735
0.117019769062894
0.122493176731016
0.114554021354244
0.125471892495243
0.113056903567268
0.123253491408609
0.111605243880359
0.121389631357114
0.114743880254416
0.12645325716199
0.112761096639966
0.126152327065305
0.113674671490976
0.126414048687635
0.107408668379269
0.114714575968194
0.104540682729212
0.126245542963715
0.113262855596668
0.118948388727158
0.0993937058432044
0.12706211078714
0.102623545509061
0.116821969437731
0.106837864368198
0.12321778442373
0.109257105763703
0.117740259058547
0.0918129979980849
0.123620161142567
0.100016680198215
0.127466574899719
0.100602055185235
0.120174712458392
0.104687664916909
0.124957590189569
0.0962350428271891
0.120087603026659
0.0977707629952935
0.118823342036062
0.0975266846763812
0.122968144691054
0.0900277248487455
0.11650591770913
0.091815902474161
0.124883219188296
0.0981011748518201
0.130265758383736
0.0955159503949861
0.134701002390235
0.0968078730686576
0.128886925583319
0.0877781874548055
0.122705509535385
0.0933422384755084
0.127577534282897
0.101351598062775
0.127814258806433
0.093433993870797
0.114260047283214
0.101932522892753
0.122701890038622
0.101807537003592
0.102713086099898
0.108917165325201
0.111638094716748
0.113679680282055
0.0846005017733793
0.125604165621901
0.0927185270588592
0.123836555687558
0.0835896734371772
0.129703363940641
0.0824333490906344
0.124968399862672
0.0909706743618358
0.114277710336607
0.0969112472213524
0.11174809453216
0.103233295553011
0.103820996853765
0.105750400715812
0.100573322142675
0.106012887237072
0.102600610470192
0.105518484430367
0.101825262590885
0.101060915652845
0.10587703224449
0.0986029101664636
0.106704944320917
0.10265114006695
0.102865564210598
0.100109453469623
0.103098754708134
0.102737632094821
0.100817394969372
0.0997712382961895
0.0994355853083789
0.101436254608986
0.103197185150901
0.10073381297035
0.0996875338156881
0.101125550794903
0.0996953600119412
0.100563141297631
0.0995287221590532
0.101690372249753
0.101561165375189
0.102732732738187
0.0991778216732709
0.103185911524022
0.100505459764642
0.101608385168828
0.0961876788980108
0.101953527863821
0.0988997802697237
0.101986109852152
0.0963790833684393
0.102919232745146
0.0999171242635162
0.101060176263826
0.100752048754794
0.101743901725843
0.0999305950802818
0.099997319993588
0.100184863392805
0.0999231135497368
0.10008108405699
0.10021018436485
0.101943993603808
0.100869473410998
0.101931850218063
0.104076021620617
0.100996153228358
0.103847035849656
0.0983422100024562
0.100737898880134
0.10168903527199
0.100862902887884
0.0996828209264505
0.0997620302639472
0.101000189548813
0.102130657357249
0.101460638199001
0.100711040680075
0.10118654443504
0.103703431052252
0.101089479273393
0.101677416647438
0.0998539954276476
0.0988021725302604
0.0999802719743728
0.101885423903252
0.097008744378142
0.102314069084424
0.0989323886823301
0.10079644189159
0.099453409463904
0.102666265904684
0.100169537303681
0.102070577718275
0.100314438068936
0.102906755228404
0.100973615663641
0.102615622266214
0.101777915222142
0.104689100338573
0.101699392232104
0.106643007758096
0.104426122789425
0.103354109440077
0.102120811838507
0.10540115636863
0.100471402472267
0.10278063700682
0.101822631982825
0.105458696983014
0.102021882941166
0.106011550897977
0.101739643579895
0.103789481232161
0.100543669028426
0.106587764747276
0.103264667498054
0.105242088304329
0.102998066799694
0.107424905840918
0.10211604818289
0.105471898778851
0.102951772662137
0.106664156010128
0.101843962945666
0.105606774192563
0.105858465711148
0.112281145268048
0.101433494980749
0.106272552558503
0.104715299202572
0.106814971206921
0.103717732534858
0.109569242995058
0.104033918653291
0.108687985322248
0.105496568687649
0.10759663807391
0.105974834180255
0.10782885782827
0.104450153160406
0.106505625746155
0.10772602546502
0.107402189855788
0.104028992497746
0.109621533719542
0.106542769691028
0.10912584103827
0.106981878847084
0.106464531865607
0.105085180547301
0.110010148035999
0.108157217124536
0.108217369408795
0.103254351638538
0.111743399439541
0.107407225689586
0.108106860295304
0.106534971641023
0.10998212417627
0.106890992443104
0.114276123979975
0.109631750907352
0.113379527109463
0.107907386045691
0.112849823868906
0.110518501953006
0.112492495561785
0.109044767165354
0.116986040968119
0.108613911498549
0.114807154673066
0.110422753133812
0.114176486743536
0.111490375710439
0.113303259104157
0.108677557720781
0.111358408661286
0.111045144113903
0.114443648846719
0.110764026317518
0.112770765256655
0.108410785897096
0.113589403167574
0.109093179073384
0.11083641376615
0.110934587241239
0.113530011071597
0.110413811290858
0.112300646677371
0.112122313859479
0.111547699603199
0.108408852995103
0.110816495249436
0.110998209737041
0.111444586920657
0.103668141401768
0.110894455317132
0.109185550129922
0.108903120050764
0.105132401848677
0.108023262386624
0.101825197706121
0.107611234465346
0.104378176732895
0.109961653509582
0.10591911639279
0.111477530188412
0.105438738527286
0.106694537299714
0.104821409132779
0.111087738289102
0.106296315322111
0.107814755631648
0.103558207878472
0.109335223548497
0.104125340019566
0.107738091696563
0.105436194895925
0.108182606706587
0.102892111901338
0.10753563209553
0.104932295868821
0.108264150062047
0.103877609585993
0.107688511936741
0.104257592599893
0.106810360121919
0.103576593869965
0.109102507063597
0.103758013655482
0.106361354839589
0.100193115223761
0.104986687069307
0.10127136773437
0.104095493860424
0.103556862612214
0.105796202605435
0.102168253499174
0.106090385563288
0.104097882977439
0.104956130176296
0.101035716193848
0.105640833807993
0.102274294182064
0.10579064643177
0.102877674605084
0.105174667499879
0.10266268257151
0.104215785936256
0.100592427294975
0.104069040705702
0.0999041231033438
0.102011853079276
0.0989509443093498
0.106703345472522
0.101687157848219
0.104829294567393
0.10174609428454
0.10334572767725
0.100607947547313
0.103730961085931
0.100857754856476
0.104901870535366
0.101053485747992
0.104878904939262
0.0986774624732711
0.103253647120207
0.100106735967857
0.103293904769423
0.099918359677043
0.102107706156983
0.103219438991476
0.10376575103784
0.0994419717301959
0.103952401849911
0.0988017629197004
0.10243913221616
0.100435891542198
0.102151998121643
0.0989144241448524
0.102497562957087
0.0986052736959024
0.101656943795298
0.10056810075192
0.100471629084424
0.0969320129062394
0.101558194167673
0.0964860430054451
0.10146525841312
0.0967042748106247
0.101247054073453
0.0971003761829448
0.100821194036522
0.0986667738811574
0.102130050431048
0.0992264221015359
0.100278405688839
0.0981239906086576
0.0992276164601276
0.0975347180035299
0.0995171220796085
0.0938759943280177
0.0986006623162097
0.0941642188704275
0.0991474664098802
0.0955002574280156
0.0967213050805061
0.0942358376341412
0.0974170453452021
0.0955821572946868
0.0955592901058725
0.0926132468545032
0.0949968215666753
0.0928014464513461
0.0945772546762839
0.0931327706195075
0.0951475483256638
0.0906212494556227
0.0923255031754816
0.0947547923432007
0.0926088406689451
0.0897868699553975
0.0948472760085202
0.092449096495981
0.0955042202184349
0.0869551717111329
0.0921101299815927
0.0866894252216324
0.0917547529211583
0.0860737676156306
0.0918497340705458
0.0877842678779212
0.0897233163233364
0.0857672258738857
0.0912916101071228
0.0850263881931464
0.0907185449834235
0.0884696803174774
0.0914079250800264
0.0830684252254168
0.0901478624512225
0.0829091762651461
0.0874021116368553
0.0834219906832999
0.0876022732355105
0.0856019931334549
0.088125375174148
0.0838801787878043
0.0858990261487756
0.0828189676679855
0.0942425821671287
0.0846163569616801
0.086561472479946
0.0820547271704234
0.0878205652322543
0.0813464929872661
0.0881243896133024
0.0825843155454056
0.0869763471315299
0.0824599768609814
0.0869517635630665
0.0817751654267474
0.0868195727115454
0.0817424946381247
0.0855597277569136
0.0835606433892657
0.0856001097100192
0.0805351414097491
0.0844795622526291
0.0786188249792255
0.0837290335388326
0.0806934397014218
0.0852690752812189
0.0793652214676184
0.0825263681833418
0.0798991968982832
0.0878864892014785
0.0835584271323145
0.0839885977150612
0.0807838220337349
0.0803828405628681
0.0798143581806738
0.0820058522589984
0.0809350620002035
0.0824156910189998
0.0776210038532851
0.0825298589981903
0.0783460053546722
0.080656767030708
0.0790488262756295
0.0825892873376101
0.077856669430733
0.0818728026470329
0.0786527993168622
0.0805548131398901
0.0774688290455157
0.0807528481249101
0.0754707503442838
0.077910903149336
0.0768313756997945
0.0789924175239659
0.079936362857835
0.075332115813357
0.0934792470413227
0.0795249082512642
0.0760472165182616
0.0792113994183106
0.0758469886727811
0.0794319404535678
0.0764744685752881
0.0791075206233107
0.0770382619050721
0.0795954506029282
0.0763272245570742
0.0775340963897913
0.0755942158946569
0.0781442154000327
0.076619889664529
0.0771411916593346
0.0741580294800086
0.0784432907193587
0.0747098976928982
0.0771790535722148
0.0755613644679545
0.0849008349480492
0.0822397624588653
0.0743394616000457
0.0800869358621606
0.0696974381977171
0.0817549278087225
0.0891966492814519
0.0711516759093535
0.0809623449796672
0.0731519449978247
0.0827586176643525
0.0713894304643991
0.081262165185679
0.0694819579118742
0.0853734921921462
0.0747400051216707
0.0787242258345462
0.0732025755589755
0.0754447708732843
0.0753018871887958
0.0813453955781939
0.0740809958163613
0.0774583456349364
0.0740612244693343
0.0778371161629072
0.0722949895488893
0.0777182211792996
0.0738738565891096
0.0811005590903783
0.0707163617023962
0.0848968511392621
0.073663226229788
0.0784698508393617
0.072873315477607
0.0788096882158509
0.0702569017750954
0.0932494265768132
0.0718570784985444
0.0801467627502896
0.0748372140110036
0.076430616184528
0.0736051635195062
0.0778056367855929
0.0736554554668845
0.0783433842075035
0.0746281037632296
0.0781376926850073
0.0759847975730992
0.076256994681683
0.0731228852702654
0.0760510517962943
0.0766248818796616
0.0766603769745577
0.0775064901552346
0.0785399056147207
0.0757856129837513
0.0786182699017239
0.0721573773448235
0.0969700234485026
0.0729438966605826
0.0876794345925959
0.0733665825975473
0.0816287092755163
0.0702730124788238
0.0812027250348814
0.071057079430203
0.0831701728825275
0.0707151713880774
0.0785851124421467
0.0721161772814732
0.0775645265423226
0.0698629466358118
0.0803406867135305
0.0692017370092054
0.0797756263817982
0.0699441350491697
0.0808650463909406
0.0708092055456423
0.0809713490206132
0.071389654796344
0.0819464676097034
0.0753544344462914
0.0792231412716077
0.0758782439369344
0.0815464113461661
0.106776228993012
0.0714379131919655
0.0867600417433997
0.0764070931052363
0.0791151150414767
0.0777697135489705
0.0795246634407055
0.0801327476105776
0.0790805431973246
0.0759447549840377
0.0780338904002108
0.0780803441539412
0.0787633008942171
0.0779191109212083
0.0718114461691669
0.0977846663831652
0.0847119552858132
0.0807639077184759
0.0810883435415037
0.0698604123855067
0.0986212532797166
0.0870434935075261
0.0787612302729045
0.0874927528084217
0.0760839998889119
0.0849155611271519
0.0779031945887332
0.084280168841774
0.0775591908006382
0.0867325870146005
0.0780900374243368
0.0864950408893591
0.076368507141298
0.086200464988618
0.0822246487173295
0.085725942499108
0.0887297348824638
0.0863691195979252
0.0807508025537921
0.0894198662504126
0.0791825555868351
0.0855533460664565
0.0812539258974634
0.0857309217892562
0.0855327519639912
0.0969646810124618
0.0803356338734229
0.0952719510360235
0.09319300455858
0.0841080551384885
0.0834851310000393
0.0948004591474853
0.0850089974745286
0.0945418141169006
0.0620390425418385
0.121519469262197
0.0795820202079559
0.109011806596481
0.0838545156383252
0.0932402238652616
0.0851967302954797
0.0925745147691496
0.0827182188960004
0.0956063919436002
0.0986008718734041
0.0848103379839375
0.0955819452375455
0.0888809195833553
0.101668624676908
0.0879905047344115
0.0959696571367444
0.0921986196445542
0.095769853585237
0.0905625323606678
0.106905656053064
0.0803939068368272
0.106581890147286
0.118127615415972
0.0971824320302306
0.112415637975863
0.0858627150753576
0.125897709242851
0.0996325465559838
0.0956730403774373
0.101998777939833
0.0938848757413324
0.104440198989624
0.0860973414396811
0.113931420726494
0.112461350693743
0.0942086184584471
0.111358250189457
0.0905794878031461
0.115506800450924
0.114420748826213
0.102624163527259
0.105709656116616
0.111199541525892
0.100937696538484
0.107528415225528
0.141452538457777
0.0938090586813473
0.141720483385136
0.114064009527732
0.125834965627166
0.114112761278106
0.121524407041131
0.118543711728146
0.133627261600387
0.120036223093081
0.120776852708489
0.115865914043827
0.151660489787546
0.121150582820647
0.127224010377749
0.129939553555513
0.114598060716336
0.141162412031153
0.174589047126716
0.151704103364017
0.139005426966657
0.133063442789215
0.154493540170003
0.145251792615908
0.137860682690293
0.143206271858849
0.137116847520298
0.142620150062377
0.142908647888188
0.153689328530317
0.153076613644212
0.145586146284612
0.157507816898476
0.139394206244345
0.168653927221051
0.173651945062426
0.195165500402156
0.162216576935074
0.17943975687342
0.188455533377977
0.167528626583398
0.175339265310518
0.163308405172649
0.18218995386298
0.172153402870404
0.179797842790572
0.177915970709372
0.183689384577628
0.203634665783983
0.174704152479744
0.218902354560596
0.183355361413281
0.203008806781177
0.175362746795945
0.285141913634573
0.2525681438212
0.204985844782113
0.247619638325544
0.181936396946151
0.322356670524013
0.248287604357041
0.2491238682831
0.250805688347916
0.260626216303791
0.263782794961532
0.286117352680089
0.281343167852006
0.305377144948602
0.30253117419611
0.312039986536312
0.292174777890097
0.399819201371052
0.344244878520091
0.375016684417126
0.340588095089118
0.375191080019477
0.37584911540553
0.381484020344486
0.375942887413718
0.406869689912528
0.363668930699431
0.476432051797714
0.422393907069235
0.444342371290379
0.431163343152758
0.474537821246981
0.461091502618307
0.477137328509137
0.524971419169879
0.476586538758292
0.510579457884158
0.495359953185669
0.523253294268863
0.507192238346458
0.563095921526012
0.565487794538722
0.547902767934089
0.568872891737777
0.558516954714108
0.578238223883238
0.576393418891987
0.583560105577486
0.587251180002945
0.630157103569127
0.610841619391167
0.705747248436331
0.66319220488169
0.588118867272532
0.629707765479327
0.609720918308537
0.658274400782458
0.629815705758942
0.623370956098094
0.681151285681212
0.609426012551263
0.628737343003824
0.618467862332137
0.627436021740458
0.613192197747903
0.629076289649767
0.625365399707612
0.632110797289395
0.639330629572486
0.581017429233377
0.719103495837704
0.620181621194765
0.624712473725576
0.620366826467605
0.612792072141357
0.608976783442007
0.620849512447658
0.600770752185869
0.640300272806329
0.596532365192926
0.596512787268721
0.593167292969668
0.598543830506443
0.626586675724097
0.577063417921426
0.579485542215818
0.571578561096014
0.564797775264306
0.573392859905538
0.532839203170581
0.617213253738083
0.558198656287911
0.540615953660747
0.547078869029515
0.533200567367146
0.54137445972796
0.529158805794967
0.537604942201659
0.534006108610875
0.528444224930411
0.522929420688741
0.51501321054126
0.516709194926731
0.517053180609027
0.501430660350708
0.518530525602019
0.507875329773813
0.524771100026589
0.503370485656639
0.507316770606331
0.500640219258002
0.500926159183303
0.504660259786013
0.504494848892675
0.501264677441836
0.497421779927468
0.4998524374037
0.510179363519508
0.498598874610473
0.507612652017842
0.496296570580892
0.501449176546151
0.498483719019437
0.504724643914014
0.491517862069206
0.496315991682882
0.487926219453357
0.501903155009163
0.48816980809292
0.499570989488885
0.483955598598215
0.496922842288881
0.484063266860263
0.50560100182594
0.536890892034608
0.466212827196232
0.499988603852586
0.477877105015082
0.48326760922542
0.465981630626693
0.495274287315656
0.507093810648295
0.468979235437986
0.47333456308479
0.463868277917753
0.465382152917161
0.477861990492612
0.458389767097349
0.457052934555892
0.456897528729267
0.427631874937116
0.567171654521118
0.443158592793486
0.552158396104006
0.457388064512944
0.457467760248635
0.430867033994364
0.495631325111639
0.446493658665088
0.446063139837684
0.447041442720994
0.46225050449738
0.468343898783168
0.428786604313173
0.437713987202662
0.433496351920313
0.423029830466396
0.45722213798965
0.440785210412729
0.426771806397782
0.473134049911297
0.430698657873232
0.436171258826595
0.469226180967515
0.447771770369512
0.410170704279698
0.401078749971764
0.410787201527108
0.385714219152206
0.440860133327369
0.417759414398648
0.394614136869237
0.398062908038889
0.374596180064336
0.390291417600646
0.380426370003129
0.401168864488736
0.361877491047526
0.400494055656856
0.374721750095268
0.355803908133471
0.389814435932671
0.36171803272585
0.410549699588809
0.359337909394657
0.36416963727571
0.347264581671606
0.400965344480589
0.350898924393816
0.354887100884139
0.34334913596798
0.337983294636416
0.352142491509821
0.342848292720961
0.322129531032588
0.345715878511699
0.31595423972878
0.356499257328829
0.365859867447192
0.358615844287963
0.329043085371866
0.3143007205444
0.315984208832209
0.31819237209574
0.310873258144098
0.317377642259055
0.294137326217701
0.344587062495613
0.289336966662761
0.356269067235528
0.329553511102486
0.312846986757357
0.317597295153222
0.320530447811172
0.317394145434642
0.349859463472195
0.344295889399021
0.351262252241176
0.315912209940256
0.35540465589392
0.328880978143976
0.34988011353575
0.33954202201294
0.352982765293339
0.349456817450344
0.36706731941523
0.367500246069845
0.375267842945059
0.36995883703116
0.393376134526129
0.375141140359359
0.441865514132006
0.400901787853768
0.42495741940422
0.446373487986349
0.441112625549678
0.466111824590408
0.436202230385408
0.455833846920057
0.458733418049722
0.465227554923027
0.47335781462882
0.462280969193523
0.514132991968419
0.489903417110616
0.493313982709631
0.501761934276266
0.506169198645918
0.511595769201863
0.527622748441177
0.557380678740493
0.499293162928062
0.611956843681701
0.534290334889456
0.548854696424991
0.534503085187901
0.545920626010784
0.558002057667405
0.547371599544997
0.552630880487134
0.541278969354617
0.575977268965072
0.567402020326139
0.55376365091776
0.568987852233022
0.561587752280441
0.570804063125213
0.57649371983064
0.579354950250034
0.586739117796952
0.581612595672224
0.597997634381813
0.56694769551101
0.630855191968644
0.636516739169427
0.595390544653207
0.613252717738095
0.60425410278705
0.62569112283327
0.611478711540617
0.632079680431386
0.63913697352098
0.633965643351017
0.634267695094224
0.641219704573018
0.656000566060845
0.660345108423131
0.666975916224345
0.656917261842908
0.651131476907143
0.683095849695175
0.633608544655435
0.736563555996352
0.666869758839636
0.695917567462031
0.689126266750257
0.688583237426188
0.696250997727494
0.696944625097837
0.688358191805629
0.70062714309628
0.692322275531755
0.688660221818364
0.701141028724802
0.686361755875657
0.687654763864839
0.684165771242875
0.700172661497118
0.710017093595786
0.692891469706035
0.700605836901162
0.699255131951272
0.698678996910005
0.699441327841884
0.716509851603797
0.689170702311857
0.707215762355496
0.691296422530145
0.703909577431912
0.712478305655241
0.693814379102098
0.685923094261109
0.701217209169089
0.692196077620634
0.701547988779897
0.692771125287704
0.716414996323327
0.700317162224042
0.711534308778241
0.703371881291967
0.708493540146702
0.717560688541277
0.711896070005091
0.713156820348968
0.730098440812869
0.720586308228408
0.724303720431412
0.731998219999567
0.723517290326786
0.731304265987174
0.734043460436273
0.739711480439411
0.729065860212136
0.720521224340915
0.731324276186903
0.712512601316471
0.731163625310081
0.71693720585678
0.708983984644739
0.699411961408309
0.699010252153814
0.685996498096785
0.704849464275962
0.697542834832402
0.679050571369829
0.69247553400886
0.662774083168691
0.673446444895279
0.660055783952504
0.655951993220331
0.645519277506897
0.652772607018391
0.648898861676509
0.652651439804008
0.643228465483636
0.636685937132931
0.638872114371883
0.636250744270811
0.633753730710883
0.635040945664096
0.637061569243829
0.633924262116384
0.631101359746653
0.630262285805536
0.625925914785929
0.624553451133498
0.629583442871076
0.640739693319536
0.627987641323442
0.638786958061065
0.620370553761546
0.63433499757718
0.62617409230128
0.630952683519315
0.627420924498631
0.624182802484026
0.617858566515852
0.626323271672773
0.628410568987853
0.623532149190451
0.617663560334543
0.622720138627946
0.622130140082903
0.62689910887386
0.622132304671428
0.620672924123284
0.626814216820119
0.621320269067605
0.624056609065626
0.627211937205682
0.625788032507578
0.617354089942316
0.625878445291754
0.617171660938028
0.621125755230214
0.623219449045524
0.623946681441417
0.628326091681885
0.619406184892327
0.618075820613553
0.619225551715211
0.618550886153254
0.616852459701774
0.619276913711854
0.620405460646298
0.61842621244054
0.61426029741128
0.609509552891667
0.604393294269887
0.607870452125064
0.600755195336293
0.59418902916985
0.589698362571269
0.585040353083678
0.583076909260236
0.578964315166014
0.574020321086635
0.56868389423178
0.564626789387973
0.557834122823696
0.556919451590506
0.555011393663886
0.555927852045651
0.555041510988562
0.549983184151478
0.54188703552379
0.542615900616172
0.545148640772212
0.545396410577655
0.543633751528781
0.544169381030086
0.539914864663384
0.538489453429962
0.541929600344941
0.542344248983939
0.545808936957154
0.544690338062853
0.54607178418665
0.547452466136634
0.549453162973643
0.552284946784821
0.553354435336038
0.557543994282727
0.561696770788419
0.55705548390189
0.558978292070305
0.566103879849734
0.569086552585847
0.568086087855618
0.573816796287068
0.575012452074287
0.575878510040812
0.575457088285276
0.575013781964879
0.575358165914558
0.578673068592939
0.575786116049011
0.576899731887873
0.577121755639643
0.575850488892083
0.572559155057401
0.56850282659698
0.570649789014405
0.568516745336721
0.566539500788024
0.566328991049992
0.563031283549131
0.562943424988258
0.563883840961891
0.563198616852515
0.562993126228202
0.557406186414539
0.555010980600709
0.553667753891316
0.549101504876024
0.548260490437285
0.545714777936151
0.545457905743526
0.541983928358481
0.542060347210214
0.543637192761624
0.53587209655691
0.533340598462411
0.532133391456097
0.531645047711574
0.530238648301708
0.531296768810892
0.524534709455417
0.52423358997243
0.525812016870037
0.521944420706118
0.521354573156274
0.517853593367852
0.516408335753508
0.515286455022324
0.512234858084742
0.510425397971787
0.50572001936987
0.504748099598216
0.504264144384447
0.500987310084111
0.496841408295691
0.491259677506409
0.484009294280075
0.479553620686397
0.479226034741643
0.477350522392053
0.473260771490006
0.470817029813722
0.465944857302229
0.46412378951866
0.464475610660058
0.463319396430187
0.461688405620182
0.457846056837655
0.46019952179959
0.456682737321906
0.452240573001514
0.451771675120158
0.452665686618393
0.446988471508797
0.444087158058686
0.440776941399721
0.435912742112447
0.432495764179203
0.425080278033933
0.419623042642261
0.417694460708739
0.411199486930165
0.404684908071812
0.401133798182014
0.401071930818195
0.400376010414181
0.39815068304669
0.398842437430944
0.406031511289104
0.410669294496656
0.417796262070282
0.428225928704548
0.441952934147294
0.455372865793136
0.466372799995939
0.481816654688795
0.50375127102668
0.516300535103711
0.530949374980341
0.549342631604357
0.573426274950794
0.59050233882369
0.610590855969225
0.626467901648832
0.642941656012272
0.660894274231115
0.677417368641839
0.700087182920476
0.715260789346968
0.736033131369321
0.751320586139021
0.764940403908464
0.778384858239094
0.792381027726318
0.81144868174855
0.817541479661389
0.825786336093049
0.840368633884061
0.852145474813611
0.858257547449629
0.863487005407194
0.867152331580082
0.87583707447866
0.887605732635968
0.887669284940069
0.888154438222037
0.892890778885456
0.893091096976462
0.894996461252098
0.895077632695108
0.891097896079293
0.884801196944416
0.891775473757173
0.901136331094473
0.902754080681596
0.907552156928457
0.904529305444367
0.899784296562475
0.909322678445901
0.918485369827987
0.927645757873792
0.936456487956734
0.947737710898671
0.956841550368443
0.955074702613865
0.95664934499175
0.963718692235939
0.983380884997447
0.996040442639261
0.996099003919787
1.01706540257521
1.03035627602322
1.04235003816583
1.06330779541429
1.08417598661719
1.07482968348621
1.07436353630283
1.08744765257629
1.11088042661533
1.13219725044711
1.13191956874873
1.13861355260344
1.13803685501706
1.13419640432559
1.14345152004082
1.12964574380407
1.11959033688297
1.11018951128233
1.11622163329549
1.1227864256103
1.10892494061791
1.10480473755456
1.12660959736937
1.1230333447977
1.13085715201338
1.15503444272117
1.14718297473778
1.1671426112993
1.20739195095142
1.1971704462928
1.20689448407379
1.23446039087248
1.24759960673747
1.2635581529304
1.30304293024495
1.31111994597757
1.34145509732286
1.38232115694045
1.39974067679794
1.36673355397922
1.41894301941858
1.4648835938559
1.42764271836267
1.44818224017406
1.45800276034381
1.49438717398472
1.55230543667066
1.55029232836551
1.58351368138317
1.59691065998593
1.60966989847877
1.60515618428083
1.67762460986876
1.69250248458396
1.7174778904501
1.76352849475488
1.7313115976526
1.78991199200648
1.83255562051107
1.76673810872399
1.76412264807374
1.76851637421067
1.83819942015174
1.83471387197847
1.89453700044765
1.91112420301739
1.91796736177982
1.86596167346482
1.91998600386508
1.91928705912646
1.75574926945091
1.76322928951721
1.87106963790788
1.71078363785426
1.78953981992735
1.78165573525758
1.78358908274379
1.90770781896692
1.85678845186339
1.81434970335071
1.8889183849674
1.90360309907857
1.89586141007257
1.96878685857539
2.00027803846431
1.91661013039525
1.93248957479087
2.07547811280363
2.05789995924214
2.00831938573503
2.09884393865375
2.03884125082511
2.2803149845867
2.1502778201962
2.12665767687421
2.17756960266677
2.31852156162108
2.04376226360322
2.21641146916272
2.39771533398073
2.20654678571913
2.30287728759315
2.26119982107651
2.20761121702239
2.11490877890906
2.02838883849671
2.04677518727144
2.04221848086845
2.07475721251787
2.21530921631936
2.5678918622781
2.13032475870946
2.25561612188036
2.29173340826426
2.21023374692653
2.21436104265129
2.20731748565777
2.12141809489223
2.19737241011161
2.10540176358457
2.16621328666184
2.04333641453414
2.03701659432625
1.94723740300993
1.93541229916499
1.85043513887632
1.89848660104043
1.86555662535
1.88536068894399
1.75382282241135
1.67046310451799
1.70101572652774
1.68830165971909
1.60090511158305
1.60771806840099
1.62049779830605
1.58636700659094
1.52178089710163
1.54278905221943
1.58376914138391
1.58567619868714
1.49725533505204
1.51892504147219
1.48940619912606
1.47096046368329
1.48373607612342
1.49407485110979
1.45087455527234
1.42186436881118
1.36691024251054
1.37874091500762
1.30921070566879
1.31349422188438
1.25048822181267
1.20545766948844
1.20189899019506
1.18078603395224
1.13752330813281
1.1025203744458
1.06375902547854
1.01795207938767
0.983759089692728
0.949628576259307
0.901716204662997
0.86087402299852
0.818211322798214
0.789572479139804
0.762157658787052
0.731998724762687
0.699756332625489
0.688986793547285
0.657005026976965
0.636949401421965
0.62693812974614
0.608825152553688
0.593513669117198
0.58256883928193
0.574335407286575
0.565162883431698
0.553927249343944
0.556544070931688
0.552086565636242
0.547236636485904
0.53824887332041
0.536853940170962
0.544872599533111
0.543047802500479
0.541399094795071
0.544937476415966
0.54331063995457
0.548555259230496
0.553766840786997
0.543032012521132
0.548258269458143
0.551343106431986
0.548483730535934
0.544486731059688
0.53235393638734
0.530151976271486
0.527994536838439
0.522710406020431
0.520529866672519
0.516761922317649
0.509589767417069
0.49729714147217
0.497771508913633
0.50553408926177
0.499434755461038
0.5029789043904
0.502034426624658
0.505019697039108
0.500897616897801
0.509810399541892
0.51133850291187
0.51665713576116
0.526688685635789
0.522397767272537
0.532978733051424
0.537291999010678
0.539252584700147
0.544869175183606
0.540633309234492
0.544957244056671
0.545432850706842
0.54611094983776
0.555641253158532
0.562951892148945
0.543646600704226
0.550604069110586
0.550353636522275
0.54641669606437
0.556141766881502
0.558114051648541
0.565580836957155
0.568692588511762
0.566705087997133
0.575856815771191
0.58343205051385
0.593279911975003
0.59783432657841
0.619192874371053
0.622992930544055
0.630508907653237
0.658941134262209
0.689327225073648
0.704623413001423
0.721510632996718
0.725822581748103
0.731710382045066
0.723589948206269
0.747368392730893
0.743353169595149
0.730265549493856
0.7255606945305
0.726556901068474
0.707606081517265
0.700294364042971
0.698117467541072
0.683234874124345
0.667750884845621
0.670281829673988
0.661319479459664
0.670637167553735
0.670579258489007
0.673364490482751
0.668932037630878
0.678841451263928
0.671598958235774
0.663834744667268
0.674311747197248
0.662673407882583
0.661009309453465
0.663145161706352
0.649551502521675
0.655552610757875
0.635211641636577
0.62167209865683
0.606065862865211
0.627031367417184
0.618600552347729
0.609374257089494
0.610003394730848
0.605903517409049
0.594567548877012
0.598835329046409
0.592222334497952
0.598062739098817
0.585179222841488
0.587988434066096
0.588366924208428
0.588216886354585
0.576310308689608
0.580883669332826
0.58767730398321
0.570366757457815
0.559918921079485
0.582308291484557
0.57801229255909
0.560399039021368
0.554290688676319
0.553294220934228
0.553293786538267
0.559977017210687
0.550617951247802
0.556049147372527
0.54541099217638
0.56039332847277
0.540233458783532
0.543924722893331
0.537503706981032
0.534158056142859
0.536433117084367
0.540005294966085
0.533750266822398
0.52612124536933
0.531392658022685
0.53638637764233
0.534971692527014
0.534527806836194
0.52739101818409
0.538513576965558
0.548783605209104
0.532304104137558
0.535971298027981
0.543372491115588
0.534491390683067
0.549054205385159
0.546086719935352
0.544708363838887
0.53902353334668
0.558409089155396
0.550466714993654
0.549757349408897
0.54472969765639
0.570320362224764
0.563980592026545
0.559419920669727
0.560947267180698
0.569042654075757
0.582807298929305
0.57778109426125
0.577422707020098
0.601956289556563
0.591153214793755
0.624885622173434
0.595788692301539
0.613784521471287
0.622552191666564
0.65008366431809
0.640019992129094
0.652198670736074
0.65034363408247
0.675248420788672
0.655587217177275
0.693543092215462
0.736378527921976
0.785312066414636
0.765588995465838
0.78384864503111
0.797580471800726
0.844330280132522
0.784372806286427
0.815913291158341
0.869630933482827
0.912437192588598
0.876064631759078
0.868063703835801
0.877610565919271
0.899163655093802
0.876998140247848
0.898348954292888
0.891503140551017
0.936672015916833
0.913433215766588
0.893644950029714
0.878128083180452
0.905078008278599
0.869664738630938
0.946757682767607
0.904124742513894
0.878482278078659
0.853972358442577
0.879857830566323
0.829986631238576
0.846195187843401
0.829159798669198
0.89375763966186
0.796963352821869
0.94893539339357
0.88937914421439
0.865969866469574
0.805936319199917
0.839261425498063
0.815386360013912
0.902080609375398
0.8343591591775
0.850452774196797
0.827904849117009
0.78114428989411
0.790942320848626
0.806672419934591
0.803453549303967
0.859695502063579
0.78433285229394
0.806393583341172
0.824738968267115
0.885842947065041
0.773607380841818
0.821565542550514
0.815106847363489
0.847118959772975
0.913941032233696
0.841521541484292
0.826094649729185
0.881100161489424
0.809086256321332
0.815667462248967
0.832709221966498
0.881080657503087
0.775097985813019
0.853485498547551
0.842549001802684
0.803608090474935
0.821054176701311
0.871411925321211
0.779440917533824
0.840932789532271
0.805878142272876
0.944016152776925
0.996593060775643
0.946441999282276
0.833642214234216
0.812046098550077
0.771755366572369
0.970447970112297
0.972464125574357
0.913560674495347
0.907240253117073
0.972690109192307
0.889369659658594
1.11660650843919
0.863552017724692
1.02309816950689
1.07007045784458
1.15653354874209
0.900060296736407
0.930804381764305
0.943891134142912
1.23847063480659
1.01745470817913
1.01553022878806
1.00868669599686
1.09096283399756
1.27470792921735
1.36433326929712
0.978385756400363
1.04632763252575
0.921860129884042
1.34810990266579
1.08346876916156
1.07922932789225
1.07192400979443
1.17084952749168
1.08689483214644
1.57998872313494
0.889966027043932
1.01054235726054
0.905108017667603
1.38385872351173
1.18231357263447
0.829962101153014
0.873986277053458
1.39380407001954
1.2031887744894
1.02532956839536
1.10870633004143
1.05491321033535
0.846575882764363
1.83097900563294
0.867459822513987
0.909813315328075
0.919061978064262
1.485510901687
1.46549888953377
1.09459999227839
0.7842908224513
0.941409504759953
1.11430435888976
1.43539115922643
1.0770183733725
5
0.892537984040275
1.00330079379777
1.04076306846592
5
0.824033555959101
0.979108925809579
0.801459911538612
1.35360778330685
0.974701995203157
1.81285805132749
5
1.093173041659
0.848010727158787
0.958254603935446
1.10346208716328
1.39602543859036
0.951858967520619
5
5
5
