3596
4000.36533379555
650.420452594757
1
2
2
0.0630910219073473
0.0561204926228085
0.0603938131693803
0.0590559027553395
0.0626099589094899
0.0596941878816703
0.0616795594864559
0.0650609615142289
0.0644253088850108
0.0651154037965759
0.0599707551471621
0.0612767396097071
0.0607921677356094
0.0572782429948719
0.0588800742932324
0.0599590686459685
0.05533426129805
0.0575727747839708
0.0600900926088953
0.060217406395632
0.0498904288343641
0.0619257623223984
0.0571107105780071
0.0566990673006072
0.0588949861436176
0.0668317524553229
0.0565611928254031
0.0537747158685848
0.0553881703252944
0.0640371396669805
0.0574112664233202
0.0652806709180456
0.0663193457552856
0.0620324340272874
0.0576969089899412
0.0561246958470689
0.0608363563134297
0.0587276046340889
0.0563577922733364
0.0618994511737691
0.0597302373155409
0.0614618495917456
0.0648284899479141
0.0631754259012434
0.0541551902146101
0.057503694981902
0.058862365289918
0.0589867169029418
0.0608863720531309
0.0549916317860603
0.0589062801278354
0.0543348956934784
0.0628179260029311
0.0735674732484818
0.0613676723351955
0.0676106346753903
0.0573927719120735
0.0647295126187842
0.0591289396632629
0.0567664075169763
0.0652650028398202
0.0703468536034218
0.0563678836563401
0.0675997039853021
0.0523977639039963
0.053060056352271
0.0452606266884697
0.062142305883109
0.0497456390648005
0.0596185452103606
0.0531962960641509
0.0578662664451641
0.0711864995065325
0.0720219911643995
0.0523598784197287
0.0537212026314062
0.0445380435781848
0.057826247454996
0.0521990450224276
0.0714128146360016
0.0628336818395804
0.0638210874041056
0.0569012723328949
0.0539701187192386
0.0548136093525876
0.0684066166140347
0.0482471714916459
0.0587255574681275
0.067712773033998
0.0644750345577884
0.0482473604716299
0.0525663951206007
0.049813429336351
0.0532280062516686
0.0491842930125961
0.0574128731946758
0.0536975453006231
0.0574513287631884
0.0515626963269746
0.0560873775617941
0.0714811438062965
0.0485852041825658
0.0949150261058958
0.0335679408348808
0.0898727175799713
0.0805750291526532
0.0337164934231017
0.0998205125844782
0.0540211658735594
0.0707824492305437
0.0475243273022609
0.0626155874916422
0.0411763693890057
0.0649708325936781
0.0335050748253535
0.067996108509055
0.078418351111721
0.0558082876067909
0.0506673336636073
0.05418824244895
0.0456399444912684
0.0617249095014209
0.0887252589481403
0.0500378475413985
0.0596307898823524
0.0468691842977829
0.0350404845782928
0.074183953101447
0.0901211852278228
0.050410845206864
0.0629622345958661
0.0476984376414086
0.0537755135454019
0.0331276828845517
0.0796144918356594
0.0618334923953512
0.0553501172428918
0.0416367814242717
0.0539580027233664
0.0993953930458386
0.0591533186873128
0.0536556423241134
0.0364316962247893
0.0497221890158461
0.0738707982251703
0.0578278355667049
0.0461976453407925
0.0653182296676691
0.0687716558432617
0.0521448912598185
0.0497770230391404
0.0528288898330423
0.0689181125899882
0.0627625036211087
0.00675463746803182
0.0547241941610519
0.120830558603361
0.0285903334865849
0.111632770031379
0.0403055072586761
0.070414432036358
0.0461079489980812
0.052064922324653
0.047136622485287
0.0553162001423605
0.045553813321581
0.0489149097404345
0.0721853116879865
0.0525025662043568
0.0567715598176051
0.0688268427850034
0.0554504035617865
0.0179477521125456
0.102924195858966
0.0707414372372529
0.037717975601129
0.0780644776353953
0.0587081366495981
0.0451934593389813
0.0445486354744434
0.0800303263665332
0.0490280284641114
0.06063489538588
0.05300289828805
0.0611445750726299
0.0637262308744269
0.0579923617046293
0.0507974549480732
0.0616031031755496
0.0287364153166883
0.0496026539964212
0.077966033431474
0.0833808549188472
0.0477064039645518
0.0642675142532083
0.00760102565187977
0.0673957257031538
0.0792094301339015
0.0500348452361939
0.0571423645087414
0.0495201221554737
0.0501060583540932
0.0548415172156084
0.0513914516003125
0.0544304792237257
0.0230347801358688
0.0911033905453735
0.0629690673813398
0.0459836969495763
0.0430545258311669
0.0486062344168861
0.0337555587256621
0.0875022071228372
0.0900637701710145
0.0559392406425363
0.0534227008171488
0.0440864024835429
0.061141976491388
0.0636983103126644
0.0538806257199037
0.0510390499661206
0.0538416003513126
0.0475398166488049
0.0515897013637113
0.0471155832978623
0.0546128864093106
0.0504255386595666
0.0513629420921381
0.0431363051820605
0.0546450077426326
0.0583613982027965
0.0529955877188905
0.0516235218920739
0.0558495901538465
0.04303864600724
0.0520653729510208
0.0742363794765376
0.0502879709372231
0.0499798261092545
0.0414583951780322
0.0507171224848638
0.0447215538546913
0.0499827130427256
0.0506089506139513
0.0489555016957275
0.0319518874224229
0.0864721629396417
0.0564452504025144
0.0589829341937444
0.0440866888139469
0.0647688538802334
0.0748550174748862
0.0470302596509744
0.0555100201501371
0.0492085439291096
0.0511536665308222
0.0417510295680434
0.0745658658539543
0.0566609651239343
0.0474335634463035
0.0590740991424395
0.0774225968994432
0.0489848495451019
0.0524428481978043
0.00835469712235788
0.108988416837418
0.0615317246803352
0.0226424458597077
0.109907750106363
0.0685708319820476
0.0493058487504469
0.0603064508652329
-0.0028621192632749
0.136441632433425
0.103547587907142
0.0535647484489186
0.0456918060737375
0.072926627722025
0.0518816136108044
0.0518308947169976
0.0564563638708382
0.0457346639965437
0.0768738275151761
0.0538973532270157
0.102305935417971
0.0391138758315662
0.0625018738546994
0.0900808849459615
0.0601179441809414
0.0625669493888623
0.0516598445276833
0.0544079544416909
0.0635194363415058
0.0681519558665314
0.0526433873113247
0.0659533444908732
0.0437026180748991
0.0862692604338066
0.0595594968310728
0.0543856013419261
0.0453534657617545
0.0718725595379059
0.0527063042104151
0.0577753098614789
0.0537898518618817
0.0670998270540003
0.0521892899617933
0.0484345707533598
0.0971196246444843
0.0787920481465212
0.0417339348656761
0.0819205120861588
0.0614659655518605
0.0589570375039243
0.0521524892645897
0.0682477145339599
0.0556581823100171
0.0600574119976437
0.0431404010572601
0.0836138208233699
0.0693836922644982
0.0603877663476786
0.0546759408074099
0.0593696820036369
0.0587169165011299
0.0589016222732401
0.0598286341485562
0.0606924347820214
0.0624595520737552
0.0565350442518483
0.0595941235763707
0.0904390593484944
0.0382118477187857
0.0746560020224707
0.10421626728182
0.0596650466266397
0.0596471810623993
0.06429976097068
0.0745741915659412
0.0576032827288228
0.069050082445819
0.0621273606483748
0.0691476031104897
0.0806496236649059
0.074587235609885
0.0697954318081872
0.0614235371330805
0.0962381246768269
0.114856860744121
0.0887217623633994
0.0781639889811304
0.0530047751779678
0.0845694369336423
0.111139988044777
0.067918624122573
0.114741312911544
0.0671919213743626
0.0845538534555303
0.0723168485830137
0.0875447940135017
0.0796121327708401
0.0901198882311376
0.0756856547229297
0.0876597486660486
0.085613054510474
0.0903248737962283
0.0853714623553518
0.0796521423585313
0.116911117857773
0.100606111445792
0.0879414770245271
0.102480199636152
0.075730676052481
0.114065096777927
0.11608269852355
0.120897213019181
0.13546535155436
0.098353340813418
0.140882799884356
0.103500667472287
0.115301668832214
0.100716913451431
0.108433837375207
0.110191128259321
0.114213034596566
0.112009998286508
0.116472179244291
0.122619184289094
0.127215087561224
0.119252182619627
0.126553433797892
0.117623367547001
0.150207136867792
0.135960265475091
0.128868800861598
0.1262980914066
0.128639971033945
0.175286946703289
0.168541381008302
0.157458022062283
0.146414834255241
0.156563281947263
0.132822215007926
0.151958685928188
0.144620446974369
0.163465393119275
0.150351045313564
0.190644044564535
0.180173739818351
0.173785503097384
0.18385479748481
0.15553221658687
0.173762457656119
0.175240930121296
0.179378795031657
0.204650762996038
0.181579012913528
0.180153336232189
0.190622886661838
0.211041712107333
0.19151819909038
0.222462503755171
0.195744761974462
0.202181756186739
0.197957609229483
0.21045497768482
0.20027904706583
0.212297558832197
0.205348294596174
0.221863756121304
0.231098280839825
0.226995835112065
0.213843852820454
0.249582446918186
0.239452779568691
0.218945873468099
0.235103070184917
0.227715099696578
0.233950103762147
0.240486139414232
0.255510939468011
0.269765701358651
0.25004136570175
0.276893468226037
0.247812687871026
0.276185362600405
0.275777779477253
0.261830853508955
0.263381250913907
0.291266015486905
0.280920932251454
0.28077505474596
0.281853881090896
0.298077235698806
0.289908444491696
0.289385788125023
0.299657274959208
0.314850853199216
0.310928620259459
0.30798317889754
0.307850787782095
0.320196628219144
0.32820558227493
0.35753180596327
0.329328724601373
0.367952589058003
0.347986113443296
0.354128439181853
0.328987271026061
0.348770412189375
0.355419888506523
0.371627349963764
0.359435904061208
0.367848070864501
0.381766596288259
0.38295960943036
0.368648465288845
0.388361583403017
0.388390997855663
0.385137496895648
0.403119473705865
0.414403427435666
0.412055337907987
0.415382653393953
0.406545102347384
0.42937747877338
0.430434942963728
0.420484945458612
0.431356702965084
0.4307069336796
0.440851070731388
0.445425144115783
0.442615635295487
0.459794524045377
0.458537830301521
0.453130509370992
0.471064475291028
0.474030379631916
0.47952160224705
0.488606685310031
0.473149235001285
0.478297124991142
0.481002991359957
0.491884550662275
0.528747369399005
0.513260048926705
0.505228334107676
0.52620685330642
0.529034417681599
0.526216173564695
0.533609396301602
0.564145031690262
0.541092677228112
0.559937762304046
0.553056081944282
0.56897748222946
0.56767714142421
0.54464831496582
0.577719211142231
0.591183562857508
0.552295389275717
0.583028143202688
0.596641651392268
0.591187273993107
0.612401686318717
0.59777623003771
0.584198906217944
0.632378682579804
0.637809974163614
0.631237516299694
0.624719131317633
0.638080676338754
0.642364944774108
0.670933832863252
0.661581726087197
0.646852345247023
0.644351224308434
0.655116113904263
0.698345580725413
0.698212019660726
0.676796176679782
0.67057917548028
0.664861514161958
0.701032719963744
0.72763155658978
0.723204336090943
0.715024312528813
0.713930839287673
0.762304930588451
0.755158709478593
0.730453205862412
0.755002545056491
0.75466704979265
0.762369894286769
0.755308796882278
0.739314386876662
0.751382148225535
0.759240375193943
0.772546479532091
0.783808484080071
0.784670567823649
0.813644019853011
0.786298940881407
0.807008141131599
0.806222442624443
0.769440703810092
0.772044489253257
0.791662778371625
0.800433074313978
0.803690830304963
0.817972166354127
0.833584101451784
0.860466707941511
0.864622232673184
0.863386574714635
0.860494710965656
0.865315765543877
0.8797874992354
0.850487374726875
0.896525909263457
0.90826554773089
0.871757136549753
0.892315517186312
0.902838435744742
0.862413290269185
0.934573241109218
0.98761355468615
0.991850396613409
0.953306129120936
0.88734147694474
0.936052974163992
0.955438095522719
0.933836318366832
0.992952070352438
0.987878898393882
0.963188311382288
0.914215831783117
0.958569591687874
0.962701990686586
0.952255283813314
1.00175151465775
1.01611350490026
0.961629349375114
0.989357122606867
0.949251367297676
0.962219948842736
1.10622268298784
1.01953402071235
0.986384205205745
1.01443127580759
0.996326180006556
1.0562726608805
1.04094094076917
1.06820900924893
1.08718873009877
1.10539422906309
1.12067320415773
1.12623823501263
1.08695655901921
1.07386546203301
1.07226558812293
1.07896876362411
1.05311526206017
1.0187924829424
1.05199799860612
1.08781197902983
1.08488163055315
1.05305629324279
1.06898774874793
1.16164614941652
1.10182159586175
1.18245676722474
1.15847197064749
1.06658241596339
1.21014917216379
1.13022945893296
1.12061124005123
1.21724705906638
1.148263960391
1.15465749339108
1.09841711781854
1.10509091492199
1.14876799011158
1.14372785540975
1.12405952488288
1.1528701318729
1.1958336466071
1.25902528231716
1.29108515606165
1.20214046801983
1.15657472708334
1.15682320413775
1.14150850045462
1.21182565896783
1.27071650468229
1.20143367376588
1.21305977190485
1.24524676621466
1.18852054863443
1.2120648990029
1.23972995670087
1.29614267945362
1.25053428505683
1.26476935544634
1.22680633523111
1.27392586184584
1.22849117018427
1.15956078982293
1.24228483090487
1.20586221100637
1.24302156058913
1.35752671420142
1.28485115807354
1.24507672454052
1.26501704684364
1.28344048578882
1.20536933629923
1.22186103552426
1.29370896567117
1.28004306445079
1.23162753852284
1.33203121722499
1.33733971280601
1.31459884100911
1.31141899422243
1.28227072806147
1.23975160031855
1.29601736042317
1.38897957512572
1.33334401417914
1.21520659007463
1.28597088810355
1.39346595116214
1.41726276748401
1.28126622057375
1.27458090255364
1.26572829864327
1.31599545947671
1.32074365464066
1.34699102080705
1.30002901178189
1.2576033713434
1.30012747586546
1.33539487220836
1.27398227628515
1.33309121636468
1.28651608288214
1.31391238910814
1.30840728010768
1.2825009003173
1.26208667829583
1.32701808905976
1.31019900709751
1.33476430779094
1.32802849887699
1.32694527964654
1.30513422156569
1.2464311200958
1.34174803462804
1.45065351991256
1.2800515150054
1.32524278650451
1.3258446985011
1.33188159656147
1.33829940756881
1.3122266435412
1.28437139981258
1.351551533187
1.29539150003713
1.26177086732785
1.3775665721816
1.3433717605679
1.28146198413444
1.3731984196296
1.34773410250712
1.35591743160859
1.38031329457222
1.42156232559217
1.33662278902596
1.39848448842877
1.36824255281213
1.30182797494132
1.30437763664987
1.36438605364505
1.30218057781009
1.32067823370016
1.28946714370662
1.33150155880501
1.44329754613737
1.38121610642405
1.27386074041632
1.345189689551
1.3398042182946
1.31239232853147
1.25632223034761
1.24961143116687
1.32199985834098
1.29322886454558
1.27469703733127
1.29251625719481
1.25100428433364
1.36539004364199
1.28005740230836
1.27681292311411
1.3251466202947
1.34428653274141
1.2959378303003
1.34904305805348
1.34637945865563
1.34637456558519
1.23908735668271
1.28680600914208
1.27437279313505
1.26358234118686
1.32664684520771
1.39525884951725
1.30558640073598
1.34016849935671
1.29699079093888
1.28830832842095
1.27409071465036
1.30354439461133
1.28733354554489
1.32568931532977
1.29096172138751
1.27288633803455
1.28420889935756
1.31447071614753
1.29447362617422
1.25620459097075
1.21517545216104
1.20515104003071
1.21731431915
1.285782734453
1.23495630455196
1.2588456406941
1.21332233449417
1.19255795113827
1.21755815228213
1.24121230208089
1.2720997623753
1.27833091600504
1.12871624279867
1.20826797075074
1.27324198879054
1.23151014738635
1.26723852875604
1.25502245372565
1.23028760092333
1.26998223811207
1.21805575174945
1.21998814423404
1.19456180645225
1.16858079721492
1.18047525074869
1.24585629927267
1.18662484416619
1.18585312831007
1.17048815347646
1.25964652713325
1.19730668083651
1.21608108554803
1.19842289737771
1.17076549895348
1.17119692511999
1.25640412752873
1.18065155837922
1.17625691925849
1.1619487769937
1.13333158267449
1.18067808693945
1.17303874338272
1.12978831724818
1.1943218250254
1.07529995675659
1.09510220525336
1.14230215276294
1.17231627960332
1.12935491023443
1.10573806099802
1.1033419001111
1.14562068149833
1.09521875938924
1.13717476661603
1.14946448045228
1.14759429052209
1.09963184878664
1.1205489151812
1.10395513357655
1.10879502900087
1.08049178363193
1.08374937954345
1.03069126951796
1.10247187344151
1.0822492408893
1.07291774875683
1.06700862443425
1.03120868164807
1.02255165527772
1.05832076879737
1.04430124044877
1.07163557897957
1.04738196966045
1.03497820108424
1.01079492847122
1.0235875777093
0.989386445501806
0.996487609443452
1.0247241570621
1.0514083610285
1.00713710754863
1.04031656165977
0.964538123967741
0.997953452665658
0.970337340501996
0.950787735741
0.99493645360092
0.975258617122845
0.975473764442483
0.99403409068279
0.963248177748803
0.95990543698488
0.948494369489324
0.982816398699027
0.932492485186152
0.939008530907528
0.947525345904379
0.955969616133005
0.900854328695816
0.926849426986301
0.926121243039293
0.892232190517274
0.910542503791873
0.914064653783975
0.878112012197543
0.91028695680911
0.898903538994185
0.889215854647175
0.890258012185046
0.881644021653327
0.888453225661299
0.869589460518695
0.844772821211949
0.895193822385699
0.85951007220395
0.864321454077034
0.834110815652678
0.827583678732882
0.827799810580541
0.854327526413659
0.840491713334972
0.844911258361073
0.818251073236374
0.839071362754085
0.817205666429683
0.809180857800845
0.795933867157004
0.823210243680575
0.812783297801747
0.821305954747106
0.788295581093813
0.80317508835032
0.789587766389833
0.802428387599939
0.775604519248199
0.765544633805419
0.742723412905637
0.77375148982309
0.768419832184198
0.760542532378467
0.759009634122415
0.754917927360068
0.74213921420275
0.734351065902524
0.714023499216867
0.744553311960371
0.722501808865901
0.732725725234245
0.704054720204547
0.721434550252222
0.720530350452638
0.725665049784131
0.707718291553865
0.710963244947659
0.685710551160955
0.710998779888753
0.678788204803954
0.69016899285531
0.682378850273363
0.665610661990163
0.654376206816208
0.681885591339737
0.677476105690339
0.684035035548057
0.659827415651319
0.674022460556146
0.641713718331969
0.65593426731317
0.646904412399312
0.647588302709437
0.630181558239857
0.636247805335669
0.630692331195589
0.634978243654747
0.625448045219702
0.63465367686179
0.630114929742193
0.63277856343696
0.61789406662608
0.62181283225714
0.603405691848183
0.605671312972861
0.618632272147372
0.610624689948407
0.58357909228806
0.599408968544861
0.590828632610787
0.588235046706988
0.57573899295838
0.586338269420417
0.569511426951121
0.590633843740162
0.570880058723208
0.563928660850467
0.574142770087692
0.569391758689205
0.558704081537333
0.569245725996666
0.551442353971185
0.567281882563819
0.539892343061038
0.559901855067162
0.544448933349539
0.546193175930325
0.541431974682263
0.548593966854516
0.527260300898836
0.539047553889384
0.526680755963709
0.53634065069553
0.517298706601199
0.520748691220974
0.527269509431915
0.52563411279339
0.501484228403078
0.516471700309965
0.506548499912649
0.515193460679788
0.495275669335441
0.494249896787034
0.495248503065006
0.493044393868462
0.482954292427038
0.496992135748886
0.479466348212758
0.487668939260736
0.482056314530267
0.478761072070698
0.466516320848891
0.474131090550662
0.47338589715238
0.48039402068967
0.459538022771215
0.466729269588684
0.453976315211146
0.457025773920125
0.451589884668271
0.450456607730903
0.445579295497294
0.463350206250471
0.440547071370282
0.450000700576753
0.439383514132872
0.447473803975647
0.434601103230818
0.437042885662643
0.421331677392308
0.426789395182212
0.422656861014204
0.426700116717069
0.416687047429857
0.431291705234678
0.421914770463364
0.422223617057046
0.408238232198572
0.422693165632848
0.408516876316486
0.405796806430931
0.402551237714182
0.414759414577892
0.398885130262588
0.404901045743491
0.395328590978186
0.409800458429019
0.395499307672566
0.392200544480072
0.38347236447732
0.400241746096753
0.384761601513719
0.386086592911905
0.375682739900527
0.386057102752619
0.387223533369911
0.386788671533781
0.378280437709972
0.381502662407494
0.370745873820824
0.376599691729648
0.366280519405162
0.380054018058796
0.372876913587189
0.374968549402647
0.366954755201147
0.375563479068223
0.357828603401684
0.380126313304832
0.366975768955813
0.37478443643223
0.362903573374092
0.3709484058773
0.363933577010394
0.377546466826737
0.369351766223814
0.375248707660235
0.369159192325749
0.379219081868188
0.362354925423436
0.37526236784556
0.363547497526772
0.380781075261055
0.372202320200414
0.380936144673085
0.379957201301479
0.385201136445803
0.377685436189603
0.393352952683604
0.381673937117118
0.386989005375995
0.385905549073949
0.400847454746995
0.393543945482529
0.401113371281455
0.391037307420663
0.415599971750457
0.405807627688556
0.405244589682807
0.407484443314472
0.416469925834953
0.408882483428207
0.409790164046816
0.404345123458868
0.418276140814696
0.415807611471302
0.425409655577688
0.427548787943713
0.432381367880537
0.420281650824585
0.437215115076395
0.430246852871567
0.438517184642715
0.426400238586648
0.444172379904307
0.438204772268215
0.447267964770009
0.432460527673747
0.450055878120833
0.448789929231957
0.459945717952592
0.449879026412224
0.461261291692137
0.464683514103388
0.471356521764804
0.469711593236073
0.483543688674333
0.469117244551962
0.486319197795584
0.479075294350033
0.495082944230489
0.498582237011183
0.518401542324916
0.495483545423362
0.51057780639692
0.496196815593605
0.50783322765041
0.506300844952982
0.517068082980677
0.513762830098321
0.521237822783123
0.505871709167443
0.533117060637292
0.512924086526886
0.523751242040639
0.515207088436076
0.527291486806945
0.520875787187485
0.527833066745321
0.516482997618015
0.523726047178114
0.509238920867785
0.521341403210106
0.505735603525181
0.514532513812199
0.506680330428715
0.521449180848545
0.506787086994564
0.514776145666732
0.505121477520395
0.522951112714193
0.500474887444732
0.51289700857535
0.51478850170238
0.524575712572078
0.501685822595324
0.513799298301786
0.513078834199167
0.513765640367283
0.498439767264137
0.518775285676561
0.50777159411606
0.509773880280863
0.499330096324762
0.515578549884633
0.507041083146307
0.518713061644404
0.505616912146748
0.516144256409753
0.510103350287764
0.512114626882011
0.502686724665368
0.510016132723488
0.5063808916917
0.509036327328844
0.504850045646757
0.519072264627535
0.499536095553007
0.505524725476117
0.490718553645005
0.511986702032414
0.513219235343025
0.511060587321925
0.50095903510086
0.510696375504684
0.488390342903451
0.504569822149085
0.492327650699488
0.506088615893412
0.492993098791313
0.502963197089204
0.480189879697513
0.490272753481042
0.47700093352532
0.479400693037096
0.476908697350843
0.487382203037615
0.476113474974511
0.470180021508388
0.459580271571977
0.472405449229997
0.464937353886619
0.468190955197749
0.448711653446466
0.450358576967616
0.448450440135171
0.456990346437093
0.433615913371361
0.444273677337656
0.430754737022355
0.439907872951738
0.418518401709769
0.43046435397408
0.414497965195046
0.425748121563627
0.411543568499549
0.413098821546495
0.395940724287728
0.406037101066918
0.391665750739462
0.402226293889123
0.397731256917057
0.399306253844452
0.38913498249131
0.379847384884783
0.378347029809889
0.382492237852677
0.369461450263962
0.378016523981583
0.364242506163994
0.365845561415499
0.364869237096814
0.373798376740837
0.35414594365396
0.356274196421522
0.348854935146657
0.360295612135152
0.345734222198378
0.350612122857095
0.343630024754169
0.345141552942903
0.339662162465042
0.340731525756648
0.334430462781656
0.341964098588792
0.331049503472227
0.331686224196002
0.32661851352132
0.327946054587512
0.324300236000386
0.335391696905463
0.32296240478492
0.32439814305996
0.316253067555073
0.324393373435406
0.313856219860536
0.320848122880512
0.309147083586057
0.318284479295458
0.306453280620255
0.313797043093702
0.307205727081983
0.307672889159793
0.300533446908244
0.311415045390431
0.297971026119485
0.305699138432165
0.293736622311732
0.301927303951501
0.293417711199627
0.307612373280721
0.296481093270866
0.295925092506603
0.287369411663134
0.298215326311788
0.284443037506622
0.294884401007151
0.285798651107736
0.289812073403714
0.285811483501341
0.287790440224312
0.282190041047314
0.289671174232264
0.274401880347754
0.286565257628462
0.276021098602844
0.279935795475741
0.274145375786951
0.278543237544242
0.270835790693661
0.283308436658165
0.271071178056183
0.273558230267682
0.271858725506486
0.278420170698132
0.263797726592096
0.278062558051589
0.273713136407124
0.277926876075894
0.262293138370783
0.266664257464434
0.257216999222562
0.269568577287688
0.261795661998935
0.26974763025059
0.259397297040884
0.262199767432148
0.256667667131306
0.264675458932669
0.255557762833346
0.26193475571769
0.256655720586907
0.262761921085832
0.250363446739981
0.260160267523469
0.252290980452711
0.261159164004013
0.251438010927317
0.255454386413035
0.246613706305206
0.258053265207858
0.241429103914912
0.250296027463529
0.24647534683438
0.25091491106271
0.243418274966748
0.251118035575768
0.245557061425245
0.248102846904274
0.244033195899723
0.251097498741701
0.237965713743258
0.244386679890591
0.243346704270753
0.248329544981558
0.244067838157246
0.248860614812438
0.240138762597259
0.247324177838397
0.23721313356356
0.24268940783166
0.237475713110344
0.243850809137292
0.23446014900291
0.244822061325545
0.23737361635728
0.239751392310391
0.23362395962795
0.241496980508634
0.236372123200865
0.24805572966698
0.235001226698031
0.242299974812167
0.232061146692978
0.236400261607615
0.229738323849601
0.238147141901282
0.22626605954331
0.233614599999201
0.230978791026003
0.23714968774436
0.231751824110356
0.234388186126883
0.228149087524131
0.235601357641568
0.229900182252835
0.232285278179148
0.226231674985551
0.236262707140854
0.224488758067417
0.233871362802139
0.220260804300083
0.225032568289373
0.22517783820883
0.22938602991701
0.221465167970983
0.225302958132299
0.215670481049184
0.223893162548197
0.219060204768714
0.222801772137169
0.213641838266884
0.223406883368626
0.214065771582689
0.220041698373488
0.212434080132311
0.216969173638658
0.213622289027348
0.22244360665718
0.210825616921153
0.21559723532509
0.213635824470939
0.218225322463271
0.211405681010838
0.220857226485359
0.209878196787071
0.216734863114953
0.20722076669175
0.212464893328744
0.203669388516432
0.208996927642422
0.206503381716915
0.208853203980923
0.202225488167919
0.207620223551212
0.200289200164493
0.206143458011071
0.203518611748814
0.205736136111078
0.197641299370089
0.208194835129057
0.200988434205433
0.200891564225848
0.193159056157045
0.203814410194739
0.190297304684275
0.199249321839008
0.186655770634609
0.196330988685209
0.193183532039556
0.196212284217587
0.188058619974026
0.193951774157368
0.187984621233741
0.189012927506101
0.185655802056888
0.19326492385552
0.186880671178095
0.191518309406421
0.184245490078354
0.184105487459514
0.182590921126708
0.187156999515551
0.178361910402986
0.189054331056647
0.17838787836071
0.183196525081002
0.17575893034643
0.180871249844457
0.172823381706981
0.181299084047654
0.171039199183161
0.181745522859039
0.173155079397967
0.176287102978114
0.168746528664031
0.174022369043503
0.166889902898835
0.175981599081221
0.167266762349584
0.174220749302031
0.164488858981405
0.171972259694479
0.166701951798302
0.169589835489968
0.169233961755706
0.171405778614641
0.160117798702492
0.168752848935467
0.162674103673975
0.164956743610863
0.162097845717924
0.162162433221327
0.159957132835433
0.16316659419543
0.158981098115065
0.164113527399994
0.152542306974132
0.159393265294307
0.154675713440243
0.15795768433129
0.155431031496228
0.15775351768239
0.154092677715225
0.157032223398569
0.155482371284206
0.154001881951041
0.151890296627284
0.153640553712806
0.146721727070797
0.154052753119974
0.149306525621434
0.152639970545263
0.146385073405626
0.151790474239366
0.147118872087855
0.154715814594821
0.143800895477025
0.149200599901671
0.14274723544527
0.15097743979095
0.143498598955942
0.147460502645576
0.139653867160511
0.146107803685764
0.140844537997294
0.146705164453136
0.140075612686127
0.143224731245356
0.14029946565242
0.143073837029491
0.136925667722346
0.143620302290507
0.138160407570784
0.140427376348702
0.137092613970631
0.143659020890318
0.135270123722817
0.142719529604832
0.13374610693991
0.140279921317499
0.135188728781417
0.139446576751488
0.133277022937522
0.134772866047906
0.131867736782371
0.140817330136354
0.133248394521073
0.138175198536155
0.132912373735421
0.135126290815541
0.128847505949303
0.134609494495563
0.128375574496044
0.135881625201843
0.129976271291208
0.134846325526166
0.128354730085116
0.137716609415239
0.13038536270355
0.1359108047906
0.126757697012137
0.133462432351492
0.12802249700535
0.134346385763023
0.127452273522923
0.135642414703725
0.126569177043329
0.132644001952183
0.124341345302147
0.131684160444713
0.125991757879524
0.13071824294247
0.12363001796935
0.12938431155321
0.125557753443712
0.128082614796006
0.123965574525159
0.129113881047311
0.124326030611016
0.129553046845403
0.118847928264692
0.126226508862405
0.123660488124111
0.126223550976711
0.120128277968073
0.128308844065409
0.121219012122544
0.125843324920309
0.118936571888942
0.123409174723399
0.121127984824488
0.12487490007629
0.117571272042176
0.123213336278358
0.11751418092175
0.123231350417923
0.116381126820225
0.122762527978097
0.11477033176652
0.119378079519869
0.116477695873012
0.120437511885174
0.117177295466128
0.119574330874965
0.116633702083749
0.122006987446043
0.114094300015495
0.116868154650407
0.111874006464495
0.118060562985202
0.112954880347601
0.117447717710789
0.113700846946742
0.117847469488631
0.111334531268508
0.117599225112251
0.108755269407777
0.113925092716688
0.112972721348587
0.117879063990419
0.111109485738146
0.115064864299916
0.110199273852418
0.11346457712027
0.110423145562878
0.115885568766608
0.107975096106089
0.112467572837665
0.108979320893747
0.110057207548262
0.110094923986361
0.115131961367963
0.106638828836014
0.113456673648542
0.107658450526993
0.111471450962691
0.106339100504332
0.111247196656964
0.105556780163707
0.110127758011191
0.106170049127002
0.109387492798187
0.103750126339279
0.108043381348792
0.104084258892318
0.106083985086461
0.104194429107459
0.105013325119855
0.105074561384548
0.104777796747661
0.0973241571887043
0.104324790857413
0.10097868356314
0.102882517657133
0.0952953118195695
0.105398407572242
0.0994497785588641
0.100793559283783
0.0950152784610233
0.101634307881749
0.0928451387587739
0.0971292462844163
0.0932291366279193
0.101421663321622
0.0974055197085451
0.100975222919928
0.0932897358386938
0.0969166697539815
0.091667170978383
0.0985161270364471
0.0930278208132986
0.0968208614701866
0.0895528081041607
0.0976283376290965
0.0912101618900404
0.0959096577581711
0.0902898137241691
0.0960425448131964
0.0906646474478766
0.0939448419226116
0.0870854524688413
0.0937283976769928
0.0894860994494264
0.093545621332519
0.0865744803470024
0.0905936745528691
0.0851353100729487
0.0907087371830898
0.0820797295447657
0.0960778142493316
0.085849650019648
0.0939982127346244
0.0847715382515382
0.0929999202590006
0.0850323392777654
0.0875679004255839
0.0820318360536433
0.0860850686753701
0.0778361357891596
0.0896828497973218
0.0831522301123284
0.0860956130987252
0.0800709141527669
0.084586565299779
0.0799943906650503
0.0882863441239222
0.0802388248731347
0.0884962425980047
0.0783229088301716
0.0856812624903352
0.0738028509697966
0.0840172177879788
0.0757479953305156
0.0854665287939559
0.0784211547528939
0.0827960240418805
0.0744686725934616
0.0836110322776382
0.0742518139437426
0.0813377839517787
0.0756307865162247
0.0795103339843754
0.0747705569351722
0.0797524595597924
0.0741954220427553
0.0785921652009189
0.0719175421305006
0.0818602102412177
0.0756969255526887
0.0778806023937309
0.0755825012432846
0.0790193924571245
0.0705525956119867
0.0777184594355561
0.0729622644175467
0.0790076324545845
0.0688215601648285
0.0782421332553541
0.0742475016845951
0.0807943377460849
0.068320978483657
0.075922438476738
0.0716555553213322
0.0770942412168751
0.0705515674216628
0.0776205906849131
0.0698098574425123
0.0773150790974983
0.0700245906397495
0.0774574296536321
0.0703621757068327
0.0758952200617669
0.0705479591174557
0.0758100034463317
0.0706255281404849
0.0808830838949045
0.0673995594561225
0.0818221035603724
0.0696019007123007
0.0829564674256516
0.0726566250360715
0.0795795687138134
0.0637088023522102
0.0672031429608733
0.0605858622723209
0.0776089486538419
0.0681812482170844
0.0717094556720796
0.0574731230506511
0.0754218651893781
0.0626325440682148
0.0695659667667796
0.0623432883596932
0.074683071024787
0.068604240673866
0.0798386865501068
0.057306419179833
0.0724986080449372
0.0545255614257752
0.0820574539293864
0.0592384274027039
0.076394938294745
0.0646930080096642
0.0801601868654646
0.0552129288349864
0.0703437634591725
0.0583998966143491
0.0740958809775297
0.055040527692698
0.0766290962237801
0.0505489940605335
0.0754726183770532
0.0529481693615019
0.0732466916489651
0.0523416802281295
0.0811493239431352
0.0546064041941985
0.0862065951347713
0.0561811165320062
0.0843706970611525
0.0483075215834624
0.0771622114024411
0.0507439941359674
0.0847665342441835
0.0570943943078167
0.0858446659957937
0.0549667622783232
0.0721296527532268
0.0588372625123097
0.0807611391141075
0.060601261098022
0.0644904539291945
0.0660118414937594
0.0779285410573946
0.0713443921531349
0.053595127536365
0.0752044303089705
0.0576239250824582
0.080157156373966
0.049170543257443
0.0846612164928434
0.0495052674562894
0.0804188292014852
0.0563388277636139
0.0740618333572065
0.0563862886824271
0.0687063550731539
0.0653071608182045
0.0655669437700224
0.0721729382284588
0.06195509265788
0.0708468457444407
0.0628123557034195
0.0665041154029516
0.0624982971976751
0.0617431976296174
0.0646235057878011
0.0588041501448124
0.0630413016931489
0.0620189477114547
0.0624775111742365
0.062593000737599
0.0635862921582285
0.0636717125922786
0.0617088118964114
0.062867951961183
0.06193696290796
0.0644171111007577
0.06133870914524
0.0602260338558029
0.0599556233616905
0.0633407965097909
0.0612546804666419
0.0623263782551205
0.0601970486799767
0.0602636627601278
0.0634854163408097
0.0625651029471419
0.0614206928159633
0.0632573528437741
0.0598977228706944
0.0608284246982083
0.0574732796194469
0.062746915607223
0.0624362438972645
0.0632445773696009
0.0609794652646272
0.0658380437127551
0.0600292015200749
0.0628192003039788
0.0587162196358819
0.0617048691953115
0.0622007315338964
0.0633636341599839
0.0619776959573215
0.0626519947512039
0.0629919967545885
0.0628188474594981
0.0641268338230519
0.0632111020505658
0.0593654301592496
0.0644445625084673
0.0616440670350606
0.0651190180593209
0.0617504650525117
0.0623993674634067
0.0589594601884679
0.0622942637788038
0.059963762578478
0.0604970847268322
0.0612129008064236
0.0639866606955717
0.0624370541481051
0.0641845146747737
0.0608555559435943
0.0627792474077399
0.0582894761437036
0.0628700892638838
0.0592005429832718
0.0618062861185615
0.0583510121777792
0.0654731476508603
0.0590046959018506
0.0614614768402623
0.0586288978825097
0.0626568007945397
0.0600986273704225
0.0639279179319938
0.059389138580023
0.0632724632859676
0.061042793515188
0.0665006222631432
0.0650368055168007
0.0627012025188721
0.0611639858949373
0.0645860034234722
0.062088266457579
0.062524101981919
0.0617279910370752
0.063346589407543
0.0589064569208281
0.0650665687491461
0.059651703212419
0.0622853623133867
0.0608871840056173
0.065145646318387
0.0628804554488271
0.0654702400326161
0.0603000517972853
0.0636350920620588
0.060331625332391
0.0646112563339324
0.0634142788653497
0.0652465041867961
0.0637548570431574
0.0663255417056784
0.0607555876014084
0.0618212708687512
0.0625019756928674
0.0660395134051417
0.0600982223441749
0.0636887932319833
0.0631287539915456
0.0675612349420655
0.0630663589687055
0.0631450170486904
0.0626958825631004
0.0679831694432413
0.0603966672326237
0.0649716997575996
0.0632172377864065
0.0672130602965975
0.061807227869728
0.0656584883750809
0.0640005828218418
0.0667464076596012
0.0625773552974605
0.0650998280083613
0.064652027864367
0.0665058655092326
0.0643011395386797
0.0672751958119579
0.0637812588976357
0.0671824273058372
0.0645668848778
0.0668967257463812
0.0625687378174938
0.0670359350105596
0.064895449908491
0.0648964045711531
0.0613511577044751
0.0664548922293846
0.0658254538290631
0.065717165510008
0.0630655142112472
0.0718625487467609
0.0643880723014097
0.0673137290793195
0.063752079706562
0.0680488351137128
0.063730664817276
0.069543231123149
0.0651684553147506
0.0688791363784241
0.0636463009796892
0.0695578811380779
0.0624545197718633
0.0687157784322635
0.0670774625958509
0.0672355126354677
0.0656474763946162
0.0693976499911914
0.0653959798590013
0.0697031081092105
0.0652092273688789
0.0690213706106491
0.0654053000413122
0.0689722061044359
0.0669985704994359
0.0691178651452002
0.0657623014619044
0.0663673742910337
0.0661229518784228
0.0691569183482311
0.0662378804944884
0.0686640357808915
0.0670537971437303
0.0675908310576967
0.06493826145428
0.0680412138651885
0.0659534910512689
0.0664986568211762
0.0636895764414702
0.0662801957912628
0.0639852147339718
0.0642666885046329
0.0626083064079518
0.0635679542529128
0.0605913268003466
0.064381057041621
0.0614929378098826
0.0670335209776698
0.0622342964488497
0.0658548739376621
0.0626102240897834
0.065823580424138
0.0623603536255263
0.0655769434283158
0.0623545651282596
0.0656938457501865
0.0611487878177731
0.0651334069648704
0.060696109440615
0.0646139566215947
0.0614651200122209
0.0665012361811626
0.0608378792515539
0.063617906696845
0.0605573728880954
0.0656361644839512
0.0623716032313339
0.0642496813005585
0.0603338200612632
0.0643784487488621
0.0621808497018887
0.0658264957369053
0.0603450907673159
0.0646552605456179
0.0579136133270307
0.0640019463449883
0.0608867208139078
0.0634888467916548
0.0630133156491026
0.065496759755501
0.0622253828698531
0.0646245052526539
0.0605315679766977
0.063191005067724
0.0579346273610985
0.0630226919348725
0.0613782385338283
0.0636346201059818
0.0623382984397494
0.0627203556314559
0.059566542795698
0.0616457658064987
0.0574489171409369
0.0632641899119821
0.0578665643682733
0.0618377098507511
0.0574135800329753
0.0646822269075281
0.058324821230459
0.0630617709541098
0.0608805224875547
0.0641069491110397
0.0597273222901792
0.0646656623255404
0.0586857454604056
0.0645321035335181
0.0607895040635866
0.0619149125925304
0.0583043613898339
0.0632876106485986
0.0584574958651946
0.063610866784236
0.0610664682974865
0.0635581070203286
0.0610355178701035
0.0642724324548126
0.0595377890487758
0.0630634311610107
0.0566835309830635
0.0604130966777525
0.0587377022538194
0.0620838239316355
0.0610978796343621
0.0601225036114232
0.0594180508873455
0.0629833235980432
0.0602222422232615
0.0622969154495047
0.0573506969784316
0.0620055307168913
0.0578372358395586
0.0595930491149917
0.0576871912348488
0.0596761476045728
0.0578815336862059
0.0615384255400836
0.0550894513827591
0.0625178300380399
0.0572842976112976
0.0606547601135016
0.0571487524398053
0.0584822262288653
0.0580656954356592
0.0610242474076634
0.0542243670061341
0.0591797452314846
0.057289170360208
0.0601592369068863
0.0569211845875946
0.0612092191882127
0.0561935892388823
0.0581809645980894
0.0570783732779446
0.0567046969103474
0.054529168874364
0.055459243008267
0.0563282595096226
0.0573957659756048
0.0530468920698877
0.0565121677589025
0.0537959985734641
0.0573542207648953
0.0538350540678669
0.0537322426175222
0.0526983840150476
0.0562229841253211
0.0556354297144293
0.0558976056002684
0.0527742537489749
0.0575364887861065
0.0520215827468612
0.0567217632919486
0.0521691629959338
0.05414265465895
0.0494560239764689
0.0557802025998787
0.0519901816775625
0.0540169167989593
0.0505335449000911
0.050769875351239
0.0507552213357231
0.0547422709532885
0.0483606065290095
0.0546962009839918
0.0517162268918595
0.055062224384221
0.0513502837990797
0.0535481504464927
0.052048661031497
0.0535153843904045
0.0486523649647751
0.052048833320872
0.0470269824281354
0.0580606350800461
0.05144416041258
0.052597762492247
0.0488004345292461
0.0565657500590362
0.0478919395199526
0.0533520589813108
0.0483400395219394
0.0524571170337126
0.046830925309727
0.0525201439582812
0.046685852378651
0.0515194122976107
0.0493909309373649
0.0488125791767723
0.0505550516842193
0.0518868641460936
0.0461950983145452
0.0515428468490154
0.0465082381354706
0.0505960311038097
0.0480406108123044
0.0532950110163062
0.0468445555071357
0.0498719666246364
0.0453703746354925
0.0534123379654455
0.0511261504756197
0.0514782862493536
0.0470781279634586
0.0476384391059776
0.0449552975023084
0.0473840429367973
0.0482701174244441
0.0500764554425701
0.0457877880051367
0.0493885142307234
0.046460859818615
0.0496717291520827
0.0460903913901622
0.0487551654820292
0.0436983500547847
0.0495469782894634
0.0454881546660149
0.0492204466278914
0.0461479412132767
0.0511245630037636
0.0441248616254007
0.0478722331686308
0.0461135702772101
0.0482560451686405
0.0446036923131302
0.0453461566673748
0.0623644262025037
0.0495671471500038
0.0476246723512694
0.0457484257318214
0.0447156524670519
0.0488469222671308
0.0442158211916454
0.044519559154591
0.0458943165150646
0.0484046105179287
0.0463466811722353
0.04714927178287
0.0440217160934735
0.0492360267360952
0.0457018385976894
0.0449532074119673
0.0442320977800169
0.046495753528237
0.0443544447527053
0.0478677719270364
0.0463992784150742
0.0544183166057926
0.0503059738009534
0.0426141990530527
0.0490992319614256
0.0393598758932879
0.051202354319676
0.0574743580222147
0.0409723229574139
0.0504866169276594
0.0414029462906331
0.0509948051502035
0.0404409930967906
0.0492801260904042
0.0396105658953552
0.0521954228593795
0.0416483138917643
0.0500583395459278
0.0420198694751856
0.0462589450553019
0.0444513165666437
0.0487358128061083
0.0411732263058294
0.0481571415364181
0.0425870067587165
0.0458121155047941
0.0432986056636963
0.0477647298325713
0.0434185446160461
0.0490551337404929
0.0406983340973828
0.0536698460588492
0.0439203584560965
0.0473269380900656
0.0412196553164434
0.0487407092989156
0.0398017024851047
0.0634498006751188
0.0394275137487795
0.0506742194634011
0.0435632781968721
0.0457922517851205
0.0442288432885981
0.0468944256174673
0.0419889796217864
0.0471938178334439
0.0423343964722942
0.0480674460765542
0.0436583017203482
0.045354308146019
0.0441027363271195
0.0468843219167464
0.0440380223029876
0.0454402798358311
0.0464492861385339
0.0459252538058135
0.0474881628290798
0.0447432172255193
0.0444077702590975
0.0679273215609239
0.0444611608594526
0.0590197485654259
0.0410160693456522
0.0515928526218884
0.041817864892526
0.0513296854391583
0.0396065856657209
0.0540782153019849
0.0411734821043505
0.0486432555045835
0.0402572454118444
0.0473181612440514
0.0380467179776253
0.0503695647119279
0.03943377182829
0.0496307638204628
0.0386383985311651
0.0505969011516068
0.0384471949828859
0.0504266904096184
0.0391374585274521
0.0513682737653742
0.0433418444686444
0.0514630347850508
0.0417063742893966
0.0526128133451652
0.0735905942579639
0.0412374449957511
0.0554721774123448
0.0448909076231929
0.0484383189006841
0.0451361072344418
0.0469573847206601
0.0488319181642867
0.0470208286698159
0.0453271658465044
0.0471439465755645
0.049003117399782
0.0468591062534352
0.0462843883604351
0.0401064367150113
0.0666976298780722
0.05307198499437
0.0498085336065
0.0498403161027728
0.0400826674181763
0.0638522270365628
0.0549842986554637
0.0480752173956386
0.0539663233838039
0.0456682695586653
0.0503899119199452
0.0442896296796955
0.0505796356935636
0.0456984155637891
0.055335531905292
0.0445706269575086
0.0518246320779341
0.0431132716218568
0.0533538836878948
0.0486139546846508
0.0568615090452217
0.0554378787922918
0.0520748392077138
0.0497045168348687
0.0543831455008398
0.047252011389459
0.053629415234173
0.047301543487013
0.0512104282193327
0.0496097926194311
0.065187118074918
0.047342194524171
0.0591672332943647
0.0561908023355695
0.0491528724910023
0.0493261155059985
0.0598739975113646
0.0515717367388969
0.0576411466716129
0.0305121847262605
0.0893589217560165
0.0455301760929974
0.0733739084304006
0.04905226547612
0.0594080774250318
0.0478244973169175
0.0576720365678731
0.042189164583817
0.0610577319537292
0.0595414484218847
0.053148137703485
0.0574332012283
0.0533868403850635
0.0675311547247965
0.0550691901090186
0.0578776945915831
0.0561291340409666
0.0575519208016423
0.0539633842424245
0.0703511340418394
0.0416976099470126
0.0722361982891288
0.0806667673454508
0.0582299402764616
0.0741804727827017
0.0459448838169392
0.0917892842300137
0.0628587620138171
0.0582875898528029
0.0614635428928594
0.0544877846592182
0.0649553737651712
0.0461225613276471
0.0767576912659531
0.0727029848929353
0.054727182850276
0.0744563933212105
0.0525491030864059
0.0745263733833686
0.0747192908206333
0.0642918522968478
0.0637416787294802
0.0732270246442093
0.0586172972301441
0.0725306725936263
0.0980649615937461
0.0563496178412388
0.0990327700009573
0.0725307330447378
0.0857103605421806
0.0736610660346748
0.0792801957356535
0.0734131610266947
0.0880432299139977
0.0768002096017262
0.0756286954492156
0.0680153332487941
0.109506335686951
0.0772701959307516
0.0833081807473288
0.083029168582124
0.070641825225872
0.0914371260668662
0.130157437711945
0.102808315419567
0.0937129762232479
0.0849169469380912
0.106222778771663
0.0946334319843024
0.0890210228668234
0.0928155223771883
0.0870352384770444
0.0898885808646979
0.0928632760697753
0.10091870822832
0.0973083489044002
0.0928527489051826
0.102828298010032
0.0858375051096884
0.115234372112323
0.119070453396631
0.14314013861274
0.105528973436825
0.129948149435655
0.129208739200189
0.110724064668339
0.117200168820722
0.104612848041131
0.123464928668362
0.115566412048374
0.120640765875897
0.114909916291785
0.124755406658114
0.143798395373611
0.113810629392334
0.158922071873571
0.120399450729455
0.144797305416154
0.109508062011668
0.227717510943251
0.185412757892835
0.140779887487851
0.18087557871858
0.122606172927902
0.253179052817768
0.181612096935813
0.185721698186073
0.186060733798422
0.19737232825377
0.200490225402228
0.214002288885081
0.215521514035491
0.23416889410042
0.228693708873829
0.234766284398659
0.219690215137412
0.318998868294083
0.275966047245214
0.301426896716535
0.264022345276001
0.294609641317757
0.294592794486481
0.302022046821948
0.295482115131645
0.326347420870141
0.283964150609469
0.389279149751017
0.338147568702186
0.358310664392504
0.340856815489355
0.390146795175797
0.36107426395542
0.388210600562442
0.433828854994363
0.38067347083152
0.416913787159221
0.39263744391931
0.424734624442844
0.410771571543435
0.455383528465827
0.461504365146353
0.443427240111071
0.461758412398738
0.456220867872514
0.474963072779443
0.466089310889792
0.486672767123325
0.470786239648918
0.502277405977169
0.499059017116726
0.571825314410554
0.544168154396673
0.477370918112596
0.508380565198481
0.483154325697833
0.520158695915088
0.512935085173505
0.502059694166961
0.535867708009851
0.486423584018316
0.50542482072842
0.48018235593461
0.504522556764384
0.49011551604756
0.496951712610612
0.485597579652015
0.500845653727996
0.516058841036847
0.450031437573344
0.572838602129236
0.47260873043353
0.484778622470704
0.478572046665123
0.475879581897739
0.472256259407931
0.487076368360504
0.467236166172637
0.502599363322994
0.462592891316476
0.464300098558876
0.448283891070678
0.456287365070587
0.475343704838826
0.433875751084899
0.448504825627625
0.431784151877388
0.421735664613749
0.430841018473475
0.401777558791046
0.488997622929768
0.41707294201632
0.406919667683242
0.40868370969634
0.391959319775587
0.407402012846641
0.394052145183957
0.393600369796089
0.398168364307466
0.385620295985913
0.383761743722362
0.384780478336916
0.381632512998786
0.377632926854514
0.370491190179318
0.383437806556962
0.369577088823108
0.377341093869487
0.365688180582413
0.378757039163675
0.365702506352697
0.365752486678842
0.365951250520097
0.370978697527932
0.372219249806318
0.372411777303458
0.366576890454003
0.373500456040629
0.364484042710337
0.370818887977009
0.362713200919815
0.373142779064717
0.362915031686423
0.373054657301726
0.36232185782504
0.369703045724502
0.365508756171344
0.372605927110558
0.357372135936281
0.373671997324669
0.354975789140286
0.368748086805955
0.357059801161384
0.364358150867131
0.403165478484376
0.349034375440872
0.373109113120664
0.352529729931913
0.364810969031721
0.341470372946614
0.365347841759414
0.38144375658096
0.352241942343724
0.356483675551372
0.353445071779059
0.348987343497597
0.355909703495785
0.346691002211736
0.349879751150101
0.344241716982384
0.317085753492024
0.440555465238031
0.324803119711386
0.438975222314756
0.347229507736235
0.354843282224381
0.31803607225689
0.392930733873333
0.339192718558881
0.338245673960236
0.344979270779704
0.355080516312709
0.361948648717036
0.332523599358995
0.342146459192304
0.333632657673309
0.333514737485429
0.357586676417474
0.342703073537729
0.326825004172483
0.369022101209638
0.341207876148052
0.356328065422842
0.378553851922175
0.352790291456552
0.323987739702895
0.315658725505196
0.321555905349645
0.299268212353569
0.353037117992277
0.324249002469584
0.3066521415993
0.306480467387486
0.285462115953114
0.302973604804599
0.289965486345224
0.310021323285904
0.275507400142706
0.317613585254662
0.286084698877329
0.270872893258675
0.304373765760999
0.279765228603498
0.324096915117148
0.276086977992604
0.278583370383593
0.260713708283015
0.312738416851364
0.264448182744943
0.273882187144919
0.260340397521925
0.248226730051431
0.268032874399105
0.255182023388733
0.238209816147
0.265480886887372
0.238537560451548
0.2842145406834
0.281030838241215
0.276302723319697
0.248208241754008
0.224520172224176
0.225707471068708
0.227670211783883
0.221239276881296
0.227866177448426
0.20944074984681
0.258735864034119
0.200564101077099
0.260230321273004
0.232814609938246
0.223675648158284
0.226867603760869
0.229742136797542
0.225580720127666
0.251579354088021
0.249595371073881
0.254080576010128
0.220699601950197
0.265115308617771
0.233085561652776
0.25308809981382
0.239459047289643
0.253560544386892
0.247288604315016
0.264397243581893
0.263048378535516
0.272945713815985
0.266102355159684
0.290912616561088
0.267600831886012
0.330370897450624
0.285262620922545
0.305180299703146
0.333831206295773
0.335996762911697
0.346381896954855
0.321951220773245
0.341444454375601
0.337928224438034
0.344200600082053
0.352895506019088
0.34058911280577
0.394096465364219
0.36462370379723
0.370541926665605
0.374861477658172
0.374857336803801
0.384681107537287
0.396875321169137
0.418002575816507
0.381114380600228
0.471671561358048
0.399666824598055
0.41107435619686
0.402669724430527
0.411163231601817
0.410869124214956
0.40009827089553
0.421837752343145
0.408483800715162
0.43849003772349
0.428119700135998
0.417913402297571
0.426198497091777
0.421736576364509
0.428955007841624
0.430376806647653
0.429962588411907
0.438088204057208
0.432456399489839
0.451271031691245
0.422537260952823
0.487953664031384
0.481624896768011
0.441147377213967
0.471516740802371
0.455999107022927
0.470480734411334
0.455984529256373
0.474180662065847
0.48427799122943
0.470634512183278
0.48003169690624
0.482364246798573
0.486145839563162
0.483468457077179
0.49976949438621
0.49704922383073
0.484575711232017
0.509854598381605
0.463703864487745
0.570108019108972
0.502642217951903
0.525266261496439
0.511465190546363
0.519154053406295
0.51129755713121
0.516080490215512
0.517097472659064
0.518050396120236
0.522576802426832
0.523251486725944
0.520660387197577
0.523826739157545
0.52602909164262
0.51351415669521
0.535851846811176
0.525906620682139
0.517316681023963
0.523168157032319
0.518647312881576
0.523810587286888
0.517164136281876
0.539127426809649
0.512572850634753
0.526343726675556
0.513774818568667
0.523642925062204
0.535045751548859
0.51863508383386
0.510757115723841
0.522919434517776
0.507379734487085
0.523564730587368
0.50657234407796
0.540259844226859
0.522376432423293
0.525434919983732
0.525513411472695
0.525570732283823
0.52809345472141
0.53038488451326
0.524345493912964
0.533535972223462
0.529931553769712
0.538302680773244
0.537391063469085
0.532783381394918
0.541354462194354
0.540045657856277
0.543007650457496
0.533569750714756
0.521016105696783
0.52667102312766
0.514903830524538
0.529557391676142
0.515056445350841
0.512340455148719
0.500813315338936
0.504359847956235
0.498228759190735
0.512507471164921
0.503683575925309
0.482789880634619
0.492230931173582
0.47216612026657
0.480877869005757
0.466879476330504
0.46961017870336
0.462539102720468
0.463733164555098
0.458616108873206
0.45857913069349
0.450210397130831
0.451042226103543
0.451241932859575
0.457397399193212
0.454586675805305
0.449599457439456
0.450527019165944
0.447899863163536
0.449166578627372
0.449598548590465
0.444770812512106
0.443883910980676
0.447488420492971
0.460216005767912
0.452699465329705
0.452974684190724
0.440204409570843
0.45237000814613
0.433794526922974
0.446495116911647
0.442551535444472
0.443887430007387
0.442115998922338
0.439586346763946
0.439360008070795
0.442604799163198
0.441045176435563
0.44144608535018
0.440754515838152
0.438613368682855
0.441245252084026
0.439787471925129
0.438823202882275
0.44243242533579
0.439805018376752
0.443069954186524
0.443472757552418
0.435593915799788
0.446466037617811
0.440219644989082
0.4418093717629
0.442309423506778
0.442898762310668
0.440807216682726
0.436228185606779
0.437365821224683
0.436338821071575
0.443005556307554
0.439040916381505
0.436888361421443
0.43817925736755
0.436396326808029
0.426939516356573
0.427524932932031
0.42854688529588
0.424716687175625
0.42009905185921
0.414978880492308
0.413427840309564
0.41130875429221
0.408316992643627
0.405778382731911
0.404129712220004
0.398281956407543
0.395748382616793
0.391435810095328
0.390260615965814
0.387632947720934
0.384722086252184
0.385973284413151
0.382885598551995
0.379419782415803
0.38072597559449
0.381775627654846
0.381389639758802
0.381215773499558
0.378322019143395
0.380562393803282
0.377761913337603
0.377273797477312
0.37723961572979
0.37957407675549
0.386261240305454
0.383200749454924
0.383146963987388
0.385205891723402
0.388833297842529
0.390414175402789
0.385478743911263
0.388386601795734
0.392091881931707
0.395378376875688
0.395735943112113
0.398888917301478
0.40115528544852
0.404020336895377
0.402062294875056
0.404088100703667
0.405181084719308
0.405393211248846
0.404109338802328
0.405800319454694
0.40138773752683
0.404616894736832
0.408501212843773
0.4048923463898
0.401658928387731
0.40276593613269
0.400209897724266
0.397500297355165
0.396483243756084
0.398240073087092
0.397212381830052
0.396910376608672
0.39839994709912
0.397204125226591
0.392414310609741
0.390927231356708
0.388678995928001
0.391310215307512
0.389973594327842
0.384850474247005
0.384540939808666
0.382348130537445
0.381732576159794
0.381393117389932
0.378952571784592
0.376956551691561
0.376112843481412
0.374575167545033
0.375403324643829
0.371870122137054
0.369975929945437
0.368809090015968
0.366084379659318
0.366764896044889
0.367326467993268
0.366593810872964
0.365261229683989
0.362860699908371
0.360577250233073
0.356833735630434
0.356836079044427
0.351749520248678
0.34955869876591
0.350489343047371
0.34692811706446
0.345970388427321
0.343592951564449
0.339430072158316
0.33560940221185
0.333312706950099
0.328733066388492
0.326586180067491
0.326097762180992
0.325024493437513
0.325949604799442
0.323162443617618
0.322287883416556
0.321376127004783
0.318932654200296
0.318388795511071
0.318351606683296
0.320238405310072
0.318162591370265
0.317572996531854
0.312573558340511
0.312802299929066
0.309351024846639
0.306985074999128
0.304440458757318
0.298502430341072
0.297421549060945
0.293110570253198
0.287569029342535
0.287324128357789
0.28478208847789
0.28391652415388
0.28278060623988
0.283596884900523
0.288939244669948
0.291311378411827
0.296377259116812
0.304062520992247
0.310551577667878
0.322261659230305
0.331573236826001
0.345352452828228
0.357262232834967
0.370236549172657
0.385296670598154
0.400798282183531
0.412268008668888
0.430616253032821
0.446979476453413
0.460208091122733
0.476750722410319
0.492963486083332
0.502208318673533
0.516087791382782
0.534279307861379
0.548490230291051
0.562495471851698
0.574413564316526
0.583935805034927
0.596959995169305
0.607994644197411
0.615471052898387
0.622716141573279
0.632871263699217
0.643323927959249
0.653570046279897
0.661563418460163
0.664959871314501
0.66922236986686
0.673653813496127
0.675025064243698
0.676169238765701
0.677058669128293
0.682098611298007
0.680355370434009
0.679793143941808
0.679247873310433
0.68015550568629
0.684040353428335
0.681041483784854
0.686239966538285
0.687777073740462
0.693282644712307
0.696795999451048
0.691205060811129
0.701928850295587
0.708733374144869
0.714859987968105
0.722833679514457
0.725291451190876
0.734622896873764
0.740352541713479
0.740774214417754
0.750888214257182
0.754998887905517
0.765136032103328
0.776571942794794
0.789084118238404
0.804890251424506
0.813014133089434
0.827622974785247
0.835345829258777
0.842372043828773
0.856146217079584
0.866495797532858
0.871591084437911
0.869401775881247
0.871229539821649
0.880639283399356
0.88586897557972
0.881572917685075
0.875733317580755
0.877978290292708
0.885555005627044
0.875210412353251
0.871890250985114
0.871469453476508
0.868720043759903
0.86920030348314
0.87578178886352
0.884639418120209
0.893917357219293
0.90216027939369
0.912305710670894
0.932522328193122
0.946871118425866
0.963552138916679
0.975874263625808
0.985575951976549
0.999697815584426
1.02172040509396
1.03681864410038
1.04877648449166
1.06011821420339
1.07852647658643
1.0928182975591
1.11530028774917
1.15190621853176
1.147279097108
1.14972386357689
1.16799928636375
1.20859647514331
1.24066001504425
1.25475866958746
1.25576793414015
1.27243675453116
1.30838975420836
1.32400927177049
1.34299667039261
1.3616731274708
1.35302704835631
1.38215759976717
1.427618804848
1.42677200091311
1.41420348724814
1.42057652538117
1.45825101349594
1.48646984023519
1.51967721243568
1.49728043871572
1.42405093523648
1.44350019842637
1.4463860219968
1.45680834432289
1.4765129099747
1.50329426783411
1.4526995079038
1.44521667811274
1.45221194354764
1.41739577488153
1.45026258962826
1.47970887418521
1.43684718802712
1.45808537662839
1.47404179142391
1.4623499884383
1.51330317452284
1.46945157410516
1.4727572487673
1.54124712047846
1.51700929622306
1.55936545048342
1.5514077293279
1.54687647227094
1.5736277355653
1.6259061984087
1.6201185031664
1.57591301992465
1.56815368572397
1.57790249130393
1.67287078453066
1.61389255500093
1.55915761567985
1.65084198094888
1.65040841047911
1.6447038002306
1.6473943414938
1.63200545417429
1.62729796039933
1.64043281733635
1.57461168560812
1.59111125953026
1.64402606186807
1.61881103891242
1.62576571186373
1.62619616543243
1.6049091502943
1.60744607141462
1.6252832937055
1.60217978135937
1.57688000843031
1.58999569765908
1.56198904229672
1.50868259017313
1.4639514459115
1.50297619231292
1.48040061056911
1.41620971758348
1.35944096760735
1.30977675299923
1.26323627938265
1.23560153754536
1.18249783527775
1.1374908555343
1.09652186459372
1.04857250313237
1.01980204404036
0.998249417730146
0.952769275833622
0.940409049140494
0.934613250457765
0.911669009562906
0.912683702462276
0.90812147385757
0.898106511352426
0.882799898105428
0.87782930046179
0.874142128395637
0.857703172204864
0.853213474408816
0.846065943578468
0.827890450081356
0.819159846316753
0.817908115844128
0.798019084661845
0.774561739545624
0.759345400834854
0.75101572008478
0.715443248500435
0.69951457858036
0.685554987553074
0.662170261600831
0.635034238732087
0.608415089378072
0.585629407094866
0.558215185941904
0.535507647024975
0.512841846848936
0.482268431120316
0.46380599861182
0.453452054946374
0.42981930349315
0.407679282343678
0.390664077741819
0.370062171976406
0.355526930714283
0.344142622280171
0.334879291123702
0.324986401696781
0.315307836852949
0.307706262035639
0.302824519095768
0.292604118963122
0.285574280441494
0.285983646821703
0.281932555845256
0.277042848456236
0.274812771264398
0.271460207954471
0.276064953253355
0.276843808523425
0.269120671454035
0.274619040945426
0.277045085772568
0.272839859538569
0.27702296274845
0.283982977256507
0.279559559222704
0.278131051484533
0.283366922568732
0.282095106304977
0.27700120046844
0.28152858610818
0.278698388396875
0.276992979872114
0.279363292579524
0.269749449641499
0.265622777589106
0.268850131027909
0.266851538786011
0.266432194831461
0.260944967425752
0.262543488450816
0.26120157086234
0.259865856039166
0.258995429462206
0.264540742101776
0.269652916292804
0.266071483622019
0.26497087492747
0.270874141821415
0.273385765838417
0.278772821006835
0.278351164539101
0.280001957531325
0.28244585703387
0.289069619041514
0.285487019692097
0.293281388368373
0.29355927667212
0.292609261767954
0.299251161892056
0.296920614536061
0.299895511836297
0.300354873339217
0.301959529022551
0.303407528008479
0.300613538435633
0.302979741879232
0.306332257139054
0.311568123874432
0.311309516542693
0.312849078352896
0.320568784408713
0.323123356434489
0.328634429812066
0.332737997543283
0.339047169354416
0.354366347840509
0.362194460675997
0.372043114296733
0.385735350311773
0.39081414174889
0.401137332902102
0.411222835145912
0.409859317994281
0.419047145572676
0.417035730715668
0.414080076532528
0.41657649401503
0.404401581876512
0.39862829386896
0.389074677170888
0.384372963866628
0.382243988972853
0.372315174695465
0.368714533638914
0.364095420410382
0.368020543360935
0.367925824876901
0.360859015319496
0.359589948192244
0.363788826310286
0.371272196919698
0.375019097328519
0.372996621188393
0.365480693287916
0.370770266479802
0.365629574133808
0.359513469542963
0.359250987391706
0.353971324050755
0.348354488998027
0.339880952524213
0.338010334053565
0.344219096526106
0.328748140736861
0.32925363013609
0.327605386780593
0.31660802255574
0.319951894003858
0.326255578391911
0.311540177179535
0.307782174389692
0.317596679338255
0.31978985814862
0.314285834738712
0.310013862189809
0.310316756714041
0.304169898222343
0.301755096961236
0.312519867076846
0.296372553439901
0.296905951912731
0.300596956480559
0.302153520768618
0.292254601888811
0.292708511951821
0.290633774492635
0.292895829056131
0.294875996640257
0.298586324939
0.293784320719198
0.290740005748671
0.28475311648655
0.287302959088551
0.282060952254288
0.28701051812755
0.28289862378367
0.273035132208103
0.267703206076855
0.275514765473448
0.2764520979583
0.272770217940916
0.273649171974683
0.272351383704421
0.267790760379531
0.279847783875659
0.285291081403426
0.279318481279568
0.285544689544434
0.284443340886388
0.274214276444318
0.277748754540563
0.285234365915269
0.277266756117049
0.289442063042111
0.290681406190011
0.288025559712795
0.289197011877019
0.297289366410498
0.297645511917874
0.293244849674451
0.303292827236212
0.301324635645985
0.308901469406118
0.317920918324519
0.309297893984413
0.301902724526362
0.311925533976867
0.334573589450363
0.341565018167493
0.311860662130791
0.334024331944259
0.342578828281461
0.342019044243538
0.355747634670073
0.369559686003292
0.371354288660003
0.371616861307117
0.397663231785397
0.403896684479541
0.41815319888843
0.430713106107402
0.42802187164487
0.451506232657351
0.46366648122563
0.47874688249613
0.499842460643724
0.492175916297153
0.486972969904717
0.49731653527452
0.510316479739322
0.530409346692457
0.503753930359634
0.528182731733514
0.502132513284769
0.495818987381949
0.515256099984204
0.497024067438706
0.482909276439644
0.506117844248044
0.485324835357428
0.517068882884004
0.523297844169412
0.49878241642799
0.494110431663982
0.489356873002637
0.467952844565152
0.489415955871555
0.474573269341839
0.473124909258149
0.495169161308632
0.483680213312886
0.467892443481659
0.487788962070704
0.48879132875883
0.457777947987776
0.448479637247934
0.461182595701022
0.436619042305805
0.428494073109591
0.466034263988425
0.427247842588831
0.431113738103842
0.433510066303478
0.423007838243206
0.43408799595762
0.434886133619119
0.464640903327519
0.445440227270941
0.455735752993706
0.40130688343135
0.435074662583327
0.445838880754651
0.440989496416567
0.43777004388145
0.464939692987821
0.436559608648667
0.490152402824287
0.4644325563264
0.433944474115161
0.442237598328962
0.452910673364209
0.465406561379237
0.45060946901138
0.41885428843717
0.434196338859664
0.480026757080622
0.472254271755234
0.471203493446535
0.457509905442507
0.465840910277233
0.470497140311783
0.456117654280314
0.497894895226957
0.476478162750045
0.494684325954435
0.500797413021021
0.525504969937207
0.500546645465914
0.492417260062393
0.495582423566231
0.558029737974386
0.527570709932739
0.485430708841224
0.51194543133941
0.569136090629244
0.548608895384108
0.558708754894451
0.541110516833555
0.625667850901911
0.572071208473526
0.598307546807711
0.561104197274753
0.661700691435235
0.609909635252434
0.649385405430487
0.689116906028558
0.698299413480398
0.615977984312807
0.617777743332219
0.642508245524977
0.666417041922969
0.558041556073874
0.666289868530812
0.541863400104699
0.613458593191407
0.647278246260329
0.63420766571889
0.599432339708264
0.687628354007682
0.564297138886706
0.501384684445073
0.569675597148505
0.637234520461401
0.649826359777549
0.589440323516023
0.603725208656604
0.642862188069073
0.529061148523089
0.731589585296323
0.598616195315578
0.601617014607818
0.606400326175643
0.617642166766188
0.609981958129688
0.579545463485368
0.660554377410176
0.62711281265385
0.54054528000125
0.474538328672973
0.632324354867415
0.486592521327799
0.712766639704185
0.706956010252911
0.518579004005325
0.687897674164313
1.19357565017575
0.725887977522088
0.542710772503794
0.659026899827605
0.636730481741828
0.893934769841846
0.504824969950771
0.773489468383289
0.667132556979266
0.606196277180546
0.623621243765857
0.713560656397535
0.637274338451133
0.725335746602625
0.475080174850202
0.914405239646585
0.596892295800424
0.434793278812603
0.718035257473146
1.81228432134698
