3596
4000.36533379555
650.420452594757
1
2
2
0.0885530055299945
0.0765082309255844
0.0778105583432896
0.0772161550544754
0.0842396995456638
0.079468373812289
0.0759657074489907
0.0838983579911078
0.0775589046384507
0.0761063421932248
0.0835262369976567
0.0830904405508611
0.0813218636793024
0.0801447124779136
0.0697730382944206
0.0739123139872415
0.0878014829572376
0.0855908020884893
0.0819196771786551
0.0748902175078277
0.0795717836088784
0.0835723633906334
0.0779494653237516
0.0817944317235752
0.0763333049739494
0.088452841978204
0.0775385415925563
0.0758200191220044
0.0821400545636314
0.0761012232926227
0.0805529423181754
0.0831051133982947
0.0823128901886256
0.0845528353169202
0.0843401481381084
0.0764910900845235
0.0828668433174975
0.0801224955707509
0.0786465883009889
0.0840312981692222
0.0935975869673982
0.081053224988437
0.081863239820626
0.0797660482648759
0.0718704761023766
0.0802533453903478
0.0847686796294631
0.0800273822715768
0.0766367088949182
0.0805376733830585
0.076973765397923
0.0720060205244363
0.0840289613566972
0.0935444619642484
0.0809102725831072
0.0866421037371267
0.0779394121619899
0.0725971554421102
0.0791912551218049
0.0797971007890308
0.0847784527293009
0.0884062454235096
0.079520588301618
0.0868790775580541
0.0740904180975188
0.0843528274386395
0.0704462818446728
0.0787874911573204
0.0628128086877116
0.083260383727876
0.0633938254917712
0.0843606469758615
0.0825873505179885
0.0836505164054854
0.0716428801612278
0.0821561255986246
0.0748916491953269
0.0768742977002723
0.0725817769598603
0.0856370953041044
0.0880143951266583
0.0791598062960833
0.0725263686803403
0.0721306685537051
0.0753186631654814
0.0888063481348417
0.0641342769744624
0.082034020400706
0.0846260228393713
0.078433658691553
0.0730249768992755
0.0683689772008391
0.063984281008879
0.0732593530925872
0.0664897061596782
0.0775813169574725
0.0743012454492089
0.0787341406284523
0.0721549760005677
0.078318271795367
0.0892093489500486
0.0698058256044301
0.115202912574132
0.0519889811682732
0.109021484870635
0.0842663042710023
0.0562486789499457
0.118887928028146
0.0717939991329025
0.0836988132431018
0.0650226418685249
0.0776662266442885
0.0584062028592922
0.0890563872117327
0.0527088274792825
0.0874278773752519
0.0939941452250406
0.0767024063502625
0.0677319417274407
0.0669694268371578
0.0595959480914817
0.0894324478032511
0.108413092270294
0.0685370893940389
0.0911879511373244
0.0728435913034812
0.05959904115729
0.0918889261012966
0.107838262293992
0.0751577919492822
0.0766991250534564
0.0703410846698172
0.0676147361839141
0.055797784111811
0.098598610227929
0.0729140689256999
0.0760918193030729
0.0524684402081468
0.0819455513831058
0.110178302420831
0.0773589381100871
0.0771941819903916
0.0523133866444921
0.0692141040740032
0.0923039151638629
0.0758059711331397
0.0628110365108002
0.0751250630267701
0.0777694676420502
0.0646470239288612
0.069494685704397
0.0648156501776079
0.0719136213959527
0.0779872526155557
0.025890470032113
0.0986626888484497
0.133970697517576
0.0629038122522523
0.140670211666794
0.0621196336641469
0.0875667489458878
0.0532924753551472
0.0709404780081492
0.0640666759307181
0.0720321878543973
0.0571706517247689
0.0787511115660599
0.0883588908471743
0.0635058193105492
0.0772108843463952
0.0920760579755961
0.0784129564071196
0.0497506900112897
0.120712383849658
0.0800660924963658
0.0562233701729355
0.0974776144364184
0.0818112142974993
0.0659816312358372
0.0591855917402605
0.0938696792485398
0.0661565838711205
0.0797048248622423
0.0672526265806264
0.0685280180512386
0.0799310937409319
0.0766790229114943
0.0621187123315814
0.0795166836527355
0.0468495154969036
0.0743117254352522
0.102486811710186
0.106431388719005
0.0544520869713132
0.0848844562648492
0.026946975055501
0.0927044867689332
0.0865562957266313
0.0604160944750289
0.076550584198592
0.0650094357145022
0.0682581228718571
0.0694688655691535
0.0618971170238197
0.0682850794664501
0.0395046477152049
0.113182645491201
0.0754270732757587
0.0729501667898271
0.0627927294380706
0.0741345358569292
0.0514879543345167
0.122971198904278
0.0983362594667522
0.0672106910012324
0.0713925701256189
0.0635251854508393
0.0733929907725944
0.0848910508884965
0.0711015620861009
0.0717339914680959
0.0674055507297225
0.0624297650948037
0.0675071765431038
0.0670028749980098
0.0671122301101864
0.0721379400005181
0.0668897977977984
0.0574189852487201
0.065118000477411
0.0823893418031501
0.0714725556354261
0.0689362562762313
0.070722475711749
0.0636984509371118
0.0737019010216513
0.0842410073497778
0.0653497648477315
0.0737625104247687
0.0571657835720593
0.0669159105910244
0.0663006688957355
0.0804420302268634
0.0681913501441895
0.0757779054249483
0.0481510214379415
0.11192840712217
0.0724715303081447
0.0798298128980801
0.0510354115233373
0.0835796930216187
0.0839186456168876
0.0712169066525859
0.0762403943574961
0.0659470063879601
0.0663737385348546
0.0652409964320691
0.0945767024040124
0.0754832408159547
0.0621631383664932
0.0820818827689794
0.0876527128244887
0.0616856180579757
0.0701510193239058
0.0421594401573248
0.142690782426019
0.0787318870921511
0.0565769804033574
0.140947021317363
0.0815124123082223
0.0712777100664033
0.0742216009261056
0.0236608417915454
0.17230184382087
0.115737316150027
0.0753101169985083
0.0733542133523265
0.0933867613636153
0.0755526136287922
0.0765579555345746
0.074782151629211
0.0726590119255278
0.0993449094834038
0.0769335762903259
0.132210926922887
0.0555830015326278
0.100692734633924
0.0990023010911076
0.0780924022660057
0.0860000911933235
0.0761574319073256
0.0740512276101284
0.0930861409464392
0.0897141571548773
0.0796437352901391
0.0851181371338194
0.0646602426818746
0.103240352374741
0.0802624828530036
0.0790907016855265
0.0718170884733744
0.0981559257024701
0.0729596225601426
0.0853208591063992
0.0730710222888856
0.0871417030035445
0.0779456662414215
0.0713720313316335
0.117390271596701
0.0917306423888271
0.0718464945230127
0.109100989934786
0.0811207415833333
0.0823325407345821
0.0738196823888458
0.08999474789633
0.0801884040664737
0.0864763105208618
0.0725543991982837
0.107624162881736
0.0889729982507795
0.0895183909691933
0.0843947841605041
0.0827671645711536
0.0861402557833215
0.084729668685872
0.0861294677344069
0.0795143082292013
0.0849858307738521
0.0833337669990512
0.0945719475778322
0.120375798207253
0.0606284570835188
0.10387552104784
0.122874618353295
0.0888358303089476
0.0879652840051347
0.0928759507513019
0.105268419794217
0.0850165740827446
0.0982911301182017
0.0928459502146755
0.104518338052435
0.107491975151137
0.114276983159101
0.0988578418095424
0.0961945157325656
0.141757832353217
0.153846913408625
0.115488670053415
0.11235800588827
0.0851997836197531
0.127291595211934
0.139893039493522
0.107173676299912
0.147672692115124
0.0965877992879954
0.124187449203238
0.109700094451009
0.12310105282275
0.113903774412827
0.128658698746753
0.110740754107798
0.123440756330511
0.121467755553106
0.131300280455223
0.127673293133237
0.124207303373239
0.161403059875779
0.142920793923766
0.12628820054111
0.139166767208309
0.124103284860344
0.158459780626062
0.150962811838129
0.179683257158494
0.173356169902799
0.141631937297497
0.186401932474355
0.142368268473387
0.162638526911265
0.144167567357186
0.160164782954097
0.16040383342508
0.170383757927251
0.163101035222026
0.173629951670674
0.163314563630506
0.180811261433609
0.161723039792091
0.176393935925258
0.170551108671499
0.203724926374973
0.185060028207506
0.187261869073632
0.181009931535898
0.190612141367024
0.225896685949837
0.233948253766325
0.208296603011175
0.202469088706299
0.210184635563719
0.188914610986492
0.213645702903728
0.219093545571179
0.222893931972894
0.19952767894144
0.247754678085033
0.239225281297489
0.228542832544497
0.251618426117904
0.21166221094929
0.247078003057025
0.236951700041508
0.244434998096082
0.264386100011852
0.253486960593271
0.240707439374419
0.274710734055376
0.27328467146917
0.254972545663626
0.295417546997918
0.264489423450359
0.276799913960855
0.269517668004563
0.284813106104401
0.267969889285288
0.27875784625681
0.28445751927657
0.292198811531495
0.302827588422156
0.294933562952706
0.290002957705754
0.317555587986523
0.307213211763633
0.310593389126774
0.334050328022547
0.29711643631319
0.321859884822846
0.311750879614839
0.328665756507029
0.339105178048764
0.349086500481721
0.368648268487871
0.33817079236876
0.344325721560158
0.340735876497232
0.349313132716253
0.350125627412187
0.373021399187509
0.381508759222862
0.364362196877265
0.365594363830627
0.378607742722541
0.376727472151257
0.372886100839222
0.403390641318443
0.380716129129394
0.40265877537223
0.399901656287139
0.403504791727682
0.405750539100858
0.405711744203432
0.458803865854527
0.441074448878037
0.462097665763003
0.417433806329722
0.44075194119978
0.433626957551624
0.453541398189128
0.451767434220086
0.452402355568994
0.467197845166484
0.462150689913925
0.460540376229634
0.465724872002244
0.475548122141247
0.472862939052809
0.483408233664807
0.476578750586343
0.500077280245788
0.505469409116759
0.493969545547884
0.511815718331542
0.505646296645363
0.509778587297779
0.516247552551022
0.517265889773373
0.534544988388143
0.519317774271521
0.547630600045608
0.560883081642187
0.540614550545634
0.553974414027166
0.576324224056632
0.557795979196542
0.589463801011486
0.586950869819658
0.592404252392708
0.569673195918106
0.60077696431178
0.582555477005537
0.607547339534649
0.587577929680629
0.621120867115257
0.629926863540991
0.643468957260988
0.639546493880316
0.619968514692633
0.632860951497873
0.622054183897954
0.650659425747949
0.65553126294776
0.638339558559541
0.629228883825373
0.651688059453793
0.669160273854165
0.693575525529914
0.669201207773155
0.680929323968031
0.695382827006754
0.665045025749094
0.719593186552384
0.698490827800581
0.715663100829757
0.724439729189988
0.75003564550696
0.705550450276793
0.723995760422101
0.771386579090574
0.782642497170704
0.751188802667713
0.767336746080228
0.771177989378509
0.74069043483494
0.765771375960114
0.793993779549729
0.738619682983413
0.768775330770926
0.809944701764352
0.805516741231869
0.784353769630801
0.80671537384612
0.799792794012319
0.819410935953256
0.823553438750154
0.809028743478072
0.810159133398543
0.858597937112629
0.821174061118738
0.880936076066948
0.837685292473203
0.851152593135904
0.850863970686995
0.858238663147181
0.884740623799324
0.877655751714475
0.864004807516208
0.867273054850566
0.912180483575396
0.943204303615007
0.883856414888291
0.922854276405432
0.919193626245424
0.877287034423915
0.912777809715361
0.906624577809124
0.871447543155884
0.888059766510985
0.922704383161314
0.965951588812803
0.922533988028209
0.977443600267475
0.928075277598549
0.992326938868909
0.994203959299306
0.961417830973969
0.972587240759578
0.975146434414669
0.954105013637734
1.02232754027881
1.07446725306039
1.05371433127881
1.05120593770935
1.09194234832171
1.01615097433606
1.0498606022102
1.03150300703901
1.07096138526361
1.04699983694086
1.02612781867823
1.0550035825522
1.09546691648933
1.04037860093434
1.03532241435679
1.04411735612813
1.13833767979221
1.09057739575144
1.05210751130492
1.06039707771125
1.06421599269983
1.07533591761272
1.10230496379422
1.06929968660588
1.12005658144242
1.08558615589339
1.12876399760599
1.11841132775214
1.21616100220033
1.20148683429696
1.22754955862227
1.13764384998557
1.16160547925063
1.28471078043305
1.24598778906976
1.20792038073679
1.15271930978171
1.09454443025308
1.21626895366358
1.16722057698424
1.21438935789956
1.14982874884967
1.14641148425343
1.17252378447266
1.19377282036667
1.19743045511841
1.16344195915839
1.15689487106528
1.12403521241121
1.15436631563426
1.24963263578686
1.29409076766078
1.34281374998599
1.19542807350296
1.24836206364517
1.28790508593448
1.29046453421543
1.22265823037644
1.3790393457881
1.33612242320063
1.22501762960991
1.23885779069856
1.28281326115645
1.27984848906426
1.30478636030808
1.30087714626357
1.42747873695306
1.27396256232434
1.26267632739289
1.26207721353146
1.28283320461882
1.22300676918658
1.27257261295726
1.30738547819157
1.29178724573506
1.33677573492747
1.36560511125111
1.31564567482567
1.39527469549841
1.28552521424227
1.289733299106
1.38869903587579
1.45059899595641
1.32665514196668
1.32981085530635
1.34124193920339
1.34140541029822
1.35465926380829
1.47689513278824
1.39898071597662
1.38993743050911
1.43321050376156
1.46848082569514
1.37543823961342
1.41006747424794
1.41499805443858
1.40268841296368
1.385223829306
1.35309062523181
1.28104722830661
1.25355419188264
1.39216057027077
1.55377516357929
1.39802225253423
1.4357190658722
1.36371738360933
1.3158231672044
1.44279238389099
1.4305988479144
1.40600937262894
1.48949527917897
1.38796404981437
1.32690566791134
1.42810293975769
1.48808887215214
1.31261352351287
1.57634881061245
1.58451220443241
1.37891667226472
1.46433650503769
1.41412227494883
1.39011382899514
1.45077692434253
1.38442654754535
1.56930955932869
1.48900618916582
1.42604412860781
1.39696089751439
1.41654463895333
1.4590350238583
1.54641403787424
1.39170234644926
1.4932704276691
1.46057686519483
1.45007769229628
1.42458714902219
1.52794959388978
1.67616681724786
1.52843419817703
1.41210437420762
1.44833433628454
1.40042689624936
1.43716652979641
1.48749171839603
1.51271970479455
1.58168486417376
1.58763266057932
1.48774774611317
1.58509583972975
1.41307028810531
1.45067874249433
1.66076787385361
1.62086213999972
1.52660106372306
1.42753476828487
1.46866012824561
1.49693726993639
1.36497288324486
1.37927953750164
1.45530422224731
1.46526855353823
1.53293357996155
1.48841956427967
1.51696410212481
1.53593781196036
1.56114746660242
1.64002663790652
1.60172126923062
1.48596220272821
1.34189620463685
1.45072118153546
1.58174626910223
1.63872990045036
1.4905939731557
1.48759435093148
1.43352552898491
1.4352683994512
1.50486960593849
1.37892369069808
1.42482845130132
1.47918965835813
1.43198581222475
1.53656077255331
1.63597610056908
1.45612210480714
1.51455227532204
1.61109818709234
1.46372601931455
1.44748151581559
1.50902268595096
1.49735084787248
1.46676114867799
1.49538553652829
1.46229516257584
1.47844289211695
1.4978089324164
1.45595085078538
1.3699798449034
1.45542066811342
1.48423413528309
1.43106080941559
1.410205185607
1.50638848720625
1.55559022973963
1.45787784586827
1.45690439411445
1.48144828720006
1.45824032034212
1.5087750305575
1.54370386311929
1.47739047935857
1.42971134737093
1.47318271296189
1.37499969775671
1.417957158434
1.51136314032911
1.48886081218657
1.47202323367904
1.3555671074439
1.44740210397887
1.61632050171239
1.49419544934492
1.46914756710914
1.53667696173382
1.42797252529081
1.44892398879166
1.45779039035067
1.4501800417692
1.39253494576281
1.42261961083022
1.45423627671683
1.40328551779926
1.38990752573725
1.39675451167278
1.51976727104009
1.52755246744412
1.3550426696264
1.41117835368674
1.50514591751907
1.46988715499417
1.43892335620842
1.41832872490018
1.40352399631619
1.33345210706873
1.33601474163775
1.32456196928815
1.424162710449
1.49755776636462
1.38426090232555
1.35880481774926
1.43970423400949
1.3812346856516
1.34370953297517
1.36648238847065
1.27954673690771
1.38768789764875
1.40482270290618
1.32053849706579
1.33935901816814
1.39234289911386
1.39868488020367
1.36582607460041
1.3464871648151
1.44239532143832
1.41551333574767
1.36255108027521
1.32552503703883
1.34641636256439
1.27901223368801
1.31090258646874
1.36516027663315
1.3282024718445
1.28960292913476
1.34202482018944
1.32140587263869
1.32082870084125
1.36104186237111
1.3461388045017
1.37251345272877
1.25750947534669
1.25651266469682
1.30827706605166
1.25180509040816
1.26344773186828
1.38030197825994
1.2883132341691
1.21916074252544
1.27230474092826
1.25200991569972
1.23961216665161
1.2065119753633
1.22502237727346
1.20893608908205
1.22904174795514
1.2237455875877
1.18787079358614
1.18350688619071
1.20752496977007
1.23570969438696
1.21990093158117
1.1613381334214
1.19349707311065
1.1759625643348
1.14788045586587
1.21066854327884
1.23007685359319
1.19682138145906
1.15928580415789
1.13859328715898
1.15150974111399
1.13167936323432
1.16697858059577
1.13896906336026
1.13765425263823
1.17378634712075
1.13654420688092
1.11130722549317
1.1054449502844
1.09734846262801
1.13246841899653
1.13229764155797
1.15504001510306
1.10131787456293
1.10908191758634
1.09583982558161
1.08157705137
1.07464442530324
1.04303924697013
1.03798483050935
1.06866770532939
1.03602749272813
1.03199156436678
1.03232505109199
1.056345728469
1.03437182405503
1.0229043788148
1.006595906079
1.05772868117353
1.03896891281047
1.05066838900279
1.033294333217
1.001458818165
1.00062699597518
1.01295565069247
1.00373583462194
0.98781929556662
0.987179519389004
0.998183106408033
0.990204926212322
0.982454391827282
0.960596787646006
0.984005173765877
0.952969477332368
0.951809761024562
0.934435998046165
0.949743779696743
0.905915297763788
0.928415332637012
0.946761832980904
0.929872786515988
0.91760196760799
0.933730614894892
0.896810868958004
0.88028071851665
0.897373255959104
0.89230761642551
0.886400596035185
0.897192937699161
0.873747543198818
0.883820558349477
0.894902749089568
0.889723267661082
0.849489535808568
0.854882975103331
0.838068138291234
0.871546721085308
0.844970231251282
0.843783877891999
0.855946913143758
0.82894770135574
0.821584257597168
0.818640445980441
0.80907396646557
0.819240927666266
0.804468632662434
0.809572990295967
0.816965823129906
0.810086861685303
0.801536508121199
0.805921551863281
0.775343665510936
0.789808479924292
0.791634966565994
0.774355947863425
0.756543532157164
0.77689631951642
0.764746902500787
0.758776713393504
0.752850288359797
0.771170275791229
0.739993265386524
0.742099605813206
0.74157779566126
0.749435615482368
0.746807717783619
0.748677297513494
0.742588524588895
0.74096824776858
0.714672324479598
0.733968492961506
0.724619488537282
0.73137022667607
0.70620719206733
0.699440345358736
0.692157610579966
0.701404879999609
0.697771054797022
0.699325840594012
0.678715565724631
0.681565627740297
0.675162899121011
0.698422820312306
0.679400370582789
0.690038950791484
0.680284494571841
0.669774807864286
0.66409212142941
0.659416292707476
0.650663029768679
0.659421561797802
0.659447991207265
0.672012238704051
0.658362662123529
0.651979200677061
0.626322541401763
0.635582353250577
0.624040551192658
0.628383898665433
0.614160074237362
0.625915211185604
0.628074191832275
0.62127058367345
0.607900213452098
0.608766921588214
0.611867772749703
0.606817106569134
0.587791302405072
0.598280893028931
0.586432324956501
0.599644431082527
0.587131985105545
0.599969585974545
0.588486228699466
0.58870100579737
0.577173585173756
0.582798221237664
0.56459354217654
0.574612688182554
0.567933362763433
0.574558406270695
0.557781665865869
0.559827831523614
0.561732062679016
0.560439604376701
0.547170794330792
0.561912399746425
0.550824305230324
0.548276891546516
0.545678732257174
0.548342025436754
0.531082860965853
0.540163222027223
0.538754879996916
0.532571611021322
0.528643952591665
0.536334796899855
0.519627108713222
0.520784532555593
0.505643549750826
0.514840229263624
0.517871553874799
0.524081685450929
0.513936492852953
0.516724930247547
0.504977558383026
0.517240624727382
0.507180798211887
0.501456677299766
0.494458454463125
0.500188764376414
0.491366405695767
0.502090922855594
0.496766020233342
0.495430152064659
0.488230172175141
0.493226947153493
0.487372751838174
0.502528696471668
0.493012697358044
0.492503566832647
0.488078070003336
0.492701894574259
0.489486092105951
0.49731441375659
0.48887174894875
0.49184175644323
0.478587556181841
0.498036712234906
0.488917619520254
0.500329737928049
0.492894541862521
0.495767005471527
0.493236810607337
0.50583669336331
0.49814524483834
0.507050134412956
0.502871699496462
0.511009382518346
0.499691328366733
0.504044547000356
0.498305526965864
0.517670802201367
0.515263680144791
0.513925585965352
0.507770363492601
0.529393949941553
0.514153028513673
0.516356914074864
0.521506409679379
0.532491316007164
0.526095232760552
0.53074278405368
0.525551236336635
0.545330849722943
0.53478598674299
0.543906038863565
0.537001889735687
0.550919659307706
0.551191214819854
0.547128437046519
0.548128518980397
0.558335123107644
0.542543693395397
0.561684724335981
0.558569923806652
0.562731609099629
0.56109205454776
0.574830459484435
0.556391230502484
0.573827181890281
0.560308792939194
0.5797949129607
0.578010219520162
0.600435332335878
0.58893208228277
0.59826808812238
0.59093426975016
0.609850367149816
0.619385677477598
0.612169498231877
0.599909219411878
0.623891030151675
0.623147657969724
0.62747486821455
0.620170588755814
0.62846800411824
0.611662953185316
0.635495341462553
0.624876738468725
0.641568830417932
0.626305110820787
0.64510905046107
0.623973651940382
0.638227738192244
0.637612351644892
0.648562383686498
0.624972225730331
0.637967073707051
0.630085915685722
0.630516875671366
0.625925007420769
0.633816110566999
0.623775908442505
0.639219473678843
0.619522850331325
0.623491386458588
0.622731773940866
0.638220633782287
0.624075126261493
0.643041368590487
0.619615660991603
0.620613496137934
0.629883875847514
0.647063739942658
0.630235126857315
0.628260818535426
0.621321934234479
0.633837379713816
0.608646459264135
0.630519826021405
0.626650639133967
0.626399068810067
0.606986215218712
0.638284710470117
0.626503479262545
0.627595028281571
0.622829836578571
0.63985116678727
0.622490407307401
0.626359526199993
0.632407676767589
0.631954626088311
0.624004304966744
0.632462566491381
0.613586563765977
0.629912964699517
0.618983139665705
0.629229677258183
0.625371876855111
0.624016556255157
0.628122670017748
0.643390785644668
0.623898772632602
0.626425331270227
0.62164124470407
0.62690973801034
0.612186408159797
0.625810205820728
0.602498062471019
0.610661061786285
0.601531522127213
0.616222441113584
0.597387657200879
0.605423676311362
0.592467144639631
0.590795028657446
0.580380816433019
0.592147704073499
0.582407575392306
0.581569171243704
0.571850549397587
0.583501687145701
0.556732835875567
0.565596718346949
0.569845990974608
0.566227735948448
0.551710727479982
0.55727575938842
0.539853672604925
0.558880817538432
0.538969961372374
0.54179555066097
0.524591074280023
0.531854707622239
0.51772779593026
0.520071940992871
0.512348254564646
0.515472562143937
0.496012840740515
0.517261644717722
0.501257165413842
0.500573794313998
0.49183126102729
0.506891065340778
0.486607940664903
0.487294025811536
0.489060459707087
0.489956480462644
0.471851183285504
0.483912376446631
0.474506136408769
0.476095383543748
0.463610660318205
0.476725002418298
0.466147349682487
0.466057279530697
0.453770934916901
0.464040064280306
0.458507206528887
0.451666798475734
0.452660675671058
0.45966404644201
0.451822824888156
0.443292164243399
0.439366457408215
0.447925363214731
0.440644498451009
0.446902194740385
0.43093577241752
0.435382272973052
0.433525118048584
0.436853447061475
0.42681717747657
0.433512141706546
0.418821487036471
0.42756463862045
0.417448298063279
0.428441094399912
0.416801196172234
0.421616768417246
0.412674091798652
0.424031783388958
0.410408764616164
0.415388176291415
0.403788090977897
0.41631227580954
0.409571003932924
0.416505594952688
0.405545203010199
0.410024263320007
0.397923322983969
0.408618461232407
0.400393674744634
0.396308613658147
0.395319138886941
0.406945221365913
0.393489944092334
0.399473160790698
0.388360900269107
0.396675614178095
0.392901090059835
0.395253174888393
0.384280513112602
0.390072164247278
0.376441041091188
0.390742952455785
0.389000437498226
0.386670918413647
0.374148468250393
0.3817912530267
0.381248513448109
0.3920794906137
0.377406390655197
0.3842043948761
0.380636622512292
0.383719013581171
0.374992640226001
0.376645545559471
0.365170085111861
0.3753534405187
0.366671718709292
0.368718429003801
0.367673767648184
0.375178955312547
0.366258532368424
0.374567429634112
0.363403614666873
0.370953510191815
0.362674577249646
0.368898894963558
0.359818121770051
0.368534497341163
0.359419570473537
0.362486544520763
0.364595362855141
0.369291809446315
0.355514701875751
0.367639632811096
0.353124982973286
0.355872239709328
0.348306237175524
0.357002631166704
0.347712030669894
0.355608320263334
0.348899439600271
0.354732729308148
0.345064211226643
0.355549221153026
0.348686041449718
0.354926588278746
0.350651444496085
0.353968577705107
0.346806764814852
0.352646701851394
0.344251249447939
0.353694294089984
0.350116845970846
0.348640406247313
0.346538543570521
0.346959168630663
0.340108324544912
0.356487913719113
0.342481174064618
0.350129613820743
0.336289021460783
0.348922069396109
0.345721850598164
0.351416782484098
0.3384530271604
0.348104274567384
0.345882326658461
0.347733083284133
0.338405991882463
0.343344721761852
0.337419048730085
0.339277571578754
0.334687462411796
0.340302451112679
0.334575314267753
0.340248227798787
0.334299691233012
0.34168626750834
0.33450846615322
0.344716431625619
0.335474956543666
0.335577286217208
0.329979855598797
0.337415841162958
0.325339819779303
0.337713941056282
0.327767370013379
0.334272823951153
0.322570674369683
0.334358944857547
0.320540908421097
0.330885844558671
0.324550323288088
0.331887951979399
0.320750933451604
0.325431926775194
0.320592241598325
0.325142851907118
0.313560136415026
0.329643545088516
0.313293977339646
0.323518743664974
0.315692604831373
0.322481914144244
0.314302662568871
0.317295092298728
0.314788625120248
0.324199822028492
0.315751695266178
0.314015429423243
0.309294717053305
0.319208262528143
0.309553654777702
0.310950925202344
0.306497119091607
0.312442363630786
0.305612069712815
0.313772859751572
0.304816456587729
0.309900365832448
0.306021128275464
0.310838968440294
0.30424823346813
0.309992252810058
0.304635307296001
0.301924168333696
0.296686205524852
0.304288376052612
0.297400620525905
0.307654233315996
0.289432065519437
0.301723378851709
0.293475585369228
0.300860854752131
0.296740358235126
0.297718659058028
0.288192225629842
0.293646518606293
0.288585877315866
0.291528090555858
0.283078306276815
0.294053325429355
0.283208522157287
0.288511848446107
0.28351430323255
0.28630176782242
0.278665083527964
0.284841912198546
0.279724636444985
0.285850820583672
0.277224161831614
0.284932568708567
0.275515176134498
0.278238651722202
0.275125734747978
0.276465333073845
0.272902443063619
0.274385255647853
0.270182303894485
0.27649570123933
0.269085793719256
0.27444533617297
0.262119461279877
0.267296281744433
0.266995440410708
0.270488755493825
0.262720735918315
0.267789703621146
0.260699631504321
0.26738594631698
0.259772265378883
0.26673023493643
0.258178795392631
0.263500380129978
0.258630339183193
0.257788804484228
0.254923153930582
0.259798066221306
0.254652077162804
0.26029716089823
0.25726113456038
0.258249631926797
0.251802669103473
0.257724444295724
0.250974818734336
0.256519274729651
0.252811711378812
0.255908188037294
0.24794650999572
0.253924230341503
0.248385777162041
0.255698034728772
0.244743170696213
0.249307332619314
0.242776286563136
0.25229250812331
0.244733962338287
0.245729229039805
0.242939166186143
0.248545250600764
0.241286272094032
0.245677339903573
0.234991454639395
0.247343158294186
0.234072026661946
0.241251063346193
0.240387416846413
0.244255305571647
0.23591142414133
0.245836336009542
0.23622953285306
0.241495575190892
0.232485930592513
0.241614741549864
0.232568114789118
0.23517116493129
0.23128181529054
0.234246706122179
0.231339539516449
0.236392474345752
0.233938723186933
0.236777031257728
0.229992103582618
0.235349556354616
0.229624565517917
0.234337273950761
0.231786863661553
0.232186469564353
0.225803509017461
0.233650771897252
0.226511770703694
0.230285863889519
0.224890976377746
0.231262707469147
0.227646184150988
0.228350311351149
0.224179510717247
0.231583987343564
0.225653871540798
0.22686201740969
0.226503304351505
0.229378558324896
0.225696713138493
0.22892999418716
0.221050080506369
0.225646514534419
0.222195756393722
0.225614350351135
0.218182514281678
0.228549201838699
0.220573127603008
0.227382794328025
0.21700192649588
0.225665522036738
0.218164811516039
0.225662150085374
0.21903668143369
0.221714866710728
0.219148999507184
0.220923789272636
0.215934052696984
0.224456515545089
0.215280978703054
0.220649141118076
0.212976838699843
0.217085808855503
0.213413189016518
0.21499760041593
0.20994119916948
0.217694815608768
0.211182307230873
0.216473059757085
0.21351161954407
0.218315876616381
0.211981495366296
0.217130659783788
0.20713027766718
0.213435786882768
0.210311478155167
0.214974366308534
0.20545601334581
0.210370043080795
0.204868480958231
0.211083799492489
0.206672353338369
0.21204924641889
0.207517635926877
0.211408734131105
0.206730083761323
0.208603228069896
0.207621198461262
0.207550240823808
0.201941144781821
0.209281209156061
0.207411484903315
0.209963517925318
0.203116967271497
0.209761929722319
0.199660249498052
0.206443713612538
0.200265144244421
0.204574943994813
0.204198017358525
0.211034456115738
0.201081293450831
0.202798819309976
0.201398314154392
0.203168193606491
0.198801457277793
0.206146983471194
0.199285019249304
0.203630727129254
0.197523778988213
0.201223809345838
0.198002277528631
0.201309565939942
0.194775566676229
0.202663113974667
0.195391051557008
0.200792811691707
0.19372409494502
0.201575373854124
0.191898487370151
0.19484286702145
0.194302194349368
0.196666771864258
0.19085215558347
0.199451967943074
0.191621027645188
0.195946065084337
0.190369233117809
0.193509493567219
0.18998478069229
0.191012547778761
0.185006754246539
0.189929222526414
0.181422867009692
0.190968581328451
0.180984912129383
0.189200984488816
0.182115964070046
0.186745778508299
0.182745404004658
0.18718211312473
0.18114728390878
0.183408823064797
0.181062899041573
0.187645893191379
0.180145195376353
0.18582358153271
0.178754123766331
0.180679552418455
0.174160907385671
0.183199492572747
0.175236974508426
0.17973401413907
0.174153690448122
0.182846898598569
0.175414837693785
0.177879267006095
0.171929034217187
0.181074041210303
0.17093805557829
0.17811696196698
0.173724347539783
0.174233801565183
0.169476681091714
0.177934102040028
0.17017774807615
0.17741310693004
0.169088788924424
0.17440931726981
0.170541549091404
0.174502226800148
0.168151063158781
0.171452800455966
0.167769476699545
0.1742026053215
0.163193134292781
0.169090110204992
0.16515549820039
0.169475940967026
0.161219768916317
0.170029040160417
0.16346282241378
0.167309396911932
0.160323328907334
0.165913610363245
0.163940721854239
0.167311425814798
0.160049147744256
0.16814949162391
0.159282368442286
0.163392198105797
0.153106185127116
0.163901073979621
0.1571863249574
0.163024831788463
0.152211874639551
0.162970929340578
0.151916671535143
0.161990205858304
0.152560628592575
0.157764645368116
0.153830167882231
0.157413406990906
0.153322655738293
0.15896490493265
0.151731444400129
0.156797859454763
0.153191646156417
0.156862193099039
0.152790350923297
0.153880693825417
0.149119886033291
0.152364484642424
0.148059569417206
0.15425783933592
0.146413389982121
0.153992411192518
0.148920951901781
0.155162672084044
0.151411231127053
0.156572502349284
0.145203153316694
0.153093239570359
0.146556880838269
0.153251319210648
0.146527778709053
0.15186178449213
0.145112822906231
0.152363978377072
0.144495470196748
0.154368821782576
0.146920981372509
0.151294857249072
0.145458955289891
0.149920921632377
0.14417221401691
0.152143432561378
0.144601395555144
0.154501990673477
0.144869637613675
0.155979709110211
0.149509090425698
0.156599883215555
0.138925696944
0.143539559066105
0.137861352856263
0.150068478603527
0.13578995196091
0.142886417118996
0.132532210403022
0.149271730666959
0.136699151812674
0.142730173778058
0.134268426746459
0.152605733624754
0.138188297879284
0.15303540218496
0.127376520945214
0.149290780182207
0.130068697337222
0.154049681409034
0.135073782778003
0.145154511322317
0.137524814030828
0.148882100051503
0.127618694528861
0.136654957667813
0.133635109306812
0.145247077260485
0.133112615560839
0.145490097112175
0.122616062762681
0.151317335781484
0.124642704390895
0.148587192555878
0.128080071747725
0.151483114142388
0.12990089157914
0.156153539006102
0.12990441744259
0.158113717397568
0.123858317121877
0.147880328047472
0.123815440579791
0.15069264521232
0.132909859278578
0.152149259830286
0.126904853393337
0.142419547426721
0.133732413637147
0.153046215581887
0.12924296835008
0.137680245068349
0.129441770961308
0.146708103257313
0.137194767478058
0.128574359826457
0.139549620314047
0.136656539550119
0.143020040028281
0.126716611648976
0.147710096611047
0.123174918121478
0.147110775902927
0.131498386168999
0.139263083397825
0.133560699437621
0.139112156790435
0.136148952058227
0.134030111932051
0.137069404927537
0.127746031185224
0.136676362270277
0.131187555484545
0.137425179793808
0.130943061475279
0.133617523362963
0.130757877867881
0.13030289174435
0.13265588051525
0.132491657647114
0.130128521878593
0.132325888852781
0.131164752274378
0.134478345509653
0.126458302411781
0.130701780937682
0.128324921441691
0.130942521118306
0.130609121929686
0.130684072149219
0.127400329362862
0.129691278275186
0.129006150996408
0.128898093916973
0.128253960059434
0.130920076553808
0.129946909624354
0.130633925170302
0.127122404328953
0.132484367578212
0.124718720994683
0.131982103758218
0.127411349076751
0.13091425296233
0.128228972260205
0.132942776933688
0.128528683256025
0.131773467886561
0.1298636443196
0.130025748840014
0.12785338085298
0.13033841465927
0.128865714497598
0.13105286918273
0.12683385095469
0.131864657450164
0.127230942440827
0.130632301366895
0.131543503618235
0.130521142774295
0.128899918979758
0.132514262595105
0.126346913117749
0.132351626483597
0.125721324309486
0.130000029204492
0.128659912882816
0.131038652463365
0.129170575009616
0.130076519171814
0.128320023134098
0.12975280948799
0.12609362472485
0.132829987163865
0.129293703044223
0.129717866053053
0.125804580749431
0.132018076344343
0.124423709380246
0.131869644748039
0.124597904864998
0.132328699274302
0.127449497559772
0.130978882203913
0.124111716411231
0.131572971331973
0.127248872020339
0.131111853764704
0.128527425749786
0.131085796549838
0.129826369878453
0.134658414412789
0.129562464091603
0.130290031180212
0.127155328971569
0.133964312092801
0.127738909054805
0.131760908493427
0.127800245114606
0.135051386545453
0.127935692579451
0.132295970575781
0.127947681324871
0.130615721136086
0.131562421484547
0.133079616894763
0.130895023752335
0.133315021219007
0.128636639878299
0.131880542895639
0.128113709271048
0.134447811128624
0.130903816600709
0.134071351071436
0.130179773115347
0.135699971611759
0.129103927087592
0.134521824773464
0.132067379226046
0.134905427181086
0.129428480993672
0.133597233185736
0.131991573752382
0.13547133313054
0.1317504751413
0.134989676719163
0.133234772638972
0.136681953241866
0.131653307490948
0.134312496578388
0.133570300527082
0.136002541208327
0.127864280789702
0.135188998766881
0.131461987351663
0.137558152746458
0.130962003220538
0.134895224923003
0.133782331316346
0.139765953473139
0.13256286904499
0.133897757770052
0.133447415894884
0.133969805759205
0.132518763607449
0.135873351194815
0.130175930418408
0.137865011409714
0.134300613153046
0.134764154933962
0.130569067762754
0.135576016244756
0.134538168969541
0.134941712679293
0.131571700179193
0.138928516235571
0.134291099681285
0.13843521864408
0.134539786421934
0.139002482150934
0.137718672209864
0.140175307065255
0.135897847824398
0.138618324487769
0.134615160556328
0.137880969179621
0.134805321577186
0.139692281138267
0.136973077325842
0.139959628829371
0.135427195792606
0.141043146357855
0.136130195337784
0.137800721073965
0.138041645975211
0.139483243040893
0.136804183583703
0.140788434019277
0.134223900578832
0.138374814722069
0.13660959362258
0.137898779014854
0.136268020852886
0.140390881063532
0.137261128290481
0.13544935939276
0.134513857295814
0.138837962348185
0.136726066994556
0.138470510711005
0.135192741209527
0.136420891373932
0.132065635140746
0.137168866701283
0.134946840890686
0.133864366287142
0.132151461630006
0.133726239332798
0.1322142891757
0.136660961787991
0.131046457107499
0.135014958270728
0.130556692488589
0.135928838959982
0.129458071709431
0.134798924601785
0.13113864556753
0.134882227945697
0.130628018732506
0.13335607963504
0.131128183394657
0.13743272735459
0.130934110848053
0.133302100216554
0.131018914205468
0.135204726620151
0.128548180304872
0.132840674918143
0.130444155910002
0.135712463467264
0.129707963271805
0.132411369990291
0.128687792226427
0.134885098784549
0.133059688896441
0.134620637201003
0.127215301595329
0.131314070916247
0.126199442799344
0.132291259536167
0.12835861831655
0.128396903726498
0.129528875296795
0.131914528691187
0.128533726946298
0.130296640430979
0.127005877225521
0.127555756863261
0.126880483132519
0.131001220297186
0.125254789524818
0.131054975580617
0.127053955351144
0.130863449100687
0.12651955175143
0.13144787961761
0.126703456298893
0.128944493982433
0.124577036987071
0.131219765036953
0.125075579872803
0.131440165979037
0.123990604440802
0.12867755273428
0.126143337794103
0.12836287417416
0.124782595910162
0.128961468469658
0.126774700607213
0.130053166548146
0.125646402556254
0.128892664200137
0.12412252508798
0.127233668838732
0.122444704622625
0.128588733310058
0.123147054452314
0.125181585063405
0.125310378381005
0.129715648224552
0.123269060333788
0.128483218367895
0.121143009842164
0.123305582190325
0.126434767747447
0.127815278569576
0.123523271980404
0.122955703143941
0.123032638005068
0.126436701988162
0.124864266499526
0.122274585177529
0.124142395897711
0.124061837811041
0.120848422198451
0.122462729563821
0.120140862444631
0.12349198730544
0.118801795497667
0.127043991833071
0.120824381152601
0.123557545451364
0.119724884615684
0.121915264273412
0.121143159819236
0.121378138751756
0.118574962601896
0.122941910124728
0.119164844590254
0.122217609060189
0.117020235688699
0.120593872295976
0.116373514192725
0.120964195799212
0.116282465244439
0.118922243088573
0.118151099819811
0.115085648396813
0.114548708503841
0.118790450139991
0.114634895962594
0.115397662107866
0.115572248491551
0.117057486278099
0.11334554824417
0.11618619155587
0.111941141037792
0.113157975324309
0.114335492378992
0.113101731321628
0.117190942968945
0.113795136781648
0.109251631139398
0.115663590779188
0.108378844128303
0.112688964258672
0.107984616451315
0.109888266014075
0.107664719652703
0.113162225988586
0.106706050777601
0.113856084986383
0.109313200866059
0.106950001571061
0.109381742613673
0.111237010782042
0.105776373195558
0.111177673203314
0.106029785288968
0.10692439004941
0.103164575991414
0.107897961905507
0.107073968234685
0.106986906332407
0.105652238618791
0.104449879400716
0.102236136411539
0.111372855034174
0.103028391684603
0.106714718798931
0.103826957342641
0.109636200029581
0.101218583316377
0.106296115380596
0.0999137970062616
0.1073688804383
0.102970121537362
0.106235248008948
0.101422004091382
0.104756001690499
0.100001608446556
0.104314911389827
0.102470487962667
0.103059279587833
0.0999014178880905
0.104435772396225
0.0989765603468345
0.102029923162172
0.0988709242878934
0.104586429298459
0.0977738335683234
0.101897956143421
0.098537059391197
0.107461870551652
0.0988958721864167
0.10180452582658
0.0982509318211689
0.0984913445830497
0.0975556302067615
0.0993393761674083
0.0990183951504708
0.101972226639426
0.0973737621389279
0.0975771834305258
0.0946687992407292
0.0989959953639351
0.0943239005420219
0.0991600154034244
0.0956860645208585
0.099444348623413
0.0956135924965535
0.0979538988199937
0.0930871052795219
0.0980083704546398
0.0914991773874695
0.0963057515685716
0.0951976577909221
0.0972265593635535
0.0950426584947994
0.0964767340056452
0.109562985789999
0.0967536617561524
0.0934954226273309
0.0943414259538013
0.092637396843839
0.0965267421068617
0.091153108498
0.0935515614851521
0.0936431497691469
0.0972344223119362
0.0949370933813259
0.0948153076426793
0.0918744437118993
0.0951415707340178
0.0928045808333503
0.0914223459006417
0.0928045922753681
0.0942476240090388
0.0879876574193984
0.0909009580734379
0.0923401985448009
0.10209218145366
0.0954515877303971
0.0923935351998457
0.09218484353928
0.0859626867293753
0.100105045067705
0.10367169980326
0.0888832610003866
0.0966196986851134
0.0888977244969142
0.0931385997117881
0.0859963879882633
0.0967129159782413
0.0852291416249802
0.0988715134425315
0.0877343755886819
0.0964102221925323
0.0875857245214734
0.0928966119072232
0.0865885576089892
0.0956386503394568
0.0865857714459057
0.091457391474781
0.0862672736689566
0.0899381828324702
0.087970517776168
0.0919733103133418
0.0880572449670202
0.0925594815499485
0.0828774356363386
0.0973391709244281
0.0888837346807895
0.0903720586433324
0.0887038065325195
0.0910480675185302
0.0854074003947723
0.106364292818735
0.0844225838591934
0.0941217373193399
0.0854356206658209
0.0913659756590258
0.0873817099101692
0.0919370078741273
0.0863324881986982
0.0918667031103969
0.0841365614004047
0.0902649307243809
0.0871591821053616
0.0907599758933139
0.0838182835402772
0.089742578490824
0.085281881822304
0.0878825013999794
0.0884952182407521
0.0888464466501211
0.0889136994774857
0.0881700488861856
0.0887065182990571
0.111459414630438
0.0882768356167133
0.10089623262622
0.084585397672652
0.0951905537662431
0.0847922326093093
0.0928815064999275
0.0831190779736281
0.0967298677120675
0.0832052573398987
0.0908635851242869
0.0850129245372103
0.0906942596640937
0.081988901663982
0.0926111850303964
0.0803715368384528
0.0902953415406087
0.0808410229908807
0.0922004194188661
0.0804738832163325
0.0936877377288747
0.0802899547391577
0.0938389584040505
0.0854287732770996
0.0934347283567158
0.0800961570505304
0.103022724109473
0.114928755653305
0.0846982079255741
0.0966969780014291
0.0859447376168717
0.0885012104774994
0.0891370749177837
0.0894721693616168
0.0922856677837559
0.0893515368445375
0.0881123269487998
0.0877397568267717
0.0918094698386373
0.0903039459932162
0.0884348364710175
0.0840534898909498
0.112907998288572
0.0940435458993983
0.0935360311598009
0.0916813481641441
0.0840957393282364
0.108095398772063
0.092763240544487
0.0907891768710815
0.0971024373577939
0.0849119727890244
0.0952346942158213
0.0898055020155182
0.0927097706262997
0.0876549349928492
0.0966648354591204
0.0858787545612397
0.0977472955777255
0.0867745492802349
0.0945333346624723
0.091463045964543
0.101452412035561
0.0999203445496979
0.0935747745517656
0.0917126738909587
0.0970397439880313
0.0926354635023422
0.0955344867135162
0.0906873896148225
0.0963879777182764
0.0966608747469571
0.109508195399242
0.0906275671092557
0.105324436744232
0.101925142694627
0.0956919658526739
0.0941822286616924
0.10341731666101
0.0980266101079479
0.0996424783109133
0.0807894234053051
0.134384260475479
0.0902805757526284
0.121883414988404
0.0916790510253064
0.105667197831563
0.091548672789432
0.105832663921703
0.0919361043961982
0.109113862337214
0.101861931989131
0.0991068016406372
0.101843250416106
0.104570402178557
0.110697991271374
0.102618410853861
0.103987836562325
0.100330524793844
0.104388548290826
0.104075004395353
0.114978880831701
0.0913252242576934
0.124575148663038
0.128186970590646
0.108308548354545
0.121662077036447
0.0935016877868435
0.139881217158772
0.10662940746802
0.107299616491287
0.108485625108794
0.102993596832924
0.112480043281378
0.0972832540225851
0.124246332937838
0.117523548185304
0.101692390241406
0.12367611594305
0.099888637406447
0.126900000410712
0.12188357218855
0.116219100481684
0.111955356059342
0.12148322372855
0.106922303621959
0.131182511278088
0.140875111596731
0.108807481105297
0.151807766323026
0.122900404508848
0.134937767056482
0.122428437156987
0.129039821635782
0.129966986792244
0.143065275213412
0.129599852004741
0.128989837897725
0.12925691936878
0.163604939729437
0.12932204771093
0.137180700879538
0.13611695394888
0.125801159469659
0.158139032421671
0.187727774844793
0.16339451845845
0.149496734053034
0.141394696096233
0.167770812259199
0.154574605850302
0.149677271683357
0.150002703603784
0.145661898397285
0.151401398276444
0.151067422579677
0.162345301106234
0.1580258317528
0.156251742580597
0.166452399446205
0.152362121964184
0.179391414559318
0.192448631307596
0.207589401920946
0.171891970051256
0.203479852168375
0.196015388802536
0.177599090243427
0.186746410617128
0.174261608685601
0.193046319163152
0.183216947457124
0.189243264143864
0.184703708243141
0.203494677460202
0.211942070581076
0.185233540310072
0.231248615422019
0.195459996046403
0.217851786639209
0.187537367614957
0.331436216450013
0.255188705514723
0.223093871807561
0.252564935180434
0.205091779341579
0.334352403946869
0.255878763807205
0.257119818299823
0.260209549809708
0.272729293571845
0.272636877311487
0.296066680122942
0.291262222823004
0.315819534781309
0.309302531895107
0.31492582600045
0.300003310811231
0.400460637833662
0.360484841719227
0.380582587064055
0.344551810786952
0.380076294658404
0.3831439135812
0.390566140844914
0.37859759023011
0.407938675058636
0.376838111702548
0.481936651488761
0.420930800962955
0.445505149473834
0.430497695952402
0.482545821977458
0.452132567458411
0.488448698431581
0.523370932638549
0.48237798509829
0.514184903442069
0.504733301582259
0.530548156537024
0.512840563694244
0.560355131774986
0.566021395044318
0.551027897590168
0.562726935559545
0.554988968572529
0.581994643927787
0.579237944661574
0.593450886565955
0.590740845370945
0.625297734497155
0.603007530241941
0.709048917670775
0.65586506912962
0.593107862299045
0.627799976531413
0.592504467627276
0.639612893472078
0.628358521610764
0.633262231937339
0.677114458740224
0.619513733437499
0.633195098704447
0.620733882174631
0.636500212162972
0.608334735316215
0.640716133601395
0.628482240420176
0.637600533083787
0.643890845433829
0.616825922352169
0.726584655562081
0.62600122046947
0.638968944293252
0.627676495678639
0.627540380250596
0.627345464327298
0.615369043652783
0.605610630590498
0.648772001511013
0.60611133398498
0.619108237318104
0.604449191860507
0.607514561210683
0.628210519198707
0.582457467496319
0.594742282550399
0.5833015619053
0.579191397635775
0.577252794916041
0.561425900059524
0.645065547665566
0.565581238372093
0.555455094153823
0.559068267446608
0.545582655672332
0.543953278272465
0.542565888407419
0.54335505192268
0.544580167238522
0.535144300477748
0.537467732387976
0.53526746268698
0.529609092306757
0.527779525772603
0.520381840501098
0.536096853254174
0.521139354662187
0.519831400770977
0.516802795143724
0.524342663969853
0.508569432322941
0.518670206331275
0.527615581418926
0.515615144203285
0.508711648262804
0.511888688746047
0.513669352832524
0.519371147552566
0.511877745286294
0.518907738371799
0.497592637236355
0.515294511073295
0.500687487326748
0.511584891359275
0.503004383544231
0.507872767629347
0.499255217626613
0.512895687548148
0.50226399680477
0.51128881037276
0.498357800647578
0.513127480020213
0.488247779431516
0.536898137933133
0.552553636003665
0.480187985485815
0.505991660595201
0.484554684702137
0.494837882225461
0.467562916801848
0.503367773157315
0.517114414326179
0.479626775689309
0.486833334878657
0.47674382492162
0.470973336569271
0.482804537202928
0.461628048996866
0.467160365262086
0.458336606619835
0.447270888856051
0.553913553081685
0.44049968774471
0.56324517485882
0.463985943934363
0.457431312939215
0.42554903174628
0.502889886708515
0.441866688362999
0.445951787578887
0.441759255424962
0.464053405227208
0.45975603756403
0.427560047323834
0.43848611483461
0.432371675457033
0.433906275490897
0.455171960293711
0.433402516077397
0.414264360122647
0.469793653381656
0.432209109188842
0.448541853293725
0.470600998278098
0.441788168559294
0.413508636388295
0.403860968597686
0.413819314583868
0.386197280259763
0.452287616389004
0.411180917503895
0.392330650730838
0.393070959604561
0.370154070076029
0.388452172756847
0.381954826492828
0.398880953993205
0.362880020737169
0.406835355348321
0.368493175053111
0.358385421636572
0.38983149111757
0.373970990087433
0.407391398555589
0.363642891396431
0.365034711525554
0.356240036428452
0.403296547086434
0.350751379861228
0.366880986883169
0.344043080120334
0.338811063773549
0.360951888697594
0.346547684654343
0.327243927365685
0.348662193710284
0.325837684477496
0.3758729679176
0.37741626967981
0.36445340629875
0.336421407034588
0.314125297167285
0.316742810605693
0.320218225273769
0.315382048968678
0.317779738513369
0.299855767953168
0.349713845351443
0.291311045232117
0.366397632096339
0.327544097853888
0.317556539345969
0.32279990954648
0.322107745568651
0.324905586514081
0.353918678499785
0.352737451271173
0.359529622690014
0.328367084302868
0.368702454890257
0.330209737067531
0.354693696742007
0.342858177293719
0.359128388343406
0.350964140979787
0.372432350963027
0.368930085189075
0.380083785625999
0.378020366465575
0.400549955638965
0.380633266052368
0.441203057564079
0.390227681519098
0.425986855988447
0.447491106730563
0.456890424775957
0.46881334056221
0.440015453170809
0.459785520300191
0.458081217226811
0.464529807970023
0.480623738285122
0.463483013947712
0.521604887956302
0.490354647786586
0.49191735620998
0.50027704415878
0.509347302792906
0.513379026118956
0.52538409787342
0.553492649230898
0.523213227941803
0.604947512471541
0.534046558643835
0.548430643838133
0.533213182779583
0.54624712685476
0.550737328577695
0.532328435367465
0.556887124862592
0.538655285238129
0.576355497299576
0.561968694400347
0.552518410488228
0.573273322061562
0.565500375911961
0.566952143670623
0.575321303946081
0.577679760922683
0.582443753948131
0.577286887016309
0.59315399068071
0.567120000049547
0.631659737621914
0.615871088018152
0.589451446374875
0.622646220972651
0.597510817342871
0.624526337697175
0.612906167341822
0.622315248536827
0.634317868931492
0.629987793263194
0.635868293247846
0.633825935947122
0.650297761593717
0.651828755091412
0.670003379064502
0.662483414065704
0.651948964552614
0.67310741529081
0.629897249145894
0.756705608191678
0.672770915220362
0.680480488287349
0.669090304826666
0.683437191796243
0.676101038210109
0.687937915719984
0.680960681912897
0.698707340207166
0.691383689536636
0.685908615667782
0.688890126302615
0.68620614992462
0.698718397130866
0.693096932206797
0.70235244904506
0.700806067154501
0.687358213582535
0.693873258100245
0.683802846414588
0.679123327871759
0.695577406613998
0.714726692792704
0.68377956900364
0.700934428971529
0.684680900017433
0.703108548958138
0.706645112358021
0.688749866325419
0.682909807489512
0.693062754202944
0.6759101465677
0.701904913909685
0.691290877183738
0.725524955818274
0.699852833969109
0.699020979937859
0.702446166205082
0.708196102563298
0.708885345839921
0.711880480351345
0.704283132014118
0.718220394590543
0.716631107454518
0.725897775929518
0.725963829039468
0.72708069105231
0.731774714538985
0.727606616916374
0.734582886273697
0.72319000644051
0.715436253432869
0.725781487200104
0.710213497788743
0.733344594173141
0.712522063448632
0.706844416810651
0.687400599873681
0.699250533423464
0.685390617781246
0.703340701186947
0.693874745389484
0.673709698984345
0.682573663978947
0.664613288701856
0.669944962810161
0.655767184827356
0.657536710156867
0.645382647647245
0.653608179739293
0.652632565355324
0.648765683514622
0.636364464415576
0.635306440296237
0.635319890511984
0.644550424934018
0.64004122212917
0.631514376133016
0.630264702012896
0.630772677114918
0.630190523985811
0.63266382448287
0.631973951945862
0.63174713779065
0.629746586835837
0.638929234781753
0.633048618627348
0.636926741815062
0.630054518241316
0.640091525808767
0.619613553695221
0.628781147368394
0.62604759929134
0.630351500283545
0.6256123346686
0.624482578369334
0.621203756952812
0.628258065944671
0.627114428706845
0.625324683485127
0.625997199221577
0.620749435134825
0.623875156822803
0.626540636526986
0.623628273710432
0.621205471013438
0.621504053612724
0.626600139868615
0.621903947797846
0.613738114200861
0.62638340239201
0.615806443717842
0.622864746186142
0.620726610033929
0.616636903972912
0.624948469302965
0.622530380112137
0.621092466925203
0.619685247370755
0.620387097895176
0.62039742241997
0.624504370023223
0.62311745302447
0.619155593806934
0.614035168877938
0.614478011801572
0.602517121848246
0.601430557884212
0.600905011421334
0.595933655786857
0.59553197736286
0.591887872151139
0.580192837176806
0.578344984467181
0.576408498500559
0.575981519192515
0.570664620757521
0.565009245909152
0.559095480219203
0.558587339174552
0.558203140430096
0.554637873524749
0.555671930746587
0.556572518642245
0.552887026020629
0.551974735579182
0.548517668640553
0.545903099246583
0.544053373653134
0.54312515747196
0.545843065773009
0.548752452916025
0.549675396602222
0.547532095616333
0.544798987809263
0.548740515627333
0.554574763083624
0.553378787088136
0.556225872029802
0.554513531946716
0.558884736699102
0.562821654091614
0.561403748460712
0.562915672046658
0.565624281825256
0.567421519011239
0.569162815891772
0.571882837648893
0.573886333943553
0.57815437554101
0.578103786184031
0.57754614426721
0.577172891600515
0.576643741770965
0.574678335683824
0.575705065787698
0.577108476818167
0.58110402071509
0.578946571850694
0.577685563896467
0.573723046251797
0.573883778009521
0.567997306262499
0.562701058140792
0.566478431966801
0.56799408352559
0.564495640950481
0.562973049412277
0.563102578965835
0.558630772995775
0.555766171461973
0.556825866664162
0.549190367387931
0.548979893432678
0.549338422522111
0.546220756891822
0.544798897162096
0.542434408455932
0.545390918602121
0.543591766279954
0.539867250057054
0.540063211034635
0.532857174595664
0.533469210208615
0.53713063562035
0.531549954761985
0.529835295312019
0.529226655182045
0.529947186682339
0.529634863316767
0.523552898514813
0.520425265591205
0.523451094579705
0.517709635556246
0.509746007661078
0.509552433149522
0.508078150470436
0.506209197628566
0.503810316228016
0.499954871687312
0.498044052651135
0.495273402562167
0.488802576299087
0.486289560479192
0.483967704337443
0.477610342979776
0.475011903894195
0.472852475572893
0.470627699916164
0.466481916270158
0.465795033859053
0.467614804580709
0.462508850397179
0.462868945613692
0.463992534434943
0.460634200942226
0.460280948119678
0.458325460692772
0.451735965139089
0.45194771595567
0.44639388253807
0.442016613541147
0.43841481132598
0.429555068493561
0.428038902650937
0.42465234791013
0.416759178902375
0.411147689690052
0.409663643555526
0.407071360282374
0.403996657284663
0.405710208889324
0.408188800958509
0.41110218111868
0.414990779916662
0.419122103444787
0.429036082748786
0.439890993487491
0.449787404259953
0.466387797079738
0.480543816293199
0.497100978521395
0.513731312458264
0.530410247792693
0.545772043784178
0.568325161704709
0.586105044784426
0.602186447825671
0.619621679070584
0.638643746607338
0.658399517933255
0.675154503429754
0.691981167980902
0.708496801489386
0.725413098118912
0.742050243388365
0.758012978657373
0.773744675068876
0.785836716281591
0.790642878982467
0.802394066352402
0.818275077877072
0.823535869019348
0.838309667950658
0.847300699657384
0.854239443619123
0.862660560131194
0.861541974755187
0.870901173843777
0.87098257156033
0.87126881699668
0.879382114913633
0.876801558811793
0.874595695670775
0.878676890795112
0.874013594412395
0.874571638306639
0.884802530760234
0.886373777415047
0.886009697254853
0.886739466965539
0.887583934276729
0.892199070045564
0.893544254219784
0.898658964869613
0.912759281422474
0.912685098254212
0.922773728456626
0.933467244423309
0.931354650626674
0.944365868012245
0.956639595876578
0.964655113187466
0.976917220553809
0.983594779168401
0.987628196351116
1.01635163328021
1.02945223540569
1.03030291770155
1.05079425326597
1.0674542553481
1.06575152841804
1.07648255733755
1.09740748921957
1.1047225093761
1.10626102050854
1.11113999515802
1.10699271996591
1.11786281102844
1.12402525844767
1.09574247533837
1.0996808278147
1.0992742253681
1.0848754558653
1.08398981376156
1.08645653075657
1.09782177064064
1.09853382598525
1.10349127227701
1.10663890679129
1.12225088784386
1.13125305423457
1.13677597742548
1.15783705922299
1.17797281155303
1.16551290001317
1.2081868890029
1.21698737787053
1.2196299167214
1.27100821215705
1.26182160704651
1.28594156391336
1.31770877055335
1.31397936703135
1.34086909187691
1.36362030347244
1.368193064713
1.37820492015615
1.40727511119899
1.44148041012433
1.46739840012499
1.4496694876606
1.46701846702358
1.48631636760114
1.53629958990164
1.62889001246039
1.59168948621463
1.59850297841723
1.69778355567328
1.68453150224349
1.62539274634185
1.68385795811972
1.7303483540598
1.73336008535089
1.69631430199167
1.72687911238825
1.74122693944434
1.73029000664858
1.82731533513634
1.78591178687941
1.77201627912457
1.77400475551503
1.77773523550651
1.74883649324629
1.65817795368043
1.73544182029879
1.81649554457797
1.74629889790602
1.82898910338746
1.89730906366814
1.74231677423813
1.76930645786881
1.8143030437695
1.80869011791899
1.91824553259601
1.86962741099448
1.83950663772114
1.84620672510526
1.77073406824686
1.80578527171827
1.84446086771845
2.01419304700999
1.93356430646829
1.83528281772643
2.10598755441153
2.08866020084115
1.84335585909545
1.86137079270481
2.03560928260966
1.99541568256561
1.84004982050508
1.99575400463687
2.17583565607556
1.99613154543183
1.97596195526562
2.0466004003066
2.00402079124914
2.09641997415591
2.15888989737887
2.06547281648228
2.0728956958591
2.05347846817027
2.0901530683397
2.24658271527097
2.11174671799543
1.99636149358505
2.06245526019668
2.04195395319131
2.21340645030248
2.37498024126581
1.99851764481151
2.14349716324899
2.05384927919145
2.01217227441384
2.09669315811672
2.01101552668089
1.93544798960625
2.08038291136451
2.05061949647937
1.93939545295251
1.80421168252853
1.82994950140212
1.82404761789628
1.84552369905966
1.76423615368124
1.69311910806642
1.62131897439621
1.5900748323522
1.58315875851956
1.57155553241207
1.58459105675478
1.55536987282384
1.50868624936948
1.53631641450972
1.55698263001171
1.56665004980263
1.52169236872101
1.46906744796691
1.50126696051268
1.51037880439371
1.47158889680913
1.44664522767317
1.46552935273467
1.4453872384132
1.39943439429673
1.40942420647677
1.36231392685612
1.33688398651257
1.33590085526062
1.3329526861096
1.27604062881516
1.25422931038915
1.22283244520089
1.18555240394953
1.17335810962977
1.13173583495258
1.06188203003749
1.0341266870411
1.00889119534103
0.972541742901301
0.923547053977474
0.890235469689896
0.865867733016352
0.831075935610965
0.808127501705898
0.788329313014608
0.758725025130087
0.727820413684579
0.710721239274841
0.696126005278686
0.677655415603838
0.672307538331219
0.65577601781272
0.646967402858391
0.638423721647674
0.631763136551217
0.622438540930814
0.625646863687563
0.622594832973798
0.607829379204471
0.620117715788838
0.61814852055961
0.612523914852352
0.616674446041698
0.617826369828249
0.618936044011858
0.616909944390637
0.612217048835361
0.612210165375029
0.61133936929818
0.607516724953124
0.598007939321536
0.598019291902305
0.603478976985837
0.593773424859655
0.580595380229469
0.58271523682207
0.575149851203754
0.574949867813482
0.570470732891619
0.563252869557907
0.562372092498137
0.565189206272689
0.559979925242578
0.562772820451415
0.567175658773282
0.561632643557759
0.566598061206994
0.578526296878318
0.5834598956257
0.578827325737329
0.580998284672316
0.587601223237162
0.592010550491122
0.59150865497876
0.59127552782874
0.595122513752359
0.608688198827884
0.6066991563388
0.604873462683519
0.610298101149594
0.616276867334797
0.6175865647024
0.616416633999813
0.607024659823834
0.609054336674524
0.6101195295191
0.604676549496846
0.610166759230251
0.613053301133535
0.620613198898916
0.637195907812808
0.636860504073062
0.631076306000973
0.647808133011067
0.6623275055336
0.660643861843381
0.685136335662094
0.708128046702022
0.720336006969298
0.744059218812813
0.767971349160227
0.78060631624493
0.784284793738215
0.793073340199849
0.78082526473207
0.766180291628345
0.785253529310971
0.780947221599733
0.777238273445189
0.755345900717752
0.75323166561167
0.740041478359812
0.723937266780497
0.719801234517324
0.730625757784692
0.734872501018182
0.720123326756096
0.71319903096246
0.723432645171473
0.716289099481338
0.721538818261577
0.734131290336884
0.737098997412509
0.726070196979812
0.712511053119126
0.714489623112993
0.708579451770991
0.715429064577135
0.721259313840342
0.681816046564543
0.676019872721756
0.682647916133921
0.69693141360223
0.68084885687587
0.666991167579063
0.660665449715881
0.659405396769371
0.6696774636905
0.657214216551223
0.651999013976828
0.643955108584759
0.654581390661239
0.657992611809309
0.646935311470725
0.657975520746876
0.656964950201145
0.629915278826526
0.643257709514068
0.648909116415821
0.63071509722136
0.627251348384735
0.622557006673104
0.622383866995399
0.632164445341317
0.661555094591156
0.632300870272654
0.621372751134535
0.613569626614881
0.617480207123391
0.615106815714286
0.614086375601385
0.611453580825942
0.631197356182974
0.617431130536631
0.595028325749668
0.59011984716496
0.602412618334893
0.599693386102981
0.582236905209201
0.606269669293394
0.629441148994528
0.596514041356608
0.593782560989957
0.589301897682963
0.594141247325763
0.589892035123277
0.601592875091691
0.598684143319424
0.607567046678855
0.59719688671924
0.622205423918039
0.63130358327933
0.610626525522525
0.613222195410885
0.611156619313518
0.599561679502574
0.619307961612754
0.618744589863685
0.644045747517688
0.617193387133747
0.621721160582624
0.635487041547027
0.635061267791931
0.638618124398049
0.629981921748772
0.626295548971202
0.650811788044226
0.661022307663656
0.687959318659209
0.696674084817758
0.68204260970959
0.670183752325062
0.696755008072019
0.694722451557973
0.716907988614709
0.721569801142999
0.715545059926458
0.729878315742904
0.766013843314948
0.765076635452057
0.810395952444414
0.83015753657604
0.824320349478077
0.812455668437424
0.814522099809837
0.852707194058394
0.933896510956443
0.921207182437387
0.893037681789859
0.921972477298785
0.954343369446428
0.948486530373787
1.0031179690898
0.978620793452987
0.999807502853836
0.978551313227162
0.912107020120607
0.896528937234307
0.959077763257547
0.928155252353201
0.950825664665538
0.998437587740681
0.987481400775552
0.946688498775622
1.00442081392813
0.927399095639754
0.924907691336151
0.946457410372441
0.944360637772606
0.876113175182573
0.942353058821622
0.929409691872805
0.914073619392067
0.873506367751984
0.921300392945445
0.922179016878969
0.937153149499935
0.891620679817056
0.886548541733531
0.919649158484181
0.904668516215266
0.848585035782954
0.871151197206663
0.866255627271968
0.938375064547242
0.854628893166798
0.940691785852914
0.856999322870022
0.899581231847023
0.857946351618375
0.915439566775351
0.883579808357446
0.860830555439532
0.865960857316714
0.901734805006813
0.858592505479936
0.97526597879689
0.881018084248332
0.881708967235052
0.84176579584025
0.960420364426846
0.845522431854579
0.930589868920642
0.908568556804364
0.958237029332546
0.892830607798585
0.944705038624417
0.922067287641175
0.889266300919947
0.870155293960685
0.959695177991819
0.828561917059967
0.906111799162575
0.932854764376475
1.06738235940093
1.05205563834817
1.22747034169702
1.00481547544488
1.1168172293078
1.0317352128341
0.908521772983661
1.00965593652029
1.08925201208624
0.950787025561621
1.13440820787814
1.05938404225672
1.1192776643019
1.06651101610811
1.10213938944824
0.986944097120507
1.22546704580161
1.05763363727823
1.05626343571931
0.99630020390654
1.20234966829665
1.07237376257593
1.19216718705237
1.08089699859733
1.28704504029214
1.14546921817743
1.07171518153273
1.11665451939885
1.46172090849428
1.51389200712695
1.9831416342557
1.25974969828854
1.59563521369909
1.24233199352321
1.27898652802317
1.03992430095992
1.15383751002216
0.94395281337218
1.25862700493705
0.998639595819953
1.19462037759979
1.07906843453393
1.33294696594405
0.930196648535309
1.07513365120695
0.869635334793155
1.01898881012483
0.927403291214612
1.41729314846522
1.14354295845065
1.1617562596142
0.954677591937275
5
1.08365206461188
1.14715683615564
1.06879234493991
5
1.02184915986882
0.910106702830711
1.27107242268729
0.820346251229981
0.557840869052274
5
1.32999792910264
5
1.78944464498948
0.773324015373492
0.747449840611122
1.13555849570613
0.855714444440884
5
1.42355738999732
0.796211557540616
0.764596047892474
5
1.01269621249285
1.55931635750169
0.74702156996805
1.06073766465314
0.939377440884041
5
