3596
4000.36533379555
650.420452594757
1
2
2
0.0760717698989839
0.0643434855682332
0.079230097821983
0.0738903556689285
0.0832733509641635
0.0702113928483996
0.0718955867399588
0.0713730135988341
0.070016185437901
0.0751859273775782
0.0697563148429181
0.0667165696136616
0.0782843736840115
0.0737032434658549
0.0678413873414103
0.0668901848173161
0.0682541716167546
0.0707234846019302
0.0679335329784912
0.0752401398103481
0.0564157975150114
0.075631204063662
0.0764140270824681
0.0660054238344752
0.0701819833952639
0.0728428010390246
0.0723237359369221
0.0708983539153941
0.0700919077504015
0.0720146830805078
0.0716631828711322
0.0781283471742904
0.0770679651399781
0.0735425654667782
0.0713656315212065
0.0695494467992558
0.0709663815161801
0.0660802607356099
0.0727700966221053
0.068421160963454
0.0786823876927689
0.0744736624390037
0.0745911338709654
0.0725606169249124
0.0616648836959948
0.0632211651347804
0.0753231440266918
0.0610482818549589
0.0744009615817026
0.0735797020006469
0.0687167215703185
0.0671873084898417
0.0784081790385861
0.0789244413661157
0.0686798151432748
0.0777681188425941
0.0705525682366607
0.0789808118557861
0.0725505628977331
0.0650694621168935
0.0813404373952158
0.080597939195575
0.0680610207051247
0.0766759043137752
0.0677507620578116
0.0738450641451585
0.066497539494977
0.0680415287707579
0.0620535883883
0.0728720886686448
0.0646537643327278
0.0747512044348936
0.0771853008301313
0.0776627516244778
0.0735475154725608
0.0706768928998817
0.0558031545807307
0.0590038655092064
0.0562297000851812
0.0806878445656586
0.0841456273652821
0.07282324741736
0.0694065077233484
0.0633764079668242
0.0676705222837624
0.0832263904123645
0.0552021837453493
0.0734127725245599
0.0866122791914147
0.0704631742681117
0.0592446355704974
0.0593384463607678
0.0606705388751062
0.0672977603454264
0.0638908566808842
0.0666665661195429
0.0677412593207472
0.0682058261991226
0.0577616340253495
0.0730572273062483
0.0798097291273197
0.0741462078688941
0.112555617537405
0.0324005413638736
0.116917908879187
0.0730588020881637
0.0559459738961956
0.103683806979284
0.0677598635997032
0.0816586858322463
0.0579297786058422
0.0670898437455659
0.0492700532874171
0.082056378912064
0.0454551738476839
0.0822059578731131
0.0880462360182183
0.0718546859377718
0.0631879511730353
0.0620022514584639
0.0486034199725397
0.0861375627223548
0.101885626360863
0.0663508556236708
0.0681047413829667
0.0553753203890162
0.0501627409549995
0.0946228983461718
0.0898084297447552
0.0553133499411825
0.0712708266847839
0.0659811828503695
0.055988911922629
0.0511351935727331
0.0903125481781862
0.0699833643506108
0.0683664730482108
0.0479903584612723
0.0653882412969853
0.118917823370767
0.0749088569250158
0.0657071733151407
0.049964556187365
0.0705599729763005
0.0959538516323064
0.0703314255698718
0.0565596576990882
0.0701678862743713
0.0668738292436786
0.0611485050830592
0.0592909862489468
0.0579629638293535
0.0725310064734617
0.0704942280683518
0.0158487680822722
0.104667844626826
0.1218698589259
0.0488653961153031
0.126283901658735
0.0529897167194359
0.075496869859953
0.0502666672319348
0.0681654305778586
0.055438159426153
0.0687878077451241
0.0526617359909805
0.0715342933739273
0.0787777979384063
0.0593332905533348
0.0698350268057461
0.0899391646389413
0.0633701755110423
0.0332964151352011
0.126605628482926
0.0721939797012098
0.0515372528360847
0.0910812408751198
0.0753466632465151
0.0524141182918828
0.0598073267683794
0.0895491490084094
0.056269080029553
0.0722375857443891
0.0588653327570841
0.0623475052288437
0.0832826542117001
0.0704892088966024
0.0665804077826228
0.0708308043046458
0.0371138568390924
0.0714133764196315
0.0977396914491414
0.0976004793241011
0.0565943873360507
0.0771432044106984
0.0252859683616129
0.08800588949415
0.0828800080467767
0.0566520304539505
0.0620416265211619
0.0572841343125345
0.0646784359986597
0.0614080061718581
0.0614067116706785
0.0593369176005402
0.026608805144155
0.11860842380625
0.0696401075289869
0.0613016817556924
0.0519415411817916
0.0707602417766625
0.0445388181162301
0.124059230130357
0.0913803960889472
0.0738443605722181
0.060842020219588
0.0546701017530487
0.0679943441729617
0.0728076427060776
0.0683994260204833
0.0614317625630173
0.060898918522926
0.0590301577630804
0.0611431486304319
0.063280498431373
0.0669932334872996
0.0644000976993323
0.0586695178030373
0.0567332038768815
0.0612155713171568
0.0700227118574885
0.0616083324659698
0.0619323036067433
0.0651919925143712
0.0518003472012951
0.0668022230118808
0.0873176712251024
0.0605697556287634
0.0601051859964212
0.060100561430994
0.0680109716698192
0.0606266109167067
0.0674610987302885
0.0593904696053753
0.0626405262599985
0.0415907691851333
0.112585426623341
0.0653123534992754
0.07960130067968
0.0484089191314341
0.0874638891130938
0.0783606714979834
0.0658145824261793
0.0638601952236721
0.0632639827978526
0.0536608959376772
0.0590027571540093
0.0920665456702267
0.0773940811665938
0.0589597566726938
0.0748791819112393
0.0789746543785763
0.0604233330636044
0.0615299892776618
0.0415201497067763
0.139914558582688
0.0725090203267592
0.0377428966377341
0.137884510987249
0.0699674916062229
0.0721389418016714
0.0620032263593068
0.00466479830055584
0.156847587972502
0.117655006002786
0.0707654289674639
0.0584153298987305
0.0905261642536225
0.0636268887864109
0.0723167388318924
0.0682556848437785
0.0803968357297591
0.0936202679370657
0.0625665961845703
0.124130895441688
0.0423939806714614
0.099051135958951
0.0832373845766198
0.0807190284035102
0.0740468255508604
0.0719305705778139
0.0639488272338492
0.0770069751884032
0.0829256396877251
0.0762867035052438
0.0780764528141354
0.0597893529990102
0.0964089904177567
0.0770376117937586
0.0661852447017974
0.0652308876317356
0.0858011565910311
0.0711669179502348
0.077049433904307
0.0661577574355383
0.0814693556282136
0.0683145918156862
0.0659137389808532
0.124300033887051
0.0863087724101361
0.0673717689596996
0.101864673279989
0.073885976406087
0.0729522430655274
0.0686386888120951
0.0829412095300427
0.0713606309428788
0.0767972006481314
0.0692524909200372
0.0961435910210246
0.0806709748641443
0.0793378303610115
0.0722010494588204
0.0811196043516987
0.0791800528201819
0.0749249234807415
0.0811852389053077
0.0763328803921643
0.0801539903518905
0.0679673170943307
0.0844484431619037
0.122603627222104
0.0570306827848594
0.10549397359479
0.123385415166835
0.0799326471380165
0.0907189390574985
0.0775595609527891
0.0958223351730566
0.0803861267053036
0.0922316469842883
0.0845445115149318
0.103773287984037
0.103868403732219
0.101436411730481
0.0894946527166786
0.0932633713976168
0.118084867005276
0.154652547968976
0.112730226026999
0.111098029192111
0.0706876089282855
0.123900941904522
0.133228822343193
0.11419458430651
0.141127013828471
0.0953027370959968
0.116464400240312
0.102380622097272
0.125948642008235
0.112342718994457
0.121878657159817
0.104656985620827
0.121162936110038
0.114495104952397
0.126852326346939
0.122296082068474
0.125943977727331
0.160030249743622
0.135637637705736
0.123535611260008
0.141654176708718
0.117834916683263
0.164272988195801
0.145361172362371
0.179793232375606
0.184265104324941
0.145080867946381
0.199084005434695
0.13668727160868
0.161749467867029
0.13480624818716
0.160258759139711
0.158435275639765
0.169493196540545
0.161992840217915
0.166224463637678
0.16962588553632
0.17684422487667
0.158502232151414
0.171951451180317
0.169322012022791
0.195921773035543
0.174598035845231
0.19406127200624
0.17417458148031
0.188206292783836
0.230249056786445
0.242695879816696
0.198430168623692
0.206101180429044
0.207596349270502
0.19488199298787
0.210514401685102
0.21433217596564
0.215620546374513
0.208742390813337
0.254231583208263
0.234386844569611
0.232721191452172
0.250164516415221
0.209374050382189
0.251275253757738
0.240397960490845
0.257395593454248
0.270884934833073
0.255861995651018
0.244436078168995
0.274397748546792
0.280409253896171
0.261618387659998
0.291513712833596
0.266888267899128
0.265619928277979
0.25953963043053
0.272268271301795
0.278863306230316
0.292534188913187
0.289116138438461
0.29684018746554
0.301780626191625
0.297056267803925
0.309126407092886
0.325933400633139
0.311433705550886
0.311553984205839
0.332261114023814
0.302679946590423
0.329964856598793
0.314358050999268
0.364323471263199
0.353680518139761
0.358289476063831
0.376893489476396
0.348401781617983
0.353261366080977
0.355419099023568
0.356822751546587
0.354436541147562
0.364376847433267
0.376889100561369
0.370501801406888
0.378575266370547
0.394157445818161
0.384909304667199
0.393601843701955
0.402648618500172
0.383858895446075
0.414419582315093
0.398812076773128
0.414506047197465
0.410392076817302
0.439506745623552
0.462805996536806
0.445303186222786
0.451079433336173
0.419723059206691
0.430467167671396
0.452172201335851
0.448317995693896
0.447517385997068
0.465999494470821
0.488613351316298
0.468306566984872
0.473089086681186
0.47316802972575
0.501612077714486
0.490648733830571
0.497266224797604
0.491618402767738
0.495982944107535
0.503061247186726
0.524463770131688
0.514186367975531
0.52512403437509
0.531706577869121
0.53500972977673
0.53701914043024
0.573223897659365
0.542472411795159
0.58059956295939
0.556101939957924
0.569583258245446
0.56472541285603
0.606288042912305
0.576313507015971
0.587485896798661
0.589974918005541
0.629059928961655
0.595476551850534
0.61216698670512
0.625960789296959
0.635517375520706
0.600796699747081
0.648563221197709
0.622843217474154
0.656351867920314
0.634109757369937
0.624471640690594
0.652529530310727
0.642035444331538
0.665135671459324
0.691420563405255
0.677167095189523
0.666366137092801
0.66366374845541
0.738982904305244
0.685038034845907
0.705264018684853
0.714816533149227
0.717045742451569
0.693410388790115
0.78350593389694
0.716504301217464
0.748855110915258
0.746987681078839
0.771029798432706
0.730865592755531
0.754830263402407
0.733621778443168
0.785707151356016
0.746062085220846
0.796777645577206
0.775512792892226
0.768894226027346
0.744636258681332
0.812318085837296
0.833110182101668
0.825853608407073
0.831646142562408
0.854260736928593
0.802483313921535
0.851977569483385
0.84517871305712
0.835457076973672
0.853392729661244
0.885761233494946
0.847366077777137
0.884156526722027
0.833770152781009
0.887013795976986
0.83313355829757
0.934602551935976
0.881096053655556
0.89512197530234
0.874771277886139
0.946381545133838
0.898163999971035
0.929548888170491
0.921128327836668
0.960431245209005
0.936368800156042
0.896964825717064
0.970719291528124
1.00203220289324
0.938948751544664
0.961499165807147
0.948444404553569
0.969215399082499
0.974532579861008
1.0351652785482
0.969620333473229
1.06791508397281
1.00536499150086
1.04948068768978
1.02949892060357
1.06548559708771
1.05430364054228
1.04442925441419
1.00714425728286
1.05632719911628
1.04397846626722
1.09149899923834
1.06736281485804
1.09979169839014
1.08226208721989
1.17739166914599
1.02838335320845
1.1764358748775
1.14462883774243
1.17540310211599
1.05565179524777
1.11706835206996
1.05381854037037
1.17359610226899
1.1011492481903
1.14006320276568
1.09854599243997
1.14575885610987
1.22182489827784
1.21080888107656
1.17608592775036
1.139801484278
1.14593561985262
1.18833247081546
1.08481352730617
1.2912571819448
1.18504702441333
1.24378866905678
1.31661891848631
1.2438152861853
1.1436295235152
1.33491265684637
1.24559187461084
1.31889007195699
1.22319896750291
1.30719203745555
1.25409470190938
1.19266049795758
1.12140437332154
1.25383253694514
1.31021067907648
1.34032484580975
1.16248115010892
1.36277391020263
1.29752164463982
1.29635686635647
1.23443358361443
1.27121230193341
1.21268718085859
1.33501717495868
1.25635982104841
1.34426218964163
1.22585684854306
1.3192770934572
1.25615555296387
1.32521742769871
1.2780397906818
1.46114588777104
1.4268277180224
1.4107088486375
1.25790751623414
1.35912253584679
1.38993287831302
1.4643242145853
1.37353148053536
1.46342889646738
1.50645830323434
1.78576942148945
1.36257449639233
1.45508059931404
1.26662828515531
1.41713306988673
1.43122822668612
1.38431137241737
1.38349016143331
1.45245412684563
1.46836247338037
1.62856013214162
1.48452796863106
1.47229467585581
1.39134210459322
1.58831190931088
1.37427896075235
1.37954220870227
1.44396740205986
1.4822192029629
1.43718366525727
1.44095722040748
1.34282452808861
1.47424300921587
1.40920738585092
1.45273498976317
1.54310851377727
1.52664807901174
1.43960757112414
1.54838072420592
1.50911518918457
1.43595183140258
1.49519059227641
1.52120917791835
1.44772169997148
1.39596524861823
1.42445679257801
1.65431713941702
1.49223893367295
1.48325433574581
1.42314333015158
1.6158045243109
1.42451695544975
1.5206916598
1.56152757631109
1.51355584320085
1.5291406548431
1.63443673220911
1.49579696017266
1.50013868501483
1.56513992607685
1.74502899890156
1.48568014093069
1.53263431162018
1.45405527431591
1.54243772611091
1.46542022947744
1.48737210983499
1.59911013413132
1.86753734037986
1.636681830257
1.58648984170225
1.53663419473556
1.58015099459141
1.48120760533387
1.59689354963045
1.63943768225427
1.52517695051026
1.48103975957563
1.70360371520326
1.5660299598018
1.65454223731825
1.4400709327223
1.49626668776595
1.59794501990497
1.6150772828249
1.43612325765335
1.66259161316499
1.58615543952132
1.63340484788217
1.53325021631773
1.56135961235952
1.61124939469406
1.55874718980334
1.53223969221333
1.68340495242746
1.49362578766247
1.5691254785945
1.60966914194531
1.89232561701035
1.57911740283818
1.54699293128671
1.81021745385578
1.56016224252284
1.48030447000848
1.6525937882467
1.46501103990402
1.71863366060686
1.72590685008924
1.60829065930583
1.58232191228963
1.51819271601426
1.67969281770592
1.6509199732602
1.4787899423144
1.73223037112342
1.54579988657372
1.79892440238537
1.61313609833923
1.55584706855116
1.54712913743598
1.59611816276618
1.57971337909159
1.53669170668208
1.68364624649616
1.65275562908111
1.51182181310305
1.64581478005541
1.56436417476086
1.58450070286568
1.55323029695886
1.76607525923697
1.50648696876575
1.61067900084651
1.64935199529347
1.67229746233832
1.51035177085736
1.62815917483779
1.48304795916275
1.68900789093546
1.75392149773667
1.69908756589364
1.51933485254265
1.43500132810912
1.3855448430297
1.54874259294881
1.48808319476415
1.57881834541986
1.58645251152435
1.67895078074552
1.5616144740303
1.61804790262474
1.56205388924169
1.49234304079232
1.51744559564044
1.54819140364472
1.5373366792836
1.59805745711671
1.5583839623208
1.50598430217469
1.47956968245249
1.57790683934507
1.56585868084123
1.57276001725234
1.58093834325722
1.56625159503518
1.49600046858547
1.55757225696754
1.62707245240882
1.58324407854102
1.5182491715483
1.58724441312228
1.46594901399316
1.53382224488618
1.43816497329663
1.45178088903244
1.59956000271831
1.57576739737113
1.44042575598227
1.44429878648899
1.53198034478023
1.40819380235325
1.4462677030148
1.58186881469287
1.42545442056127
1.45267647233884
1.42887237864552
1.39150324658439
1.40937544810655
1.4942147875009
1.56392552536324
1.47942700105343
1.46233189189078
1.53534841262782
1.49697227155577
1.4446977570529
1.41273155178639
1.4614731362944
1.41789816749557
1.42538420046016
1.37130980811068
1.40007214210303
1.44601748736256
1.43099211518405
1.35817311592926
1.37361244142706
1.43859825910916
1.39711199946835
1.45414186282008
1.42161627165749
1.39757545528178
1.4009429551162
1.37659227400287
1.35936295804016
1.36605345134718
1.36491073224305
1.3170435971769
1.37675337723328
1.33687511496157
1.3908921873944
1.33217578010413
1.3151480832351
1.29524327157079
1.31645727934067
1.34770087673657
1.31292137257941
1.30344357386368
1.2564469754398
1.33486304030824
1.37997527608632
1.27123708004853
1.24043717954059
1.32009042092245
1.29481706457336
1.26318981054845
1.28781253964622
1.24648229263342
1.27857182886432
1.28983735700962
1.31848215304161
1.29737257181379
1.26678053981452
1.16834166032748
1.20518011894306
1.26070180613817
1.24198122730537
1.17145924534399
1.19976996459907
1.19124562729399
1.14374024478115
1.14467655449932
1.13514856239023
1.1242811887912
1.18311469893193
1.14737345305619
1.17150798934059
1.18157878044821
1.16855217105779
1.16685031491721
1.1265216745777
1.11891617077378
1.13502547812408
1.1252427540162
1.10512130382263
1.13347340570636
1.15018376779004
1.07201564436607
1.12274994872178
1.10017899117717
1.04826364444154
1.0496300184751
1.09509336717793
1.10045501987616
1.09408166791079
1.05384309906065
1.03887636170276
1.04900212787198
1.03991169671153
1.07273755885562
1.04146365557276
1.03049582367863
1.02474599265737
1.02008226479744
1.01859832473567
0.994923913103905
0.989276982392678
1.0324573677244
1.00983907478033
0.9982933807455
1.02911888099308
1.00048183050604
0.991535787267973
0.99066281003879
0.939409280649189
0.94203756431659
0.955506418751646
0.91945071799197
0.9456807465185
0.932867195501445
0.926100090968155
0.943722574014705
0.923381667752946
0.921377387117719
0.905270959071008
0.91086111989963
0.918758740492962
0.911407103278656
0.892803980613
0.904880513141932
0.905986252108381
0.87829945307785
0.870458801908346
0.899580256798053
0.894180832325435
0.866845476993716
0.859977136664076
0.865482138761385
0.864596775704544
0.850156564561961
0.835535834609734
0.853061408414138
0.83008371806576
0.819986622917493
0.834312205364655
0.82931027237081
0.832631451976573
0.824867534633769
0.812629203083347
0.827908436938251
0.821954858913957
0.794486851486743
0.800310854986919
0.794267821825557
0.775971748021112
0.78501347104019
0.793745099015755
0.782553506797036
0.777859616316508
0.784430794581527
0.761561925257456
0.756984565536164
0.769330682442144
0.777797035920489
0.746985168036466
0.739282926290029
0.742211862666148
0.745535561345531
0.731171354263072
0.729627634290497
0.750665735556029
0.744866582664087
0.725846364428624
0.734531465393423
0.72313771328337
0.717422910091216
0.705098849305986
0.717881647174781
0.706589709114327
0.69739350452875
0.684298511041582
0.713929542123563
0.704200949171804
0.682118811410099
0.695115842624209
0.692382850748348
0.685508736998994
0.684551732697537
0.672690108527434
0.674455825428635
0.660902128875074
0.649434927596253
0.653926188650361
0.662481615368167
0.654236799737707
0.656365176141061
0.651331660275604
0.64619887254265
0.634875429669449
0.64297182225465
0.63243007629369
0.623607704937432
0.616481239950872
0.618585328144738
0.616972288657438
0.619664822096733
0.60853565098312
0.598429316252159
0.595275088643249
0.60204722380088
0.598641235311013
0.603294535169953
0.583127581031398
0.59012150833396
0.590382687359414
0.589361850314266
0.586518135181779
0.590160055701823
0.578642345897609
0.574926077197427
0.562899664269344
0.569260238233393
0.568004822949827
0.564052665599889
0.557317586285952
0.555306723222015
0.54944911758254
0.567239839510645
0.548145424831861
0.548482949606222
0.545363648736395
0.542048726462896
0.538929788300707
0.535363131321094
0.524351771861029
0.538076195452064
0.531029879731826
0.525014287004157
0.522372032707419
0.527773338272418
0.519965426410659
0.516238823102319
0.508631291337017
0.50759209225901
0.513087608958013
0.510379649352831
0.502836069815085
0.503003350050412
0.495902169191858
0.500926318789278
0.488704352971723
0.503311403959985
0.501579543682432
0.499029029396219
0.486050659126188
0.486425321284445
0.49113766370652
0.496307843845305
0.490600629424567
0.488304743530707
0.48085646316764
0.487240167541471
0.478679463725803
0.483383961471066
0.485570612633133
0.49022250748295
0.481906741117299
0.494331860797596
0.486754995987326
0.489133549087555
0.479381170907785
0.488509530148951
0.491864638497544
0.49662043010463
0.485221806618502
0.495294504194456
0.49488159069737
0.497166244568832
0.485756720476206
0.499449209523156
0.494089671848493
0.498617956621731
0.500868701040162
0.508036602789057
0.502892489337062
0.513664671100912
0.514698589729778
0.526988354406557
0.518414138343852
0.515075179188583
0.513771651850482
0.52949380855062
0.525087747754306
0.523769578434314
0.530459509693387
0.53375491905249
0.524884285536759
0.527558262471821
0.534911659966583
0.544062913417375
0.539073955785234
0.555717752392965
0.543756473386831
0.546638963616297
0.55706284274524
0.555772698681575
0.555117970516827
0.574308511222716
0.559739447602837
0.569324356089445
0.573600864364625
0.575708310923132
0.581749179933094
0.587555892568533
0.577271840534832
0.593468399061423
0.597566713379239
0.596000909699215
0.587209408158077
0.601644791884084
0.603349086465373
0.605554277318452
0.605536556019757
0.61563011128985
0.624772270397593
0.631302499626346
0.622454388109657
0.631301413579721
0.631657378976063
0.638263193323096
0.640357049580245
0.641468218432656
0.618363425507729
0.655244380768506
0.645697472194229
0.646473483625327
0.636704964006489
0.64526832386074
0.642492141591091
0.645996405749158
0.629924238998934
0.644548579964135
0.639609200323487
0.642598715196202
0.63755476854444
0.636442211226939
0.634847259156385
0.640561133648481
0.632213792334855
0.638889432159693
0.629069697214898
0.64551881790269
0.62775421531999
0.639177513173945
0.640456383507121
0.636962788327736
0.622731354970386
0.643688432668993
0.636867184532576
0.635033215484384
0.629401341380983
0.64405581006284
0.626822167199607
0.64124068504603
0.629080214739024
0.63975171677143
0.637082015737068
0.636101650041302
0.628002585953594
0.643939377385132
0.632271886019989
0.636919326425033
0.636184145607625
0.636836222153806
0.637981828141743
0.640261412599369
0.615302415087107
0.634181715023183
0.62568797040785
0.637312892120692
0.632113481183222
0.62967828388808
0.638123743243378
0.62536188029158
0.628559398946838
0.633887124015906
0.621045875960399
0.633680280860929
0.620947420974938
0.620834999034284
0.615907594963635
0.617912480845423
0.601709651811457
0.617020626412102
0.610374930750547
0.613078454027556
0.600272653120503
0.597666249477177
0.587286880344663
0.593761430471002
0.586965979129596
0.585328080370023
0.574430610077685
0.584535662604002
0.573686313769744
0.575901108535352
0.571404925406737
0.570471956432909
0.554860492551712
0.552416408559856
0.548690104882578
0.539001433722439
0.540085999460971
0.542662906935867
0.527491026482823
0.532720910868747
0.519304338433021
0.534476866118995
0.509251601386148
0.511034864611358
0.506491881636572
0.507715109358284
0.497962463588339
0.497660664811356
0.489617936171722
0.499354902340071
0.497879466282339
0.494936341934358
0.487199301592229
0.483010664835307
0.477251025764388
0.480180258162078
0.467444972726121
0.478710792368333
0.463653367204666
0.465227969456357
0.457911408193801
0.461171242511994
0.461448330722953
0.454183511749509
0.439234155541561
0.443656062015906
0.44444715614183
0.439292860621296
0.437273019994159
0.444899113280637
0.432529202689124
0.432970650739293
0.423381563583229
0.43102770830888
0.42633714932867
0.432121732833687
0.428051500921074
0.42513249813004
0.414915400698672
0.419240095137983
0.41201779760795
0.419604497680183
0.420010651995824
0.421723188331978
0.405939930870538
0.412574661681085
0.404885435782274
0.404801461516855
0.3952642473561
0.405067598867244
0.397617366123839
0.403859706816452
0.39629219170898
0.393409572236917
0.384042035784672
0.394691886215195
0.387115011983604
0.394889739189659
0.384408362601165
0.385529761601016
0.379475038282054
0.38627459001287
0.378292270122125
0.384081544931787
0.379194728557959
0.382310803145628
0.377967722441966
0.37637193952045
0.373505820825742
0.379910792630153
0.366024003819618
0.368913164578585
0.371069609237081
0.374221818161113
0.366272866772799
0.372879263117937
0.359627475326051
0.364708307225497
0.363373098943832
0.367425126010165
0.35406876731359
0.361774559089739
0.354607492277809
0.358392019402544
0.355916431303143
0.353154668698114
0.349244238833687
0.35952633298215
0.349479885602365
0.352786720596743
0.346999815549159
0.350655475345832
0.345586041561802
0.347869275292973
0.347657935452915
0.347787060403839
0.345096266230561
0.349816258176106
0.337170466139632
0.348847540413045
0.339422778711557
0.348282072361977
0.33515639861802
0.340099719899139
0.337060344378
0.340182810759522
0.327111101292446
0.334051938163983
0.332779439349326
0.334050286798638
0.328955465636836
0.332915777253193
0.326982559106943
0.334074843830972
0.322773287962235
0.333413107749304
0.327237587828766
0.32911441980485
0.323496190753903
0.323838874389454
0.327076256007479
0.33472600837757
0.325064436567796
0.329993299287269
0.32370170021934
0.328879713264157
0.321638248023969
0.325714750488561
0.319692737027789
0.323243368160744
0.320224974764856
0.328094997054593
0.322383543890392
0.324367428042881
0.316080572044125
0.327200131923928
0.318293717299612
0.323304299700811
0.313673900222646
0.319806699595425
0.311480272253246
0.321308260413628
0.310921604255732
0.31570676836096
0.314246464354253
0.313255612902821
0.314601647813649
0.312008812421781
0.309442577799846
0.318191207509064
0.310832532346097
0.314458969152365
0.307311241782376
0.314275414181897
0.307573426027132
0.308106210581024
0.303719126372643
0.306230601763959
0.301553662200143
0.306429226789798
0.297072070153482
0.305389671605887
0.297110293585784
0.300163735515614
0.29801200785733
0.30236372642144
0.297451996387853
0.296559212604355
0.292426592188146
0.298772493284904
0.293931659385455
0.299989986314415
0.289522852220627
0.295022158775987
0.285835611524497
0.292008840082773
0.28678796613476
0.288489321578963
0.287033944889766
0.295765425393767
0.291615106989784
0.290490924017034
0.282601790926019
0.28861788664449
0.279698587247503
0.288645272345954
0.283908721282671
0.284484172827709
0.277241848242791
0.287894699682452
0.274295433113131
0.277818543318407
0.277524834502793
0.281783384789271
0.269788266816473
0.279759658699793
0.272775952412289
0.275496347470297
0.265707137571535
0.273280778647568
0.26788662352084
0.274370030653944
0.263543225774831
0.272075056731133
0.264914193664503
0.273814456505034
0.267063619285157
0.268924272934966
0.26025424585383
0.260928858873622
0.258210113910088
0.2621893824815
0.259011955040018
0.261176780870929
0.256212338721569
0.259881894661414
0.253430079984162
0.257714925434897
0.253401026714089
0.256370957479088
0.24460698365061
0.253718286356177
0.243766154764717
0.249035889277879
0.243459008676262
0.247630605265233
0.240579457518061
0.246188872550792
0.237526543290104
0.244130644644194
0.239542239975803
0.238443768912232
0.23268692137559
0.242260310010472
0.234461884037041
0.234862404763449
0.22995067538566
0.238688484862823
0.231947901347021
0.238701125716425
0.229909600917129
0.23243132329773
0.225161553177464
0.233810120980948
0.222190758690591
0.227527374951734
0.225428510220901
0.224980374974774
0.223200350678662
0.228806097327462
0.224503941914922
0.228656770546554
0.222137463946018
0.22305888351436
0.215278724822568
0.21993594717624
0.217875569579658
0.22235436960314
0.215916800938269
0.220343719474616
0.214266662548856
0.217332897061737
0.219070137484204
0.216525388056574
0.209734485291398
0.215023682648719
0.207698566463571
0.215222973649983
0.209821941486862
0.213218104038607
0.208892144169846
0.212304390988928
0.204354370853731
0.210810622985203
0.200258901563818
0.209131457428075
0.203839532820901
0.206703059680407
0.199225918133373
0.206749877085055
0.204388722681804
0.205698539398153
0.200927900143155
0.203670788355711
0.195653620411826
0.203070216835792
0.198242444092389
0.203784974983498
0.199370542806892
0.198834156322379
0.19114546274137
0.200680801521078
0.19408560592408
0.198682678555454
0.193617073788232
0.196724908441433
0.188332416299332
0.19636771642
0.192279026972942
0.194343587246525
0.189731732792429
0.194742234336965
0.189572451078546
0.193785081511999
0.187862976185704
0.19371740216482
0.189237920889135
0.19278270984537
0.189602911738624
0.192621188165412
0.18810730423419
0.18927499660773
0.187529656465254
0.195363642326844
0.18735891925532
0.189669817026083
0.183247585058031
0.187227242843411
0.187693015523823
0.186737628282165
0.17919261806897
0.189465879133157
0.18460752391906
0.187233103187671
0.178686242307621
0.184736161134076
0.180828266769697
0.185514430798257
0.179445563073207
0.185134605861358
0.179718859544419
0.184233505067876
0.17502634736432
0.179617405027486
0.180687746971333
0.18140295023043
0.176623113233968
0.181640162053234
0.173448955806514
0.179770911705329
0.172078982174675
0.179138146820807
0.174583966252836
0.179011060889995
0.173521382624084
0.177803534860888
0.172071781325036
0.174000377832447
0.169048230555612
0.177257271353403
0.169648176149465
0.178578439633561
0.168095816551657
0.17269039298857
0.169335578824572
0.171929886203993
0.170699788912679
0.171517617987669
0.166724323504633
0.170432935130366
0.166222856040668
0.171601537603835
0.166778805179902
0.16653950607815
0.164852612687943
0.169269498092027
0.166010165533956
0.16742032593169
0.165257673273167
0.16529424834783
0.160962771433595
0.169078013928067
0.158394575654315
0.164622281822286
0.164388070283755
0.171145532262818
0.161361567645494
0.163211968743694
0.160425466487215
0.163811266603835
0.159852593500059
0.16606546395644
0.158105803977068
0.164169177276725
0.154478367569055
0.160473443099329
0.157179801033671
0.159752846791164
0.157677786166371
0.161988063918166
0.156906463125803
0.160333322188591
0.155298314760272
0.159400916289138
0.152826585012352
0.15771621233965
0.151622039488825
0.154970945171046
0.149367946167599
0.155514849327751
0.148661966785985
0.157184795828016
0.148972693973027
0.151619140915686
0.148994155700571
0.152614905065925
0.144434376660206
0.149675538700259
0.145014013047997
0.149856730817633
0.140764267201779
0.147242143748557
0.14292638560838
0.141986040018635
0.138585608535992
0.143789816131375
0.140419428634116
0.142150908964349
0.138256072817406
0.145653422162132
0.141265054180848
0.142208167110291
0.137563892371191
0.141249697196348
0.135319465563386
0.14170574821708
0.132866694403707
0.138305852470085
0.138167415621228
0.141610152665189
0.134391594898579
0.137849002440136
0.131956580184042
0.139052000896073
0.132468426879039
0.136040566230064
0.131147940638506
0.132706648330053
0.131765276943218
0.134541230196377
0.127873535677035
0.132222472239931
0.127595452135739
0.132512759340222
0.126975168203
0.131628177002744
0.124006035314681
0.131734143253131
0.124749498951581
0.131470577412883
0.124064321729004
0.126765484731629
0.125002412738842
0.126270690994814
0.119681042308887
0.126476076422695
0.12166699066463
0.124709128090189
0.1187239541298
0.122691562668174
0.118603996189801
0.128814186376385
0.1210702407794
0.125589227454858
0.116277114557055
0.122632626454525
0.115686911654768
0.118631260469815
0.116775365445619
0.122897937198884
0.11447686097177
0.117215430735965
0.111657083735654
0.120085934699008
0.111953189649562
0.118743957971936
0.11358353947742
0.114825911611352
0.113142737092882
0.117694349973725
0.110820444246203
0.11337032393873
0.112258022361596
0.117089803648537
0.111247923058895
0.115587212903391
0.109352607158631
0.113920627545146
0.106906218053938
0.113382953361868
0.107561190399837
0.114302158595151
0.107334950498233
0.112458149126125
0.109708036613908
0.112800536366043
0.1068014816028
0.109872572411885
0.106679429303717
0.11188108245837
0.105898045766832
0.109687279913438
0.108357233990763
0.111106391815325
0.105359911244604
0.11357555238819
0.105904603269594
0.107655354492895
0.106095175483666
0.110217168238428
0.105824933261512
0.109576158990396
0.106236352459243
0.115087507006121
0.105765870082227
0.114839572796713
0.103991276600956
0.117412144375872
0.100377417641618
0.107789945263908
0.0949300892266917
0.110561892249231
0.102441271930038
0.104907770047062
0.092495981629993
0.104947937925807
0.0987066270231815
0.105449205022721
0.0979544013186568
0.112140623899027
0.0962760758936692
0.107801923997908
0.0943484988398173
0.10965516151864
0.0897979492838401
0.108915769386079
0.0997785744647244
0.104280858722265
0.101888539636281
0.111249174919954
0.0903731718037215
0.101763063359674
0.0953463317854518
0.0998008658067635
0.0951527316660354
0.105635484335452
0.0867526436769248
0.102610038641734
0.0878625850939421
0.102578205013908
0.0872307590841306
0.101725237216566
0.0901882636675406
0.110646258117136
0.0895866272156619
0.108603840527048
0.0884587819213211
0.106419393020393
0.0919563389461802
0.110720495576699
0.0971251902813346
0.114925011773015
0.0896445285719643
0.103140438138125
0.0955263635605477
0.110423739918706
0.0945596861588925
0.0956313644960416
0.0944474181383871
0.10990146177747
0.0980299888962893
0.0973511418186205
0.0986589586759699
0.100372748593426
0.101022521070655
0.0902560479257719
0.105769357181524
0.092242019712797
0.105831516565796
0.0942290152014415
0.102036405977642
0.0954439522997923
0.101558697004813
0.0985634910645677
0.0950944620309109
0.100201710676081
0.0933888517977482
0.097653076173152
0.09327983312876
0.0982478851063722
0.0936397339017384
0.0975087925869502
0.0956918185017283
0.0945029808522509
0.0963368346684454
0.0965244052848921
0.0926325322517989
0.0976072605485152
0.0935154618329891
0.0956906412188389
0.0921069505614615
0.0958117270253423
0.0925418838025873
0.094055806408916
0.0933188023166329
0.0917688761630382
0.0904629282900887
0.0958097016535964
0.0909561607671899
0.0952277151322886
0.0920448222431844
0.0932881011673263
0.0929989449831534
0.0945340294711639
0.0915439717523205
0.0926673970351728
0.0889479983631627
0.0963721850808056
0.0920519027783156
0.0944046093946718
0.0934146469547864
0.096559583515599
0.0915369431021908
0.0974275789864714
0.0944590955481183
0.0942708227271164
0.0915438771372456
0.0961076583637242
0.0914207439916829
0.0932276897585523
0.0922524859838203
0.0940061806051997
0.0943672313622309
0.0946729059441833
0.0944391174948456
0.0955675460098187
0.0915943123649785
0.0965653195764333
0.0917048813551126
0.0956968650830367
0.092670261897251
0.0942514345991708
0.0937881223582217
0.0964974426859839
0.0904467848866723
0.0935060225169844
0.0937309502209895
0.0967522044318362
0.0925388799216488
0.0946652639064418
0.0944426240170585
0.0964247812044962
0.0916405433536284
0.0951480530870929
0.0922838011771913
0.0952768534416759
0.0910642431084515
0.097063695335509
0.0914038605475805
0.0950999164998198
0.0910715914922322
0.0968226373452984
0.0933212706326636
0.0976830538381567
0.0923537606668075
0.0977301015777518
0.0937016156304616
0.0983309819342727
0.0940916465039798
0.0955951032824862
0.0923552681368566
0.0997221094846378
0.0933189855029401
0.0981769858840521
0.0951110881372271
0.0992029030555881
0.0902891524080612
0.0970248384507678
0.0933219059027667
0.0974702242990024
0.0954156332835055
0.0982138352030591
0.0942479679879733
0.100183433802492
0.0952513955071216
0.0990043214177686
0.0948277789085685
0.0985546664104283
0.096533778483475
0.101015792185634
0.0970009757453208
0.101689607936423
0.0959821869000582
0.100392102895707
0.0951667190561337
0.101037416332089
0.0958251782124757
0.10004050046206
0.0981637406179735
0.102396647442476
0.0961290800775111
0.100165610762028
0.0989705698955383
0.0993993252189605
0.095739875685116
0.102156275466339
0.0979025155135639
0.101689187149935
0.0952434614776556
0.0996310426256078
0.0987077686777762
0.101877874113559
0.0972193740648448
0.102501482869293
0.0980206316458625
0.101287481376904
0.100001817491379
0.101940711126918
0.0972648283292723
0.102809613077836
0.0997277436172733
0.102737154343418
0.0982572806999313
0.102329286206441
0.100088066328018
0.102252919095039
0.097105384409932
0.101100244791613
0.0993700135636107
0.100409152418407
0.0995027451633187
0.104276525833155
0.101697339628179
0.104743814655512
0.0985987688165962
0.104601805810775
0.10195852394933
0.10539841767353
0.103632992421312
0.104306756805117
0.0991283017175268
0.105080859714104
0.099719270864678
0.105598453647368
0.1051411587555
0.106439013339864
0.10296838653464
0.106599472885832
0.100063659931041
0.10658324972373
0.101161823970979
0.106030133055255
0.102439066306384
0.104908720961907
0.100599291507259
0.106832885416632
0.104555460044369
0.105444686538988
0.103433584841276
0.108258734802764
0.101860266554983
0.104645075883718
0.103191847666752
0.105153190078786
0.100440822018269
0.104575271438059
0.102706224596463
0.103974073643069
0.101558938938322
0.103213181002355
0.0975939521297031
0.103091593583698
0.0989171372064806
0.102052105171086
0.0968348758933456
0.102106835774142
0.0953098516977741
0.103478354216068
0.10047715801444
0.105058994181799
0.0969835841498958
0.10092390547537
0.0969631901934443
0.101338290020954
0.0965754287716607
0.102086964756315
0.0955055442646713
0.100817589806367
0.0954810362780493
0.101720951594851
0.0976017875617186
0.102411784214784
0.0962214615664894
0.0981416021260768
0.0963678806165658
0.102027052771603
0.0958548181245584
0.0994545785928502
0.0984055115154964
0.0974460968498024
0.0977370751470607
0.100424489479015
0.0934638562811594
0.0990545249481974
0.0916255493113049
0.0981672839136667
0.0938077298637374
0.0972307676914996
0.0942853983752571
0.0984521116765449
0.0957475962518875
0.100013576107613
0.0949171926780065
0.0975833068257332
0.0948426722130037
0.0986564767284241
0.0950971025777662
0.0992766640826746
0.0954812704477797
0.0987266936796991
0.0917639970641973
0.0983074623490842
0.0942613022813962
0.0964295850317298
0.0928786155306967
0.0936220516300623
0.0911932832084077
0.0961779463693247
0.0954997064797194
0.0983953102904465
0.0927362576083544
0.0959253450492243
0.0937569373543838
0.0947616195119636
0.093157171772351
0.0959134942490323
0.0943925560125767
0.096800591737715
0.0913541223428415
0.0975809158772877
0.0908325278841362
0.0968975450635886
0.0919620612100358
0.0951647099263452
0.0950202259867407
0.0978086917147585
0.0889712457171235
0.0971666440053724
0.0898704582348224
0.0934069003099118
0.0919901727826223
0.0946873073638047
0.0932185652501152
0.0958879829359425
0.0911792596834313
0.095539655897134
0.0926763948815205
0.0948578517590306
0.0905722877954136
0.0938879149887151
0.0878061391040966
0.0919138466283812
0.087880047300844
0.0917701493899756
0.0902277973801762
0.0930594279283038
0.0893083963407274
0.0945066856741949
0.0885139250158751
0.0906148800532705
0.0881759539069583
0.0919539468876016
0.0893855184269154
0.0919973740439262
0.0855480470274374
0.0905842984986927
0.0898741123150217
0.0926730586996711
0.0852664134983995
0.0902095874690446
0.0860642582137856
0.0899640727130762
0.0860321751652322
0.0847618470122235
0.0843375064675353
0.0864003086466191
0.084988628195278
0.0889999320053769
0.0827581199185947
0.0887645504035281
0.0838941594720378
0.0839861190424357
0.0851458082124633
0.085022493519313
0.0809025461565639
0.0887355375897595
0.0845931196063193
0.0853638388858995
0.0803991859538248
0.0860454736916109
0.0807413599649019
0.0835372766840731
0.0792118472421465
0.0821233573488959
0.0791533054492276
0.0849547129375466
0.078919152194664
0.0811277216182022
0.0779238591514735
0.0800197086500178
0.0793497552715091
0.0806877543158567
0.0773242811422366
0.081683291877309
0.0767272321805804
0.080694238016254
0.0763284429409237
0.0787822765099162
0.0772101320345266
0.0792520310215394
0.0776218599833685
0.0765209152021897
0.0742611206877309
0.0871478504353495
0.0746649799958226
0.0796078088279524
0.0745003807493507
0.0810563277307834
0.0753054575182616
0.0809458451289443
0.0740678815658574
0.0767764698136532
0.0737875392930563
0.0793438317847481
0.0735036863003882
0.0778750965107424
0.0745372905437228
0.076822822260696
0.074844092378721
0.074340193978509
0.0708857740689502
0.0778306990559058
0.0731737274478732
0.0746592919442975
0.0715817694538633
0.0777322087213269
0.0707378214101855
0.0749682903876895
0.0698490086816725
0.0783928191828522
0.0725101692845107
0.0764500926897889
0.0710385507294311
0.0730892259157446
0.0695220399551705
0.0729549202564808
0.0718321251573395
0.0753471356636786
0.0689551202982268
0.0735746217371859
0.0705550268680668
0.0761497399846201
0.0714131753121442
0.0728099601776053
0.0682200208054999
0.0728652320619362
0.070173970720369
0.0733773353147915
0.068735379257702
0.0734830738036702
0.0661905895802532
0.070714865222
0.0696895873559128
0.075306412785054
0.0693865829056504
0.0713534661535133
0.0845952144379177
0.0717846120393486
0.0695550974345095
0.0715314274342659
0.0681356045324893
0.0714555072388868
0.0664257650727757
0.0677662559481678
0.0687516549566402
0.0724268212606559
0.0694903604739449
0.0687431618529536
0.0689740759936169
0.0720474887985925
0.0670415356047869
0.0693010037149471
0.0666462332875249
0.070386511988458
0.0651501008442517
0.0694850574491835
0.0686314407469087
0.0760827802693949
0.0730656495624418
0.0684688330090811
0.0704621865036687
0.063871425192999
0.0758457290358898
0.0770704279164602
0.0669165025381493
0.0712823186717781
0.0654351553218021
0.0741298749583907
0.0641328333314844
0.072544590162536
0.0632045986693585
0.0754485093725719
0.0660964165431039
0.0727805488482836
0.0654344677283097
0.070134669907279
0.0651940046809323
0.0712077099292486
0.0642825337488215
0.0695069555727518
0.0631867009584525
0.0693869289036126
0.0661342761361653
0.069664907435901
0.0637921258778065
0.0704051852318115
0.0622036752096284
0.0755728973244868
0.0655052506828718
0.0685245739665388
0.0656748252174206
0.0693116887984821
0.0656338970512159
0.0865821638732965
0.0640424139576457
0.0727234458504306
0.0649489336194874
0.0691550306976289
0.0668570492144182
0.0714612874956919
0.0655589655093651
0.0692939348900357
0.0634032685086019
0.0701460020534385
0.0648247345516314
0.0686613855408904
0.0648922837719201
0.0676762801662586
0.0645558831273165
0.0686321929257916
0.0670855929379873
0.0681837702902612
0.0686091543629845
0.0681283917585241
0.0672826766981289
0.0910615169252156
0.0700207578088578
0.0795888522855595
0.0657462237949872
0.0721671962413253
0.0623556106709771
0.0707993419457351
0.0615468173056797
0.0741494002377351
0.0623525706076486
0.0694621356571202
0.0646731236531573
0.0699116734324777
0.0604642342890912
0.0716605138365749
0.0627117181647434
0.0728664383602039
0.0616421659458086
0.0739967466804016
0.0606855012638144
0.0740321030512657
0.0608003989695357
0.0765364144119886
0.0670869912409448
0.0742855107233138
0.0611504353769132
0.0850105328214982
0.0942437957778336
0.0660417382271955
0.0780785280070262
0.0688377382796562
0.0710167145314983
0.069361885038413
0.0691561081296258
0.0740968844671198
0.0692947465945906
0.0672041177604467
0.0696734572507368
0.0711703219790957
0.0703015768827093
0.0683130495645741
0.0627149167165059
0.0941618451110684
0.0755881232156154
0.0737989638563077
0.0684417020168242
0.0655278296830707
0.0879600819043156
0.0741353161480917
0.0736943877513815
0.0775668335248362
0.068431706922844
0.0753523713997098
0.0705169971309395
0.0740200263657894
0.070086383524749
0.0790596989814035
0.0675646781260814
0.0755113224694336
0.0680957563102781
0.0797732714681815
0.0715477389642582
0.0812297471446768
0.0810292185558249
0.0756130277570434
0.0735799043662
0.0789573959866972
0.0702445421417401
0.0777776640212429
0.0709336616414357
0.0767864975168201
0.0773736568014643
0.0894798530771357
0.0730434857735369
0.0882108388171353
0.0816030108704137
0.0746078894441814
0.0776755446483623
0.0830301031839238
0.0785428890145971
0.0818186223032678
0.0664752176085947
0.113933816562593
0.0726350940142649
0.10535293198531
0.0733563665306973
0.087620809004887
0.0731947565325208
0.0868190013505163
0.0681877408630723
0.0931773017810594
0.0832264556217011
0.0824704340199985
0.0806146908144289
0.0848194382980244
0.0932947912754992
0.0822655114698358
0.0853184120641393
0.0830398521663012
0.0848211763054451
0.0877594207136905
0.0918344570514
0.0728243297855542
0.0996877522179595
0.108137770565151
0.0911752918173473
0.0998105115230143
0.0746891741899133
0.120825806118599
0.0868698674379081
0.0908481236238301
0.0866099866737208
0.0852432208854782
0.0901759610123387
0.0775930646067304
0.106477169835862
0.102028350161911
0.0847142670625135
0.103512315455633
0.0828635435895929
0.110398814902178
0.10208213738239
0.096725455170437
0.0923366271671845
0.104031640544816
0.0854743990130052
0.119390839652944
0.123844179114453
0.0962515511679675
0.130073716077976
0.107281973422264
0.118848703151975
0.108368866328855
0.110970644585893
0.112682153595816
0.127141922008529
0.114655388622506
0.107963565687883
0.11117245150724
0.145194032770857
0.111171824062731
0.121066297457404
0.118500872125821
0.108188945896323
0.141358650747913
0.167938527369148
0.144088979258324
0.128675736482158
0.122138331124071
0.150334932681936
0.134073779692619
0.130039491314519
0.134177979692323
0.129613461104596
0.134259592324453
0.132221179741127
0.147394854529792
0.139448544179854
0.138293269362465
0.145158742457145
0.133097009477005
0.163372362948493
0.172774258991143
0.192299731535268
0.153224598561507
0.182235932987326
0.17699694304487
0.161515753219851
0.165103967642376
0.157955714043812
0.175778570235808
0.169173688875179
0.17271087111228
0.165985594709538
0.188862926469936
0.195665209248258
0.169467480601927
0.214012406496188
0.178963029779822
0.200336333810738
0.16438772124797
0.333801489962696
0.233837885223353
0.211215431465104
0.237538665036973
0.190828797599594
0.32348642856151
0.245614560290861
0.248186163312559
0.25076603773458
0.262275204757095
0.27011848032609
0.285999962380684
0.2826407579007
0.30986687303433
0.304637381241058
0.306291054242527
0.302504519583929
0.394318078557814
0.357336715332983
0.381066946595098
0.348745965325124
0.381941585979271
0.383270525487068
0.388355308698743
0.38658467212056
0.410113920344818
0.378658602553231
0.499166859629039
0.421535274582938
0.452309384211064
0.443578693068722
0.493584138316622
0.45380625824869
0.511251452672998
0.528639384973456
0.491219221304953
0.520133897755417
0.509334910042054
0.532004175500186
0.516533896639926
0.573397154523382
0.573851249837971
0.557565597348223
0.579656664590926
0.569164761301806
0.600947376213191
0.587677613342774
0.610901246209627
0.592437653372639
0.650488790897078
0.629464329407875
0.730197631761383
0.668222290264925
0.622400957058178
0.650074806089642
0.615784980827553
0.66135175833436
0.657389611838827
0.650107489297874
0.675439373550785
0.620302598740601
0.644670061028391
0.626690777178887
0.652576476545615
0.632320834913854
0.649602469691915
0.646770189256225
0.664218209768861
0.662954911669134
0.6063181079897
0.732631752473298
0.638223865226374
0.632843352076609
0.629463695950917
0.633953035235364
0.633543555970555
0.63606908293934
0.6132061382328
0.646735618936631
0.611618930890053
0.623566637833231
0.597098808128963
0.611288366006643
0.617388967666251
0.58553800084333
0.593098694773106
0.568444463566772
0.56805575993851
0.558050223753331
0.534900923283361
0.620937933455723
0.55356887256949
0.555865311480399
0.541808306300638
0.520797438624676
0.536434816241018
0.526254264570247
0.522268457455384
0.528962963634381
0.515210312985301
0.521914985285972
0.515342126249062
0.50778342160219
0.500040013058904
0.50729357087901
0.517681085396133
0.502119913554155
0.505743248546795
0.486334810157568
0.499323566035604
0.492740994261826
0.493677188670551
0.496472224611022
0.498171129800455
0.503296445179206
0.497489598191104
0.491696451888604
0.497002008895846
0.492199732290412
0.487160441449001
0.488135152878083
0.490698413928702
0.486842806012035
0.494672587727224
0.481872053474351
0.492370343491809
0.485965721375095
0.48891261079888
0.475650873319743
0.490447325546707
0.475374521227386
0.490582891965253
0.468747884688211
0.507125934760769
0.523392652217109
0.460371742452201
0.491241956950638
0.462872313140178
0.479373680860221
0.462654235771785
0.508568311495716
0.504462806378471
0.462370636206177
0.463428302388565
0.463323007578115
0.469099451207503
0.476929833082629
0.450669966810064
0.465960814915667
0.446940542360878
0.443911433142662
0.577155411478127
0.447162639259304
0.555634546625179
0.458799657226383
0.459587422193728
0.421423339788049
0.495844338555368
0.43951221052004
0.448697881390487
0.44179966370904
0.463322514801885
0.46262824829745
0.430462845253608
0.438303303086106
0.430501283907761
0.429079581164734
0.464184355789065
0.43280472424562
0.423647985289099
0.476788066012347
0.435776774933175
0.465513531533241
0.489655221731675
0.445431324477092
0.410845763439325
0.41038165245572
0.41002082734351
0.391779451914789
0.451447529269312
0.404341173030087
0.396043881231033
0.388486549103636
0.371158899257658
0.383764584129115
0.378323030351924
0.395470878863564
0.357138088570913
0.412192338042583
0.364364152295417
0.362321664662664
0.3840863576026
0.372254559105903
0.404659035906708
0.355202251439642
0.35593915364698
0.35499435595658
0.399952682295648
0.346086444237257
0.358577548371886
0.333580951965502
0.32823173502065
0.351493113545217
0.325331349679192
0.317549909348447
0.343175218257845
0.320166650009128
0.364778218923395
0.365302878329704
0.355515328889152
0.320984811464347
0.305172759656144
0.307505350326586
0.301570849949639
0.300160571061181
0.303360067435903
0.292569071844882
0.330904855595335
0.273207102531638
0.355653370609895
0.308654719869794
0.300314013704792
0.308462248510931
0.305132587688644
0.305079171069713
0.337549774344657
0.336768292675775
0.339585602543751
0.30911971307719
0.350841575073077
0.31773352268934
0.340151467530989
0.32366700733572
0.34080771032731
0.333279202504186
0.357754413807871
0.351201266381187
0.364800437841819
0.358884725848477
0.389589249475783
0.367125324024412
0.428710803529858
0.376307799151719
0.416413491144571
0.431165808082643
0.444329192675908
0.450792999879195
0.425191532992151
0.441123931481519
0.446586245106992
0.455322100682402
0.459293241244122
0.445202871491643
0.513064491176222
0.467811411284394
0.491985958432454
0.485254521165019
0.487712765008771
0.49728351670049
0.518695471314485
0.532626408503324
0.513005111869898
0.579974805280961
0.521003295980102
0.536826238509809
0.516483584891116
0.532307179089521
0.542809372739485
0.522437071666938
0.540537149997976
0.529063614220644
0.553943826498338
0.54938838240509
0.541482219473394
0.551899810643636
0.541356604246734
0.553782907697697
0.560169029566695
0.558962072565579
0.56948764081385
0.555568742681736
0.58264453981978
0.544634244003512
0.641983991252091
0.612699151924884
0.575676868896983
0.599068078589615
0.58367062188175
0.609186051679119
0.5932833059261
0.614020971100101
0.617522664420549
0.602983628286382
0.618354910285101
0.613976066389344
0.619844757860402
0.63511553822503
0.654963373648692
0.636484175896791
0.635655973495989
0.654507389153697
0.609005520846894
0.72750272498905
0.64952422836817
0.673471831397658
0.658033685578441
0.667597300026022
0.662301931985402
0.666343815173365
0.661311785973945
0.668994265518825
0.66188132754578
0.666614773908714
0.670867065003027
0.672066578405976
0.67223276174606
0.66346850948147
0.68545545712895
0.677459236574237
0.669328205925216
0.674115311517116
0.671150646925167
0.668873145394143
0.673275543492577
0.687785291425826
0.661751898659399
0.675447962476039
0.664858270877349
0.683561252120364
0.673565736537234
0.667291394991285
0.672037498577373
0.667534588588286
0.659817776804288
0.672481659219558
0.661551262778796
0.702931061164466
0.670610655846595
0.678731400499475
0.67965753354468
0.689085038807536
0.6851694681021
0.682267751221335
0.687302301704683
0.693148249211694
0.697514952604489
0.700582432844234
0.698682880920927
0.694303245661986
0.699622250506431
0.707551499941433
0.703406481365899
0.687003736526058
0.686841876379853
0.701267484915917
0.687142076797068
0.69492977174694
0.679193741243531
0.673119680578292
0.666329488986513
0.668159705811863
0.655787649318831
0.683046224078006
0.653350709522725
0.643723545499594
0.657404782202314
0.623709168394535
0.633329625072078
0.62818426951612
0.629427990328739
0.620434745075531
0.622902793640721
0.616939746947674
0.608989422884404
0.61174915532733
0.610155047195112
0.60344583577946
0.602980227764538
0.597929751433337
0.598045890962322
0.600637278147189
0.599526706103266
0.598468844169249
0.594997051036765
0.602712572756685
0.592514285330474
0.599666239559615
0.617514790387801
0.602219127995475
0.611927638957103
0.597601359972958
0.601097638400262
0.582638126253781
0.596111936671891
0.586518242069573
0.593080885701904
0.587125092813106
0.592739555679288
0.594342658524077
0.594843866725956
0.588554369923144
0.590303057428203
0.592497893406503
0.596153740209542
0.586976442467655
0.589200301916319
0.588713308964339
0.585612034847301
0.585953455249028
0.587956022439726
0.592054919185237
0.580979668684887
0.593135753440819
0.582573877334835
0.587984914434461
0.585836749820899
0.587379679865542
0.592394119000277
0.590906813575049
0.587651416783857
0.584053325100307
0.583764072989605
0.581083547052498
0.584358854846046
0.582259124255548
0.586633808631782
0.577635026878935
0.575824855411568
0.571353374708645
0.568284923618371
0.562138461322921
0.555773777528167
0.553466565979705
0.553225744290316
0.548370494722201
0.542120928919097
0.538726117400862
0.530183191288002
0.531837812902023
0.524318380333891
0.524128395704135
0.523744209989167
0.520530871404929
0.517558410451826
0.520188144512309
0.513424175429405
0.508507784549376
0.514130544350794
0.510245130089751
0.513195131231466
0.510884002427647
0.509963000360268
0.510585024076481
0.505854332487179
0.51150649410934
0.509692647287426
0.51101877922035
0.515392443214009
0.51509464380787
0.514210316339401
0.521745959666817
0.520276980230816
0.521857821190991
0.523311987996607
0.527810015305667
0.531861106234792
0.537536146166886
0.538020909251575
0.540014717950055
0.538734030992563
0.53873675609404
0.541487002507363
0.541466556422146
0.543309656708228
0.542494813218931
0.543665877950955
0.538985023848038
0.54386059163684
0.544019218141862
0.540856298826085
0.541078141768346
0.54421249205895
0.540386120425645
0.536337647445708
0.536908889318964
0.535424225910514
0.530633171194781
0.528460780337979
0.529185586547817
0.529004609520653
0.530621764134403
0.529282043720169
0.525394879840089
0.520681127425709
0.518264431499315
0.517250282030572
0.513100088803928
0.512066626698347
0.51387042216378
0.508022096938604
0.505064114861721
0.506052574617877
0.502489276505528
0.500648743851277
0.499218291790517
0.499342921118989
0.503707035886123
0.496859531341322
0.494592441665481
0.496653037430141
0.495457714023739
0.493056539121068
0.491667131238932
0.488888135322249
0.488707306116692
0.484362334829491
0.47898773603296
0.477333501970435
0.475845746168436
0.472460789096811
0.46582934271658
0.463891286280937
0.460899674740541
0.457968309063364
0.455020286495689
0.45089533532659
0.444591497723612
0.443717146767
0.441578565609993
0.436652227319509
0.435493326468925
0.434740879339843
0.435507018181268
0.435383128677243
0.429811860591284
0.431827773351665
0.431826538982671
0.42978060641424
0.429894112983597
0.427725156021915
0.421088249440887
0.421557740039068
0.416652194078387
0.415372400014515
0.408149425498529
0.400134199321399
0.399464436809684
0.38913719227605
0.383616470938923
0.382915989431652
0.381369269380394
0.378636273369978
0.377601976216035
0.380117765274939
0.38274900637483
0.386276657961057
0.394172027294515
0.399278105768849
0.408715253347286
0.419864251183273
0.431026749816625
0.447844041902168
0.459906764238261
0.477546357553261
0.496414415935148
0.515844340244894
0.527528120217095
0.548800342972995
0.570199627372
0.589495135083974
0.604548702820457
0.624258052389219
0.642232947839419
0.662209421285446
0.677878362905176
0.691546073439381
0.707440312547078
0.723526472864667
0.745337163779048
0.759767970309813
0.766518680831165
0.780425787080187
0.79537368980585
0.807057483188262
0.819722406999797
0.823052340526093
0.831560928645244
0.837533421075083
0.8444852476602
0.852100439053879
0.849530020344797
0.856987633638997
0.861027214290444
0.86200913740688
0.864051813755969
0.858801805019473
0.855667254940945
0.861679745364819
0.866160596011269
0.866682925603376
0.875021729993122
0.873431118693469
0.869633604132424
0.872920362117466
0.878862619515452
0.888009193526722
0.900003363111311
0.895001862838596
0.898109959111642
0.901349809816564
0.91681883940379
0.930847667416514
0.932455918548242
0.940907179552418
0.946512312189847
0.9666244435824
0.973280701194105
0.983211846413941
1.00776501780939
1.01528418543547
1.03281391565268
1.04726012148608
1.06392743590798
1.07115851669924
1.08117451977998
1.08451668229529
1.0911256246739
1.09437435443406
1.10437017933431
1.10860806663894
1.1079084662388
1.10397205548641
1.1028442904934
1.07788853419985
1.07577609599062
1.07691822783788
1.08427548841219
1.08310861287906
1.08428519184835
1.0986866528844
1.08384393004976
1.09659938947873
1.12539127589762
1.14612701193483
1.13591624503341
1.15796620555546
1.19546253873415
1.19149410434076
1.20009675213824
1.2234784659521
1.23839860708137
1.26173532510955
1.2861243243325
1.29345867682872
1.33136372683632
1.33875550921046
1.34514356260741
1.36430260376374
1.40360127967068
1.39750601067618
1.41410969003352
1.45510240052653
1.46924978299683
1.50104976662229
1.51377679139907
1.51901322434317
1.54725345984457
1.61153479434777
1.62214905857843
1.6348356496251
1.71502138030406
1.67330165222355
1.69962218530316
1.74367282109352
1.80584089089292
1.81621317333257
1.76312517108539
1.75731662843792
1.80500633013831
1.87188476556503
1.83184310412937
1.80243338271394
1.78679079748174
1.76677049471627
1.80219710000778
1.78479844879106
1.79402856869569
1.72730522507148
1.72007901122481
1.82601895353725
1.76532667559999
1.67306334524682
1.73469807648489
1.76169565436535
1.82953151018334
1.86507192661539
1.75488372464461
1.81159228368943
1.85767415006103
1.83152674256941
1.82447697922747
1.91585979700965
1.95098351073317
1.82959053731494
1.90347296817138
1.89265238803553
1.8578705229189
1.95208093077864
2.02455460304951
2.0489863201109
2.01564767118382
2.02299508103422
2.19323626149824
1.96456249738611
1.99420100343926
2.00801814004787
1.92799467660674
2.02942233981738
1.97791536516918
2.04553036291837
2.18960361154574
2.0103933153907
1.92329611268934
2.06842714533238
2.14542489553798
2.26092522102292
2.16554217585156
1.99854345667353
2.06688831527094
2.00417326457408
1.94681570145397
2.14437036520082
2.12887830597547
2.03402873167232
2.01529888026337
1.96464084913726
1.93728285327145
1.97098004459562
1.91471029916326
1.86189681077253
1.76928877555037
1.73981691565692
1.67832546230846
1.63041201618708
1.62634748348197
1.54264010348185
1.47150093136198
1.43468636708546
1.4095772020156
1.40947425166277
1.40066742219971
1.40101308991218
1.36953273020116
1.33856304831017
1.32784892244353
1.31300190071055
1.3266200234473
1.31184858020831
1.29622135873077
1.26698445938532
1.24247813286657
1.24891148142347
1.22577517782233
1.1950297123101
1.2119618738284
1.16857881021389
1.13364935594159
1.13189972424322
1.09342979964895
1.08251536038637
1.05106446684141
1.02959511204955
0.987797980965801
0.953681208877294
0.929017251945154
0.892115096230984
0.856526134929477
0.809772995870708
0.778939356588652
0.745228891121493
0.711576302175173
0.690542016866202
0.655162454358511
0.628499618160436
0.612208345904181
0.590041365967776
0.565534590549088
0.542759964445806
0.531350262441213
0.52044864379542
0.503303134769183
0.495079071117653
0.481428263132922
0.468765758431339
0.469213044769586
0.461279646720804
0.455093531604942
0.449468148800219
0.448359675451706
0.446884626983833
0.446427948958398
0.443153216679442
0.446059006984179
0.456429388499473
0.452043412733379
0.452973686341218
0.453253947161304
0.456462626644981
0.46005087992061
0.45280375844192
0.457007689367881
0.457818535596902
0.450535471670602
0.444476028988127
0.446104545547915
0.442990059541758
0.442443724489169
0.435616911441561
0.434375461472814
0.430373262140745
0.430453574625275
0.422723872018942
0.417981400626253
0.424777461841513
0.423251532321149
0.419259449540419
0.423473435376963
0.428204399146922
0.428450239107019
0.430989569864564
0.438164571222168
0.438383665489519
0.438028234213592
0.437803914493013
0.445552272301037
0.449560346065839
0.449915096826865
0.458704227916465
0.462133468247723
0.456286378217804
0.46012550146957
0.471347044299248
0.475068585519093
0.473434467711893
0.473435024916332
0.474719297168132
0.470374321604278
0.473212979984284
0.4786983027619
0.476361608067487
0.476491822067316
0.489146212653032
0.49422987200403
0.498034982873427
0.507141118124943
0.504744759009356
0.513772792453634
0.532437502749041
0.542508289954843
0.557803119283417
0.573677860005919
0.588230821225723
0.603808437002809
0.617196217053051
0.629500977297843
0.636279535011858
0.642332231735913
0.641761313950617
0.635655948395043
0.63971231941673
0.630161964849752
0.617333620156808
0.606727106015136
0.594746138524833
0.580731911461456
0.577606927915392
0.588759843381036
0.578072354424826
0.563116837088972
0.575493742814838
0.573428124299385
0.580263833288663
0.58414532397016
0.568557073650049
0.574839376355115
0.567806416906276
0.570321197614287
0.572209254757477
0.564248917390162
0.560870185796396
0.550108943263957
0.549440763528106
0.550776083551013
0.543545300349417
0.533166246585458
0.535342905402702
0.531806085985156
0.522656961376322
0.515431140482417
0.517881993691854
0.524505078067178
0.509447375037519
0.507513400239494
0.506956223910283
0.511791953307533
0.511568576345492
0.503193905828651
0.50377285743165
0.496969196637535
0.497551761542467
0.498136727483593
0.490262047006561
0.496564509053229
0.500854423352236
0.484545317351775
0.488933156914032
0.484187967374265
0.485182765592496
0.480617057515089
0.476625291436932
0.483021449568469
0.482503426016997
0.481793031270779
0.479283969187458
0.476279247933472
0.481449989845117
0.482710075762864
0.463593214111762
0.460436220285736
0.472635334715913
0.465070395398982
0.467367055959783
0.462228259412436
0.448608527790907
0.449389256409638
0.454403478788813
0.447458912889114
0.468398508820467
0.468131086036976
0.468746203194438
0.473320623666614
0.466621905801781
0.462024611240031
0.474548668138372
0.479136519806864
0.464380874973313
0.471987312875007
0.487189941938902
0.487022560590244
0.478289652826486
0.482508147869629
0.502652992570588
0.492336141602058
0.486360691786655
0.499702626146042
0.520097633031817
0.507356667859457
0.500051606510815
0.520611621079579
0.544049109919077
0.522191964742177
0.521497539368941
0.543136629998545
0.540696479232544
0.539383558610813
0.568040427542531
0.56831006156935
0.577735073740655
0.590909038535266
0.597117259564475
0.61153295930916
0.631657567579167
0.636352624422142
0.655873459969683
0.689171779437423
0.693208677928915
0.700256745615139
0.740017146077447
0.756146574745788
0.757003038330147
0.7453363927783
0.802318460479974
0.804010632980814
0.819081929421978
0.7929560325551
0.799484221713147
0.781087871659522
0.792815954090346
0.758513187055463
0.784000730092708
0.777437686966941
0.858488958007116
0.781345882289508
0.746486485578913
0.753541937024137
0.795058448263534
0.79689824733283
0.771285847326075
0.764473847690355
0.802009737659779
0.747007199730261
0.762101797577226
0.756448851626716
0.744439193083551
0.775673995435356
0.760495181774464
0.730413834500817
0.759730786020835
0.759471558585285
0.75854070580642
0.718041414327946
0.705770577419335
0.711483256655204
0.764839518891686
0.705555703337347
0.717968405686535
0.687764404409453
0.709396642726699
0.68649060211167
0.697622897931616
0.696558981332757
0.728150097760573
0.763460984187097
0.727116109183438
0.701670313752239
0.750910078663649
0.698655173913374
0.702701523276953
0.703357438695746
0.75455873128309
0.792584940848365
0.713839514612097
0.736107597223288
0.812421077509923
0.793628641766518
0.764386992731444
0.754600995264977
0.742570290701556
0.776151144454532
0.712272470103374
0.73413007954221
0.726347347349491
0.745927979411885
0.760069106077108
0.793261630089185
0.82489175436567
0.75841562133247
0.757398852823328
0.779373315462478
0.797831814638642
0.814282631595845
0.784496213701569
0.74441031673209
0.819727320389945
0.835339801756179
0.823564044881728
0.840661914755054
0.924491667095996
0.814144682397235
0.947441359225108
0.854624146162246
0.825358247030295
0.838437277691931
0.982077684680873
1.06306468047653
0.945571314853904
0.890011179450509
0.933288919572518
1.02309207741491
1.10527370838282
0.802688668787582
0.974443116583153
0.97296409834858
1.21680177196104
0.921037182522149
0.92084189191387
0.830518964322884
1.01077002617144
0.925752020682751
0.963188389303065
0.849272826703992
0.838367941279854
0.769651345045271
1.19352529876211
1.04058367141344
0.985572077908089
0.834899430285344
0.884831319358028
0.977542286648585
0.982933191028076
0.960901665424517
1.33400071098774
0.869125597978859
0.904662173424116
1.00034748335663
1.13583745777334
0.824175954637792
0.946810845388913
0.830568881493583
1.71310183763893
1.04142467863202
1.05962252877385
0.767000821302769
1.20780475134534
0.976367040225994
1.06370707692341
0.959419566161418
1.25449840614886
0.707719726555197
1.03924395876543
0.961774661831095
0.698980709280899
0.758417208286048
5
0.70391925994996
0.84850619877475
1.05939444318127
0.987237624743482
0.816716665942793
0.663890224173154
0.917472607907093
1.28248744381707
1.32016038335018
5
1.41365329016574
0.637632709753457
5
5
