3596
4000.36533379555
650.420452594757
1
2
2
0.0773808791037755
0.0715508630086538
0.0607705873139956
0.0612802739103876
0.0759873507850228
0.0595703717459359
0.0637307116779419
0.0670330835477381
0.0634101843521559
0.0694251542767639
0.0664248324348789
0.0597280303363919
0.0664190582214363
0.0590417383511495
0.0630460327102975
0.0620087956254863
0.0600334088684555
0.057069375961456
0.0726139741678726
0.0684575084136174
0.0555605119676911
0.0659032524324972
0.0630842378116611
0.061172268730492
0.0682730084644961
0.0708778762265054
0.0661768044045465
0.0644957292946284
0.0689665060729092
0.067566692674834
0.0601193807505301
0.0697016828947979
0.0727161499534915
0.0668713918151472
0.064583410685556
0.066466823809397
0.0680386596253048
0.0689787023327397
0.0604368449598275
0.0704975729949313
0.069597663428335
0.0661330072957901
0.0665483849688002
0.0606620831483767
0.059901016561744
0.0587887814685308
0.0664066667249997
0.0581970669348044
0.0663267901053429
0.0689939289648654
0.0663397767435754
0.0637795858274282
0.0745803693561573
0.0800038472705537
0.0670079548754768
0.0745654258550878
0.0658174298827822
0.0711435549742249
0.0667094875010371
0.0578096656546397
0.0770672098749167
0.0757488848827778
0.0663354994232808
0.0656615230407787
0.0633783757315593
0.0612276856219303
0.0498273813996883
0.0714100618557208
0.0519906119146465
0.0638464645596652
0.0543823373127955
0.0782926995221582
0.0728240661218566
0.0713532971155416
0.0639575606113302
0.061197031446518
0.0538206697919126
0.069241481777344
0.0602955331439453
0.0816155230897379
0.0713813243984746
0.0693493614808042
0.061537135586834
0.0579264118811994
0.0686826950592223
0.0760667910194962
0.0504295998847721
0.0803023142194267
0.0795379300405005
0.0689942358529941
0.0577634379187326
0.0622580921643522
0.0529717793749412
0.0628874434554111
0.0542959762174797
0.0578221449706994
0.060406332619543
0.0632582256233717
0.0494287709201401
0.0695072293642234
0.0626012657589326
0.0624071534744994
0.105794202278543
0.0372328871276671
0.106822314880462
0.0673494153358028
0.054271233803977
0.103061964260293
0.0609281419419866
0.0676517338438904
0.0537997368520108
0.0705902053683651
0.055555961763936
0.0769933787061485
0.0341920953549713
0.0854033770053196
0.0793553215517702
0.0615113618613309
0.059002642543417
0.0611709976359445
0.0440885957459909
0.0857812198506126
0.0904266226913658
0.057948005297585
0.0655574309372256
0.0545982061431145
0.0410436282836999
0.0868577162777685
0.085193997569297
0.0593333071040544
0.0675441528152372
0.0574350082160696
0.0469163243910499
0.0449190153078994
0.0868602133920513
0.0572858075928297
0.0620511755743072
0.0345621028735341
0.0776000243396438
0.0970058406323387
0.0697306817077932
0.0636117237956385
0.0429803242147723
0.0636228011568735
0.0911441639126824
0.0607050496489886
0.0517698956256415
0.0704186617178562
0.0623444011968403
0.0551938533292184
0.0562417454223984
0.04916880286806
0.069835766072415
0.0702020975318286
0.00199552538900219
0.100940484615994
0.111045966620087
0.0563144305981888
0.120326975492446
0.0483064772166159
0.0734574577769998
0.0536312985343782
0.0611447958750146
0.0448719883028271
0.0633829793026464
0.0388130440762187
0.0619682828971036
0.0789432039746065
0.056684432786799
0.0609861161444734
0.0840604560775792
0.0611957356935866
0.0328241744284813
0.115019913013973
0.0655175837147516
0.0455050617148689
0.0804308573710878
0.071498785366342
0.0505956219414978
0.0557063070811021
0.0864240367080757
0.0561207816080953
0.061902538223755
0.0527931220343267
0.0600652940021183
0.0688889180944766
0.0567125447122727
0.0555192881656215
0.0632507499735829
0.0350224652488669
0.062978951256154
0.0926182670112512
0.0891563930899272
0.0458047183984714
0.0665794067983301
0.0125763694079458
0.0905542629131051
0.0729868861992737
0.0558724147256656
0.0538613696870905
0.0499801253854718
0.0580884672964385
0.0504480946418605
0.0519365424156176
0.0489965754460061
0.0233464771483234
0.0990869878977703
0.072503926360577
0.0609346313664487
0.0525735781357559
0.0619545783190223
0.0308187416412147
0.115182611418207
0.0806811489763185
0.0618455609470383
0.0517367290942642
0.0532314916079947
0.063394572652936
0.0706093888804019
0.0562841761701615
0.0599249789073497
0.0560768236748174
0.0535217360313646
0.0538447116098181
0.0507745070696576
0.0551445153907996
0.0570882991602477
0.0558314392866948
0.0512174911977357
0.056242473377771
0.0651290038959147
0.0528109780408316
0.0628688346171476
0.0572443835904706
0.0428845778633655
0.0593607898172916
0.0769667352247769
0.0511727877987234
0.0575306919941092
0.0488359625320528
0.0613472484589835
0.0515153730196703
0.0594853165209255
0.048187045747857
0.0545159083408931
0.0371179215398972
0.0981676675937972
0.0495512705732632
0.0643966242546693
0.0371535221705028
0.0793223125295499
0.0631809021877984
0.0604496582379704
0.0527720805292806
0.0614551089046706
0.044879893544629
0.0577388056578971
0.0811494148055376
0.0581934790519672
0.0402644897825689
0.0657472932050464
0.0666923417769855
0.0570662725544802
0.0483339213219158
0.0335557610967615
0.127520579306023
0.0664374981364933
0.0376270459093415
0.120126159595584
0.0637075172037918
0.0695785829797094
0.0530740636816417
0.00899785324183544
0.16592791569645
0.117837047474886
0.0605971197605859
0.0476616938230491
0.0731173955353726
0.0551906132648662
0.0641488875354801
0.0540446838354452
0.059475974122675
0.0866809232578013
0.0635516663620209
0.110668604503003
0.0305973464863071
0.0847657651119579
0.0756032625027325
0.0670514011920809
0.0617039886546764
0.0679675209180751
0.0471049762289092
0.0723176182226152
0.0687018967905207
0.0761291183427529
0.0649749406022956
0.0514694698183394
0.0786009216408203
0.0718520250304134
0.0555567904346684
0.0575688510321444
0.0753694299994249
0.0587066963979529
0.065473247299063
0.0554942917805214
0.0703247756419966
0.0529167609514398
0.0525605403808561
0.114746676323324
0.0686702722490601
0.0550672238270581
0.0866848943112048
0.0633459692409702
0.0617918858682932
0.0565848791998119
0.0705720049806007
0.0634025660993602
0.0612062045328713
0.048878981591703
0.0883036705677177
0.0623079107585717
0.0657884507631983
0.0570016133038654
0.0601759215392662
0.0632056472414952
0.0598526131831677
0.0626950288306089
0.0603035109862451
0.0639619659289369
0.049824816099407
0.0681599985910566
0.0972043353042489
0.0387973557798107
0.0881487336269672
0.100116858791034
0.0659097731998679
0.0697860810909232
0.067600617393721
0.078535902065202
0.0572184758958499
0.0731182533813194
0.062437789868979
0.0743739439628243
0.0780697041922724
0.0803350475753335
0.0680331501166251
0.0692500571718712
0.10228445677989
0.130159609959375
0.0920454581851348
0.0869936417550433
0.0479973315507813
0.111140638444872
0.0988853196247386
0.0875286555327845
0.108783450911372
0.0661104080346806
0.0880486584524287
0.0761662165774037
0.0920773411454863
0.0845288200822071
0.0923947976038897
0.0832317804555164
0.0923995960476855
0.0861438374133464
0.0970321636124603
0.0781049521063432
0.0834677381925332
0.124401002881326
0.0960698123297413
0.0866706597188487
0.101276508747604
0.0738186779528535
0.120926189353233
0.107440237788616
0.143589520808543
0.134349262780405
0.112486670613282
0.159099448997805
0.103284848591612
0.118939640371875
0.102747609829078
0.117702960019147
0.116551203500907
0.117319847684332
0.117336387010447
0.122113806661272
0.123334718758431
0.131174508433205
0.118148607119928
0.130280609235496
0.116051166895452
0.154314674077801
0.134221645278739
0.139918735730225
0.11672481547957
0.146177045636534
0.181651589924561
0.19552667280765
0.146060675038348
0.15526637943493
0.149299821260996
0.141705983640681
0.157725947974706
0.15240746536313
0.160487314637239
0.145775835302869
0.202078524629221
0.182407256710078
0.182506241707616
0.194316854532186
0.149061675470701
0.196335107480413
0.170388639868538
0.191404921800503
0.202304074322401
0.19770804137806
0.17054416815771
0.211806598021664
0.199245834782153
0.198323439886769
0.231407352660678
0.201437573972452
0.203604632790247
0.200244620707979
0.206689473587038
0.206014904989035
0.214833917212402
0.219601831047258
0.220905181961718
0.226518026733325
0.231093902094768
0.221608375857224
0.246715992996362
0.244890480711555
0.231313245292565
0.265333409485179
0.232806114156905
0.247766952690167
0.22792011072796
0.285926537503362
0.26560779701396
0.284580910775199
0.289663732946058
0.259351688330472
0.269254744166059
0.268170124536835
0.26515647215772
0.280954847538774
0.285209581996757
0.287022924739619
0.278278390585573
0.299681338151347
0.297233999393914
0.305930642039652
0.288951589838827
0.307382098623672
0.301666887639658
0.317547471501344
0.308884535800716
0.333002348549363
0.319284690745272
0.348395514098263
0.360083514631019
0.338733146439122
0.363228548227617
0.349505424739592
0.35129123207685
0.350403276082359
0.350295910336198
0.364235706370026
0.366995265254449
0.381749383215752
0.367802874593884
0.386796192567538
0.367795802052692
0.379897529163451
0.381135399071676
0.404104643288649
0.389809408294061
0.391443460009754
0.406198374392624
0.396747803681076
0.395067522837549
0.423857035644094
0.426376557143647
0.438086040779608
0.452234779641475
0.453908429901697
0.42909706691548
0.463365182277773
0.431999764653947
0.451862937912952
0.445674169850418
0.477210972290383
0.456380539655997
0.475506188908903
0.462330994729442
0.488950683494185
0.475483761746535
0.500460988998541
0.490638559047411
0.525650908912538
0.491598572125514
0.531830372041186
0.531564056593008
0.545807960723556
0.536446050932804
0.542627181143412
0.521901688918085
0.542334215713675
0.563399153870034
0.551518936795882
0.555569082186917
0.583699814406551
0.536746835178501
0.586150092768494
0.545104878450076
0.586257734098008
0.586777804580315
0.579191854029504
0.575748987934501
0.616736085451744
0.581179679462395
0.599674255585036
0.628121761198452
0.64277585646195
0.602535653135928
0.651895248405184
0.611344947477907
0.637409535667752
0.622499454000139
0.652754439493146
0.62609207329466
0.693194751708398
0.658746017834321
0.697910707332445
0.706668191537797
0.711514128748627
0.667429833571274
0.705072312650957
0.665802223227658
0.694854582281424
0.710991343778379
0.728269410582976
0.73155534319993
0.725640584613865
0.691142300820639
0.754240511012517
0.746647048710807
0.731537111328326
0.744806647592073
0.758543315431154
0.746706566935996
0.784860591549725
0.732355398823585
0.798825845387767
0.738697185215137
0.788313218563495
0.744658962821467
0.784683902942073
0.767775180183729
0.85171304597565
0.828675883438313
0.845333825604423
0.83169460949067
0.863461419730122
0.813945980217967
0.860988044811333
0.800243335503935
0.886007582962166
0.831856569108381
0.8540656882149
0.867058966933817
0.932531037785431
0.856293901178023
0.937112248547096
0.924853237734445
0.898341810227316
0.891567940699878
0.951597939538403
0.878467125434572
0.897814320057931
0.912025011144059
0.953270771595065
0.933287259112158
0.909160486208534
0.901409846807046
0.950700647693726
0.875068216688393
0.905318898638016
0.93604061137382
1.06103770879499
0.970234285976923
1.00779030319773
0.932146360505695
1.08357791184206
0.974863170095984
0.988757986891415
0.981051092408054
1.05081992521578
0.96554166869583
0.992981049564804
0.979104541864102
1.06134504014574
0.982333600466495
1.11304331465914
1.06969984717543
1.0879132834685
1.03749169348231
1.10636717835168
1.05121518882328
1.08080435015568
1.05193817600932
1.03993953641491
1.01780482180011
1.05652652364353
1.0903378412057
1.1405472302654
1.09368293196901
1.14839995950876
1.05213081357436
1.13086218371998
1.06337725252683
1.08653450646875
1.07461405921187
1.16197454894352
1.06750250806014
1.25709159424666
1.14176607531532
1.15868476081276
1.16868168187967
1.18074320649724
1.04344945348739
1.26005113037397
1.11758416754236
1.22401986383055
1.12424009787587
1.14945176708239
1.10729813258471
1.14110071288581
1.15314584309024
1.18551026788995
1.18041232365186
1.21228110828663
1.16711516070969
1.30728702116169
1.27116434990371
1.34844197434594
1.19058071075385
1.24860500593676
1.14681602665186
1.18860403151637
1.22422115573123
1.25968962318179
1.21061601016908
1.27340525821469
1.21358213704183
1.22680423147991
1.29155591369778
1.41440769195356
1.24189493831474
1.30157402692345
1.21228827187186
1.34785381180692
1.20167602759378
1.25857995832619
1.21822644185183
1.34299399383051
1.19939430928304
1.32694183963409
1.25488812502374
1.32378111946834
1.25143592263714
1.36449789396491
1.30364112378606
1.28280361794242
1.23633287958214
1.39632318924841
1.29551252515847
1.38490777317461
1.33675347300398
1.38872049926841
1.40594632448707
1.30013082879329
1.25913387332856
1.4244698855186
1.32433157506971
1.33221268020588
1.29988986039964
1.33924944507491
1.35001604807475
1.32618966192949
1.36725014979407
1.31581016988746
1.32022534738361
1.36689863741613
1.27138365947744
1.26899208746547
1.41493699532789
1.38446962065639
1.35083387608923
1.41501386810174
1.3127645859232
1.45342152729236
1.3775502947535
1.44040494706474
1.35471874836134
1.48899226999425
1.3146750697306
1.40142758358662
1.26236799881012
1.43469975409988
1.35009485643571
1.37241795803223
1.36371410207538
1.33312336983335
1.38517566327466
1.53205196740949
1.2699276618521
1.34063461264506
1.36328439346332
1.37330880088463
1.33896755053244
1.46720017944649
1.33185882958314
1.38631082600644
1.38836750055853
1.36036096187488
1.2773980046015
1.39420552435654
1.38640019636462
1.38604726605748
1.28366669715527
1.33628243867147
1.36383198153575
1.42759001404102
1.3310113643632
1.49876493147854
1.30686118006203
1.46560635309441
1.44913194157397
1.39970061130041
1.30608449341334
1.38397498666318
1.32866399419339
1.4217115938428
1.34575029147157
1.46353641856745
1.43872843864662
1.48590530953775
1.30957256025383
1.37014880332115
1.38080564982436
1.41647750962368
1.40101320423439
1.50028307821761
1.37300505072397
1.43316820328669
1.33947445786109
1.46449099067433
1.31402791003501
1.34004140082343
1.33158445829617
1.43801138967638
1.4732585787365
1.35987598702978
1.30878963409413
1.39897364321509
1.37472117264751
1.40486310504846
1.34465690077079
1.44060604606494
1.3501346521872
1.40247336642302
1.38534779847043
1.43784625461239
1.31773991456837
1.47837568356949
1.33190308167924
1.30242035290152
1.24365951307085
1.32650660904659
1.35375490785588
1.41068041491132
1.33745486261206
1.32529875590309
1.31149492844963
1.4277275882624
1.36311383955266
1.30311685622211
1.37146921374745
1.35316514124159
1.28838582230116
1.30804215864719
1.28951858338515
1.38110352222811
1.29829729849588
1.35193734237911
1.31080214780488
1.40161355038804
1.33925159677591
1.28902177602352
1.29452957488901
1.31599428769217
1.31660999412274
1.40020353574878
1.29113550664715
1.30797040114707
1.26644659497008
1.28361725507431
1.30090788834397
1.30044488248302
1.25134213628707
1.28657157183362
1.29239253902917
1.29395870739224
1.30263014024959
1.29349432452104
1.28471084330155
1.29953112081077
1.26355929728081
1.24174171301487
1.23465136698047
1.27201716525445
1.21742204404159
1.31840275633098
1.19799604867847
1.25503744282605
1.31052412178938
1.22302105946241
1.23987221300328
1.26194903183542
1.2636301019055
1.25816251641832
1.25275718081251
1.26966340370293
1.15072807773252
1.16168164127591
1.18704917158436
1.21110254780463
1.20601436338658
1.205056010115
1.19434579493206
1.23500567979497
1.18131954776858
1.17982410595371
1.1700976680207
1.17061717124166
1.14682826344257
1.16761063532443
1.16001062871927
1.23810587640031
1.15768204515123
1.14207862532563
1.14502684632768
1.14083449722586
1.11925993373946
1.10498211287207
1.07671765653924
1.17371298721398
1.13730564416343
1.14025013001632
1.1817770784555
1.13633036342832
1.10738081682285
1.13844008923179
1.08647888616094
1.09643336391575
1.06528582740299
1.06622218957727
1.02541097244115
1.09442267676077
1.07107688618489
1.0476437466613
1.06776703837501
1.04568874009176
1.04589358617941
1.07502005000643
1.03168486087037
1.05582917243814
1.02685516232043
1.00757571317851
0.992112852204533
1.01394863555817
1.0125828424773
1.05377520351646
1.0116609580369
1.00907739654766
0.993379325270679
1.00684742304193
0.974314758350701
1.00755077262328
0.987616828951438
0.987178909590106
0.943866543748683
0.978950828567199
0.974648584537589
0.987859435355612
0.955055394458334
0.941995692379658
0.942435723206743
0.940686008637115
0.910016141607429
0.931252982368882
0.925371788987812
0.92837238972801
0.911673403999539
0.91000047262712
0.900079835624191
0.921101437458116
0.887493003423797
0.869847144966983
0.893336000738255
0.900209367077248
0.884807291710094
0.880073780883542
0.872481470410951
0.884295612160176
0.859715457564966
0.85589695391918
0.834262360317911
0.857163598814131
0.835413988726786
0.832881591825356
0.857177202692301
0.832452418030691
0.809796067333666
0.81087669402901
0.820968508546178
0.811391258813924
0.80267573492434
0.805636359137042
0.79372485669165
0.803200089421817
0.789510406721478
0.787078470549489
0.802212789089007
0.781847920705999
0.777063124066426
0.771983584344172
0.765211533795224
0.765910448964108
0.759406615425765
0.767326293613391
0.7653463895109
0.75151689160035
0.744187078991239
0.756396642040045
0.74328745107438
0.731162736272706
0.728382498465365
0.730900419117303
0.719913700132036
0.719164594356747
0.7270653710094
0.723638660528135
0.709343372799607
0.706914403694272
0.69541589068759
0.725180515531094
0.717396077129202
0.688790373703432
0.678258841958221
0.696121656378161
0.684046099171935
0.684487250148271
0.675606809925578
0.668874712600587
0.668003165515736
0.675561534039455
0.671195332092361
0.659786142897612
0.656153902151667
0.668869119504117
0.653920425863124
0.656939279559457
0.64469265112177
0.648134931696433
0.65707656877725
0.652044475057521
0.637572427667905
0.6320770630498
0.624130454119978
0.612950535371428
0.618051816207862
0.618821428138798
0.62307758816147
0.615011890850732
0.629206185974613
0.612769082287368
0.618991069466653
0.602029148989248
0.595978832789726
0.610902988191049
0.598032087381825
0.591794969012142
0.59588817001218
0.595551894508258
0.593330980880423
0.587489571525562
0.583088975336747
0.582496788956184
0.584092842343156
0.570023526382276
0.561423617143672
0.568796560297306
0.563869070879853
0.569483654043106
0.566289706556053
0.557665874280557
0.559008114511404
0.557269437279195
0.554910248684966
0.550806531850385
0.547009502923029
0.536488301758607
0.540341837248167
0.533531309471977
0.523568664553916
0.530080084937953
0.530999663556993
0.525887465666498
0.521338154213693
0.520711496672783
0.520105345029327
0.51360386458978
0.510606404264878
0.508341173791941
0.517042158988299
0.50519120589822
0.503159029813153
0.50760264670714
0.501087497149824
0.487583971922454
0.482759270711111
0.481731487000368
0.491332229016947
0.490731416339999
0.488712612166617
0.483293898996369
0.477289713317616
0.479038628658156
0.479553265715929
0.463837854710941
0.468120470980246
0.470745786733763
0.458598468239023
0.459517720671549
0.467063023131659
0.462284975341013
0.465137443424318
0.467336406921532
0.453857365480872
0.442518510165141
0.456318227708099
0.449967369247609
0.447547104766335
0.442460522576533
0.43943868881386
0.44101592323655
0.44236915887965
0.434067518385821
0.445933142396607
0.443448545591011
0.439369952865851
0.436447915118015
0.43099193116502
0.426875905898467
0.4234738361988
0.426491292871521
0.42975384769265
0.426724211042676
0.421905035992653
0.418368748386908
0.424387807859348
0.417146268928242
0.424557450768561
0.419777647531115
0.414432687219505
0.422723742240348
0.424776417282281
0.425027197438592
0.433238915867895
0.421299142032266
0.425528230664978
0.425735961765624
0.42922027771486
0.425613963154104
0.43028569623615
0.424733011456644
0.434691048811852
0.436891377781551
0.430557198446589
0.435034848111603
0.445419085852769
0.438665316443939
0.44339883343875
0.444086867805774
0.448984911323001
0.448499147073561
0.454536675349309
0.448022443170665
0.460253727147722
0.459282092136701
0.455811732140103
0.452157774261062
0.460812586439529
0.462687536184285
0.460824371544067
0.468771250894336
0.469133201985668
0.469330115392572
0.477489845500381
0.477547451351239
0.47884319758904
0.476588408836277
0.492548621154945
0.486208173676557
0.489845889367204
0.493647911800505
0.49940121363848
0.488497303082455
0.495810867191756
0.501850204166558
0.5110163961773
0.518363301933513
0.518505062624242
0.520217950533763
0.52038279612191
0.516590844688693
0.530458190438456
0.528008594548658
0.532548962813468
0.535459736563156
0.547567805933935
0.547498958798346
0.54823252944801
0.551086922903808
0.54882456892272
0.552233894368341
0.568916843862942
0.563341481488758
0.568501154212415
0.567656702620647
0.574594464235483
0.578572814914218
0.57435792520188
0.580364274148229
0.586515550297116
0.575901469529386
0.579751283495108
0.583294992288313
0.588827913643307
0.581952740938728
0.589946501493217
0.581665589877968
0.586640118599069
0.568836811164281
0.575372942592774
0.568619740923201
0.571247079758127
0.585744829086909
0.57975275386256
0.575883705589744
0.580349560605398
0.560631291830607
0.570654917668538
0.577766849689947
0.582922007025131
0.572506516135788
0.575371537871592
0.573986444982213
0.577342649863598
0.569784273384069
0.576236917361162
0.574363874715018
0.576475723456806
0.571167761718341
0.569971032854766
0.565576186771185
0.577966600781419
0.576684975496263
0.568557239607052
0.566404153315745
0.585088323387283
0.569779929484667
0.570068494584578
0.569452068011492
0.5772739285108
0.580715218392826
0.580687242649926
0.561529817998925
0.569699889669778
0.56553649010489
0.562346143341232
0.566044509455172
0.571799251064577
0.561674703018587
0.567230755137403
0.569749029913157
0.567109907270065
0.560752568388895
0.562206482841486
0.55604375601043
0.566183835070804
0.564546501178497
0.569329878793145
0.556351903288378
0.557488181742419
0.547801071711543
0.54424614725665
0.551080610941271
0.548245973993766
0.53496469841063
0.546338543740594
0.53875466081622
0.540413883799773
0.52923074279001
0.52988906073307
0.524769266806639
0.518105788853496
0.513583752187565
0.518587157500086
0.504912176271205
0.504695792956465
0.494789443106817
0.491156393870215
0.486665835754849
0.492873234379574
0.48629368547206
0.485364870618678
0.487038181611617
0.483342173998749
0.466788675707918
0.473016137443089
0.461155026900663
0.465644212161465
0.461164849256715
0.457727922267441
0.453768712622381
0.447353120098249
0.443311017631921
0.444788927064581
0.437383399739617
0.437141798666885
0.431694604140205
0.432509166418408
0.427591188430654
0.426384638666149
0.417777784673824
0.420884023218559
0.419679822272341
0.421320325691707
0.408323913308181
0.410317755919673
0.406432515933972
0.407890364121503
0.401400110131592
0.396769605123222
0.393893586586132
0.398629478241274
0.387653020662552
0.387740642698336
0.389199868427737
0.387639866851563
0.38662932442265
0.386866930773311
0.383217486857449
0.389615460376739
0.38029622425103
0.383997588347401
0.376758998203134
0.37766037312157
0.37750518005892
0.3754085756241
0.367469771640193
0.376560259109339
0.364320388675968
0.365660197061852
0.362130094110255
0.360245025595235
0.358998898569981
0.367382459460708
0.357401810688315
0.358379132002758
0.347076244070277
0.358132220291122
0.350906552776276
0.347719766191314
0.341548722720485
0.352388676657241
0.347351244379791
0.346134966312915
0.335690113037225
0.342897248083397
0.33624427508614
0.342051696299901
0.337036666794976
0.336641249637712
0.329195129956656
0.336700812990865
0.333665960394785
0.331676899918669
0.332079921767192
0.332780905257096
0.323541682007365
0.333420144984946
0.327942518882275
0.326683550072302
0.327261780124865
0.329979007437263
0.318674947377908
0.326068298148535
0.322868226695216
0.323308410488137
0.315768895490188
0.312993756072617
0.318977959017448
0.321843311611809
0.314674768559073
0.312104272388747
0.307168532085281
0.315024353970201
0.307760406640064
0.315111624503457
0.313750144877995
0.308844177994598
0.308361221377048
0.309089228864239
0.306686008385044
0.314897940441103
0.30187911573985
0.302355934498757
0.298556403137709
0.306946084353925
0.296707094202077
0.296558593591723
0.29307604276266
0.30303147512781
0.293974791042891
0.298114862569196
0.293922151109316
0.29997236938491
0.297463340619229
0.297468906448082
0.290767175277334
0.291517375384874
0.288520171696392
0.297117669510311
0.289031727397973
0.28969614436843
0.288573586306675
0.289274029821301
0.286616427269919
0.290988373699319
0.288462351235586
0.288812106572667
0.2871082277765
0.290286625573219
0.280939425221703
0.28757137702868
0.282667664792998
0.289096306271122
0.283253175566396
0.286032733882992
0.279446797212856
0.284201552004323
0.280546048497498
0.286158736684528
0.280433488544222
0.285390530418615
0.281514482495727
0.284067817180891
0.277052873552522
0.2761744261036
0.277836001635094
0.276817088946633
0.273641060963753
0.272883606517111
0.270231283775898
0.276855520600867
0.272932890209802
0.275400109237934
0.269572863554952
0.277227947152709
0.270800592276368
0.271181709526716
0.267022734328759
0.2718692667392
0.266739257787668
0.270978587922049
0.264403387636661
0.270250987458532
0.260373427981873
0.264444769789914
0.263113205408538
0.269629933118648
0.26041013959402
0.260766614231705
0.257125122298138
0.262877565715218
0.256467225253198
0.26012583989305
0.255837935346708
0.261507013465832
0.254509797646724
0.254055702063167
0.251441766810072
0.252195730194117
0.249109675680489
0.258846062965038
0.254901153141867
0.253247478077881
0.248477577729133
0.248616391679271
0.245280675364931
0.249668626678218
0.24542093877737
0.248207392481036
0.243557326925012
0.247448624353632
0.239786113994124
0.243147001661375
0.238329871128085
0.244662052602479
0.240572576004028
0.237821967552032
0.234229489086852
0.241706785488868
0.23283534287361
0.239941350260292
0.23162800324731
0.239662483911608
0.229103976286433
0.235001823520029
0.230470889590164
0.234325945424967
0.23067064119988
0.235552009872649
0.228965266931697
0.225993950277993
0.226437808370447
0.227218962077558
0.222698162024274
0.226335813383852
0.219247233505985
0.221846659774397
0.216724544780636
0.221371591222019
0.214514626837006
0.220088463027867
0.215607813547092
0.21491476489526
0.211258863412831
0.215759537380797
0.211615154113629
0.213996018374115
0.207177955018182
0.213412772707963
0.204441588275242
0.208109628919716
0.20394463865301
0.205471265400873
0.202550935080704
0.204765793382096
0.199627817156089
0.201834866861685
0.200207298399939
0.203855724558206
0.195182695848896
0.200037592378057
0.194128890170727
0.198402538742766
0.193717020652828
0.200166030796691
0.191859644428318
0.196031596620741
0.191125228912536
0.189613497824011
0.190295064514541
0.192551028859225
0.189968554611745
0.193947857971609
0.189631607522526
0.188080144234963
0.183496600889769
0.185983308657052
0.183215037122685
0.186662963536752
0.183359654888924
0.18443933864146
0.180650312161169
0.181731935862563
0.181247370214063
0.179916537960698
0.17465787610724
0.181411199195947
0.174546437535805
0.180680466792112
0.176666535001562
0.175712807324563
0.173060907279673
0.176968356956914
0.167957611039468
0.173758435462005
0.170642596543654
0.1756721343629
0.167718931170748
0.172591123347239
0.169929910353626
0.171068104879252
0.166062679390159
0.16830119120961
0.16676134856122
0.173175296788404
0.165890851963288
0.167939266363405
0.162512364713061
0.169285566161988
0.162220350874946
0.165218480549538
0.160150477982817
0.164920558082829
0.161942447325013
0.166875732441503
0.158400856161123
0.16392212619989
0.160340788270361
0.158893056318292
0.156909633387451
0.158411772063007
0.156352767845521
0.164301747308945
0.158296884740077
0.160162658500049
0.15369279941752
0.157651661306188
0.155986079017448
0.157410514397952
0.153163581712654
0.153582558161496
0.153712001123484
0.157706399332853
0.154276845053111
0.156957886760093
0.153032447416609
0.153577791198933
0.150446500881394
0.155337087672132
0.152022414258265
0.153852944725002
0.150301825740054
0.154359760484027
0.151754443400706
0.151972055402565
0.145337554623843
0.152502017612882
0.147867377115866
0.150389515674728
0.14471301472643
0.152040512030804
0.145019646136891
0.148940729827495
0.145165195871945
0.147823384973298
0.14726076915647
0.148103929745884
0.141572638280481
0.147315884847856
0.141565765577387
0.146767328458677
0.141659471090766
0.147007549051026
0.142057654985638
0.145588823623048
0.1414651406506
0.145674971276183
0.140129463477251
0.145264885299851
0.140280869427397
0.142619611758418
0.138317415018314
0.142779258413376
0.134810931620728
0.137792981552733
0.136513633120051
0.138125484814412
0.133159766012223
0.141625935931924
0.137195770781353
0.137754377167727
0.134332517602242
0.137866272723595
0.133084666992478
0.132968976356508
0.130490969983865
0.13687750329748
0.133390832341662
0.133551842139634
0.130898804399076
0.134670284840132
0.130470218023382
0.135246216123705
0.131746669400248
0.132861773000406
0.133237553621637
0.133245866232968
0.128446377962689
0.133803875562846
0.13037410311631
0.129748069042146
0.129528048446536
0.132355065371177
0.128495506028259
0.13092823606107
0.126128611995167
0.126719981556035
0.123474561971211
0.126681148852415
0.124427024945012
0.129800855699522
0.127878716281571
0.128388561878051
0.123813906988209
0.127254181358823
0.122229238233321
0.123546668939397
0.119649697596041
0.123705562482942
0.120842222245314
0.123290921952056
0.116866507539915
0.122916384364227
0.121793829824176
0.121759169220451
0.120494869595308
0.118953356463887
0.114653344127742
0.117329544443603
0.112318944539516
0.119198736422004
0.113979335878458
0.116815573364925
0.113443079002477
0.112401133599026
0.109517704799722
0.113702654594178
0.109879203106734
0.112277531756754
0.107934223638156
0.115516081550767
0.111443545103169
0.111860223196962
0.105132732498347
0.110583832602182
0.107259178923998
0.109239065144584
0.104393049060656
0.109570383540002
0.104055874424234
0.111191067181901
0.10329420385529
0.104529024574692
0.101047781072607
0.10771308748015
0.105300966725803
0.104112783895442
0.0992246737305628
0.102953316494488
0.0986889486424894
0.102953405134873
0.0984493416944066
0.103118428755793
0.0970464540353693
0.101579751887637
0.099136161000507
0.104810600127297
0.0993377255728099
0.102620215527763
0.0983063430210806
0.103235094357387
0.0977880257852482
0.100328368525445
0.0953614660669632
0.097196607757593
0.0912419833154078
0.100571305092362
0.0957861600578073
0.0971131005718749
0.0913870810556601
0.0955615278317387
0.0902483372751964
0.0977751367539908
0.0905131699617124
0.0970599969946829
0.0909168199825863
0.0944343871078141
0.0861198944365222
0.0954927106328075
0.0900878219293038
0.0937893428278669
0.0883602393250345
0.0910289312728746
0.0848652965766379
0.0929781491367803
0.0861772050399586
0.0892543491780097
0.085518713033017
0.0888714947965604
0.0843239434801919
0.0903987863755507
0.0853230770129108
0.0865767281551211
0.0842385422682849
0.0889011284013146
0.0848257425214127
0.085549236351655
0.0834422169045692
0.0877598492871075
0.0815680915943257
0.083160873224693
0.081999183716288
0.0868605852064739
0.082436484020279
0.0858839317279481
0.0808649486653329
0.0859671689149337
0.0801442770289779
0.0834537529350703
0.081062257575924
0.0834585605274251
0.0807967260112325
0.087606200104718
0.0812773710193096
0.083943112540704
0.0792644843442499
0.0848265858198392
0.0812721131203758
0.0862142716164416
0.0796410633516049
0.0867057937785426
0.0785106104832746
0.0839369862190039
0.0806771440432842
0.0879636711242718
0.0795574689892663
0.0856654213058012
0.0815549192151487
0.0885449061054282
0.0753978504768884
0.0789990024242084
0.069305331759846
0.0803153687089217
0.0750442312646236
0.0770829705497732
0.0729393468610789
0.0811960507826479
0.0746676399288034
0.0757252243267599
0.0723522802589606
0.084828545908535
0.07145733088131
0.0827824293814008
0.0678123877075479
0.0835052890347907
0.0684323344154593
0.0820804785894096
0.0772438537243751
0.0796073745983294
0.0742245824168351
0.0874864453506292
0.0683300803238315
0.0741227624397363
0.0729489639363536
0.0755716869506029
0.0699225088180213
0.0765234806876583
0.0688126048582599
0.0770413582457638
0.0655903050716491
0.0765475756928343
0.0686210384474046
0.0756728685194904
0.0694132052107559
0.0837018585771417
0.0723652378057015
0.0850043256204892
0.0683171680179661
0.0763699901120906
0.0688651321966406
0.0783798639942665
0.0742456113460218
0.0816979135173156
0.0701414553196221
0.0758791721339998
0.0732737165275445
0.0769417834191465
0.0730699526441931
0.0701518335210703
0.0735074481877065
0.0811041036156474
0.0754881667352064
0.0708341872117477
0.0773684243548003
0.0746357889189107
0.0744405592572342
0.0691845052821473
0.0753390388902319
0.0694727133517719
0.0767225844278194
0.0718409706925427
0.072867476452961
0.0753135440661977
0.0686897924897057
0.0750562669134437
0.0701585876656358
0.0782796009322598
0.0697790569147296
0.0755711817893376
0.070445587041704
0.0732191456607
0.0666312771157488
0.0711163795641195
0.0703348349742146
0.0687959159294586
0.0696563963498495
0.0689693850342136
0.0659195375204115
0.0703339870981078
0.0671999316158925
0.0702901711531771
0.0671429573975078
0.0711634490879922
0.0667993826753987
0.0697257199947286
0.0690032452979796
0.0699371641695276
0.0643038742402663
0.0683704154675955
0.0645570081600468
0.070263215708157
0.0658143618425873
0.0677397812393905
0.0695021573154571
0.0700971119649156
0.0672300800449828
0.0699355938137746
0.0652236972177365
0.0699281348882759
0.0628587898781274
0.0693604785942653
0.0668356752312908
0.0712829814084118
0.064203634911783
0.0684531710878039
0.0654378681887332
0.0691521409230749
0.0661786959952194
0.0710014641716462
0.0649987410374372
0.0681251246228621
0.0652657793085733
0.0667593063395464
0.0671807774860897
0.0681490375337891
0.066553228105026
0.0688056047864889
0.0657693066691572
0.0731618174352385
0.065641326825293
0.0694939086049174
0.0644544574113222
0.0681261715381412
0.0668182195366982
0.0697684551353426
0.0644851196422678
0.0696675031441585
0.0656156258397793
0.07008609909644
0.0652337013813794
0.0697599732147037
0.0674920825487841
0.0683722494834043
0.0665421009806135
0.0685788680517594
0.0645310016582795
0.0668477764229671
0.064872937120521
0.0681405269714475
0.0644542138582513
0.0687553579004717
0.064337366510581
0.0651588741139327
0.0629778210777087
0.0679896881032951
0.064255331329118
0.0717588383010342
0.0666510456855136
0.0700324496355481
0.0664823649772096
0.0694749996249707
0.0660898716760777
0.0720563669659605
0.0658058963371376
0.070475463616116
0.0654753254513778
0.0697193963868855
0.0664534919625036
0.0705214255182838
0.0655503222183828
0.0670982788349125
0.0652576525799829
0.0701643245258996
0.0673714771088681
0.0692281459170092
0.066193044838754
0.070818770519843
0.0667180808709956
0.0713004480205165
0.0691514532547321
0.0708103479577157
0.068483584878075
0.0716455545832691
0.0666959778110379
0.0714385974728394
0.0672964303909189
0.0710705651695836
0.0662836790589983
0.0705612184845895
0.0679521856072801
0.0735359791231976
0.0698073044824745
0.0694429351456757
0.0683727611206879
0.0727915501606903
0.0659172565298387
0.0707689777606073
0.0680582048433228
0.0720944256166018
0.0657909754235008
0.0712360971772154
0.0686369439652223
0.072551473299091
0.0697310906612242
0.07255398824411
0.0694155079262838
0.0720454551135817
0.0691060103582659
0.0725933998991896
0.0680035450972278
0.0711828197261114
0.0678633238369015
0.0737922468879567
0.0690842877912695
0.0724902709557482
0.0708040352124927
0.0730962439318936
0.0689967587368716
0.0736632439337865
0.0691110231740272
0.0708407107503502
0.0705123066982525
0.0742738597215042
0.0709959584210715
0.0752715872295249
0.0703413030764588
0.0758046343634478
0.0713945607573435
0.0752775029927057
0.0698271452037076
0.0743816986651566
0.0704066696211062
0.0754932996833328
0.0676028671500077
0.0761046722143749
0.0717827768852286
0.0738980046317798
0.0719897749259889
0.0752910956165982
0.0715684403075079
0.0750433927145713
0.0699161198074684
0.075440268833868
0.0723349446557908
0.0753102950377528
0.0726164789832627
0.0739249944897816
0.0696931627103083
0.0739526400686852
0.071411451167685
0.0766487524756723
0.0727866563203132
0.0747592197675469
0.0720563815882562
0.0745682031039524
0.0720998160241897
0.0750161982589226
0.0703320009161107
0.0716634874941984
0.0691623898562515
0.0729173124238829
0.0704752154424896
0.0705545266840449
0.0690505963841678
0.06944019321323
0.0665252378142867
0.0734255436516415
0.0690639942038219
0.0732623224859778
0.0696136643081343
0.0732962308088054
0.0668134152029499
0.06998651627937
0.0677478697569586
0.0720176106570324
0.0680240237907723
0.0729719732506328
0.0689733343707924
0.0717829048230534
0.0681372992067429
0.0716439190152053
0.06950360361269
0.0713135593159574
0.0666205607283879
0.0697589294037257
0.0676825821367536
0.0732264868544472
0.0688938315928079
0.0687839624500791
0.069081237337523
0.0711236783264132
0.0676513107036388
0.070667681585814
0.0668372671305785
0.070784752263368
0.0641494043135966
0.0697465866585044
0.0657170522963569
0.0712243216696682
0.066104580978263
0.0711255970190357
0.0680459126793925
0.06901216433659
0.0658244621368291
0.070025833814199
0.0661231474007758
0.0695901901876806
0.0680204655983911
0.0705305805595806
0.066378968168771
0.0709122752295886
0.0656132801440898
0.0691655771514281
0.0648303528454328
0.0700439902920907
0.0655998373230896
0.0674721462776723
0.0651321907282742
0.0699263263677094
0.0644455872725571
0.070668604741878
0.0665442233875488
0.0684722703237154
0.064903518932444
0.067962595396501
0.0646758784221638
0.0696816724445647
0.0672020166749167
0.0698408237794972
0.064964785203181
0.0680422289402009
0.0641377403332047
0.0702480698295368
0.0661668377950223
0.067310520310138
0.0690483419351656
0.0717692516184615
0.0638118874671357
0.0692615579631312
0.0636886455515491
0.0684062383154141
0.0642443829646431
0.0694601578394477
0.0655412275170519
0.0673530056463858
0.0653872489602953
0.068489298966109
0.0649265301429369
0.0666372447614814
0.0652837892898434
0.0676226882520958
0.0612038426341107
0.0666900916339878
0.0621284376209457
0.0670946836716159
0.0631635330302159
0.0674399729324918
0.0637955496081912
0.070891092909789
0.062271023612165
0.0679103972702444
0.0645341521292526
0.0664413510551775
0.0659724791922167
0.0667626084754262
0.0602765036841367
0.0653289964654517
0.0607733252899842
0.0645277210825466
0.062454690785666
0.0653491590719492
0.0629556925099791
0.0670929432827108
0.0617753091464131
0.0625798748166081
0.0622150597264453
0.0641592550652662
0.0617329815933601
0.0623374002844083
0.0594739138215761
0.063067051931685
0.0602864861108883
0.0619725576901977
0.0586287028048904
0.0580970811804346
0.0582335554457375
0.0644033742109719
0.0641441704749035
0.0617632028873613
0.0571460291826079
0.0635052913651521
0.0600390467023507
0.0621256270059028
0.0546321188220556
0.0607020122325899
0.0572934299161507
0.0612933570827784
0.0570560228889033
0.0615938561321754
0.0565722423144741
0.0590847571231317
0.0572437620959375
0.0599095626722158
0.0562356846713852
0.0595111365068907
0.0543395278921325
0.0591372318394329
0.0556275438899399
0.0588772162845089
0.0563673418214563
0.0573246312704981
0.0572936510906383
0.0570454023225946
0.054466899197146
0.0647528773967933
0.0567877764105712
0.0584293602996717
0.0548696501115771
0.0603187471531019
0.0530218387457706
0.0592750690229725
0.0512328067305321
0.0597771150096931
0.0541536709228454
0.0605663654137042
0.0532955856219142
0.0587501339714261
0.0543451998548209
0.0574468454528396
0.0552625040215813
0.0561820194977445
0.0511917611526358
0.0586690187565762
0.0536828837300033
0.0563305013296202
0.0518662744875219
0.0566992300796858
0.0522659489814569
0.0568394380717334
0.050780592348108
0.0614950941107213
0.0574477690279863
0.0571344939990793
0.0527850570305571
0.0558485201978344
0.0512866697950142
0.0548030422920306
0.0559118353107255
0.0562447933064443
0.050760984654791
0.0563735567794925
0.0490850294415536
0.0560429691244204
0.0495054273760993
0.0540124644333644
0.0497786580737109
0.0559380989515839
0.0533061852812299
0.0552925338306438
0.0508815113762668
0.0558114757856447
0.047734063087363
0.0543238913091488
0.0538677074498435
0.0567230039654084
0.0497577490284644
0.0532472824277595
0.0649113880511102
0.0541203343568491
0.0503204733068663
0.0522459517298432
0.0503644671753464
0.0535841517321511
0.0516813270829017
0.0517458617772171
0.049512067247024
0.0534891999321059
0.0522843406508579
0.0521143379533253
0.0512116392511477
0.0545122629020729
0.0512564114896891
0.0541393925581913
0.0498262150693355
0.0521876323618411
0.0495984547109876
0.0520923538275848
0.0531097075761511
0.0625864361890132
0.0548716030182786
0.0525733795540462
0.0538705050783226
0.0475960346113157
0.063457047896057
0.0609932548821695
0.0500332830925692
0.0544536176816426
0.0501505214540223
0.0549728518351783
0.0485673734026275
0.0542916717998931
0.0474758828329791
0.0579123108020173
0.0491774770112984
0.0580853313345796
0.0505331241662389
0.0512118430508335
0.051409666028454
0.0561715755016888
0.0471565081212308
0.0520537790095767
0.0483065682604406
0.0522332037420879
0.0503303871695609
0.052405262656672
0.0497449437885531
0.0535016612418325
0.0492428632819541
0.0584997230475557
0.0524550384162205
0.0521915910336016
0.0498790809600688
0.0523517390355131
0.0477680108540553
0.0688659024395761
0.0486990781592247
0.0564843554763409
0.0481190871197072
0.053381552182565
0.0503573432856195
0.054832425953059
0.048889498118166
0.0537490354192745
0.0468955756353859
0.0535062139655932
0.0499965576523263
0.0532638155404439
0.0470957098344083
0.0520666334578044
0.050928482504991
0.0520078360199241
0.0513389563306939
0.0529837436764286
0.0509316693626129
0.0506393463968052
0.0533622917225714
0.074837116597926
0.0554244237513421
0.067802765040582
0.0509889344383429
0.0559863110691449
0.0477763900153297
0.0566966429077287
0.0449932573164411
0.0585144709608684
0.0466723563095965
0.0556303492767018
0.0502417658854554
0.0544624112512017
0.0443484885621458
0.0555942435973411
0.0453326608391601
0.0562753478440631
0.0452009000275019
0.0569215935519253
0.0444984688161229
0.0572065050288943
0.0453988302573734
0.061595002067041
0.0486355427229065
0.0624962323771615
0.0453946309825021
0.0699868476656867
0.076071272928742
0.0522547551175584
0.0582708520808877
0.0529536469856849
0.0536915970558968
0.0535763702279674
0.0542292178917887
0.0583869938849671
0.0541160297718796
0.0546847636913211
0.0525688493136988
0.0557815107130992
0.0550708495600651
0.0527853531308828
0.0478820154695641
0.0773396093111427
0.0589062014927048
0.0570955867484828
0.0527863008683478
0.0525377273429805
0.0719882171274565
0.0594523146498748
0.0572121889447315
0.0609334527603254
0.0537146238711133
0.0577017335836024
0.0538979341059204
0.0584862327749942
0.0546137923984986
0.0615062735845006
0.0518458338593247
0.0602597886502727
0.0506643472690836
0.0618158195985321
0.0544675537202409
0.0663620252984726
0.063324130916872
0.0588664336596881
0.0564200706109123
0.0593536749533363
0.0537060436445296
0.0615136830337381
0.0555529853950388
0.05885348823819
0.0596520202134891
0.0725123275475122
0.0560409032297157
0.0708867306906688
0.0642254451706497
0.0578823928057697
0.0586335442593888
0.0679467205182747
0.0626130795976334
0.0612056707957918
0.0463387818172738
0.0958421651998978
0.0571338763214777
0.0824728327095097
0.0540929674046914
0.0693198339946052
0.0549074660418032
0.0684149450954449
0.0521185539929838
0.0777854612640407
0.0628271113859928
0.0674488824835345
0.0598130441021719
0.0681135600542266
0.0712721714434139
0.0645138026314445
0.0669387355715025
0.0647283947271706
0.0641706556891469
0.0672380648625893
0.0716429127551781
0.0547885582106693
0.0812732070121956
0.0944941555775968
0.0773072251291014
0.0792037562965118
0.0562833153039729
0.102214891627874
0.0674501847463345
0.0714565713891927
0.0681667208849487
0.0677993495771819
0.0689167444488128
0.0609538304102387
0.0848370581664673
0.0791171833459358
0.0648139772734347
0.0842777544050269
0.0601799925667617
0.0903431822473704
0.080623904403981
0.0767927454345395
0.0726805117311141
0.0863333722526914
0.063844548554591
0.105401942761142
0.101934056437889
0.0792295336839803
0.110439894124804
0.0871509807559619
0.0951428808847591
0.0900025438102389
0.0895956269144613
0.0921038384756586
0.104803076356574
0.0923072062593251
0.0847688529803605
0.0949802100610873
0.120093982622378
0.0881062415809368
0.0984802319900579
0.0933209905056873
0.0859241956449958
0.117400065213798
0.142798803544033
0.119228060992157
0.104290471189539
0.0967529188585796
0.121235279536489
0.105569388633332
0.0995940586585563
0.101992279636292
0.0993020956165652
0.103245843038883
0.102230927820897
0.116668208760572
0.105169896794321
0.108606644149454
0.113472090288722
0.103862677147385
0.126727920249507
0.140197442067994
0.16032450795708
0.117256258590515
0.154980622732445
0.142366457742808
0.127237673784334
0.125999433898168
0.118481122071866
0.136014328459994
0.126045642506966
0.134244480057903
0.12790634393046
0.149866728359684
0.153555839886808
0.132596848044751
0.170441602862583
0.137811576797119
0.160764488311451
0.123924635816558
0.291216139468619
0.189875993909505
0.17330261176395
0.187324306736189
0.152393362565943
0.276841315205798
0.200611994721456
0.202090843759163
0.20535610946818
0.215288173626508
0.216099747775456
0.235752529657278
0.234616676896727
0.256288678924715
0.253339754621386
0.253985729779329
0.248420512435564
0.350775654008655
0.306712193523219
0.320881746891116
0.288835135622034
0.320127603454083
0.321451405138026
0.327695015432656
0.325770682010197
0.347284881911641
0.311939537293657
0.427831863880146
0.361967333843095
0.390580981534891
0.368989309030102
0.428759460847165
0.387929623815806
0.441483767338933
0.460365635978148
0.417961334505698
0.439160077385208
0.431172773248226
0.458671748089094
0.448248145407516
0.500837382393041
0.494852509101121
0.482194634067396
0.497697196163567
0.49582666805188
0.502290310690202
0.507553827638134
0.525623305750162
0.515483233452935
0.558544681682469
0.519488473222475
0.685803422174046
0.591264325705425
0.515807891286855
0.548169629268726
0.527134097742534
0.582794522412796
0.553511283304247
0.559313319568902
0.582824781781739
0.525683189621631
0.554650037721475
0.53301404003256
0.546454046930988
0.527063507825621
0.553074449351506
0.531479935877834
0.562825301886232
0.549245875605362
0.517091008716136
0.637716169690132
0.538485127107845
0.543865269513679
0.530599118343553
0.531757976432372
0.522933182358709
0.533352920126597
0.520869180761016
0.555857453306301
0.506836304056733
0.515913643453401
0.511186308651573
0.518868161234473
0.526692548682525
0.479807005674074
0.499430058386904
0.480437869474988
0.471463596265696
0.481302861535916
0.450867135510182
0.540258514943271
0.457945204051667
0.466032929581848
0.456280081279495
0.451694734893639
0.455391816516911
0.448083707066986
0.454028552455456
0.446274291336543
0.428862059417846
0.440623032292503
0.430079742541869
0.437993407464052
0.430413212002677
0.42665128363336
0.4393398672646
0.423001065923425
0.441554598938617
0.418657890924496
0.428916027280604
0.420221634989981
0.420499522471139
0.426136959576781
0.427059484733836
0.428252921014322
0.420804389521881
0.43031350252508
0.423359064275751
0.418581763840455
0.433531245142533
0.417017736477375
0.423556005590083
0.416353144055512
0.429272283458187
0.41616458898741
0.429336569986043
0.417517930314927
0.425797002450323
0.414287824794319
0.42517869566929
0.410614227444153
0.428287626876612
0.405510805603905
0.443377379038437
0.455623465316058
0.399999118816597
0.425193334846269
0.402987597883644
0.418159036111141
0.392401866269699
0.44064948496901
0.44232224018838
0.397944424820295
0.407852638048095
0.399104782735863
0.401638546279693
0.421062643530107
0.392662433763692
0.406292735985717
0.383915688847849
0.393370237696449
0.49152861820334
0.390138767588598
0.505022278107795
0.408203548910068
0.403327950685383
0.365110824252716
0.450801263527273
0.38754649411358
0.395688380217857
0.391030856446701
0.425744069491236
0.415200497853675
0.384056287744918
0.395215301323481
0.382390829421429
0.38730703415256
0.415773308167159
0.390746599671075
0.385847815181999
0.426534505069043
0.391975022283117
0.424461134227047
0.430460700369414
0.401474490712702
0.369829329107035
0.36615394374986
0.369278076968356
0.349546097317333
0.416325009801091
0.368837792068159
0.359503404908226
0.351485998676073
0.33443564259991
0.347207586331832
0.345253243955711
0.358996318347824
0.319792186299933
0.372163701802352
0.32323686027611
0.330422040769839
0.34496752577215
0.337518782552903
0.374021968784679
0.321590827848704
0.317396083055277
0.316328074531615
0.367041785393687
0.310315288998883
0.31622359563101
0.300663398967292
0.290188750522104
0.314957041273364
0.294717553555086
0.283480708868491
0.304871656841383
0.284829049115053
0.338090585182576
0.317573468415879
0.320673278413185
0.285864437095593
0.261254110289469
0.268977157160124
0.264069374847487
0.260018862665118
0.264911088998223
0.256234064916815
0.288285090044419
0.230820412654463
0.314670102016099
0.268238258321734
0.259238957068721
0.265944925221093
0.262414872499179
0.264245002268693
0.289630517733103
0.291477812590453
0.293891553091882
0.26179093573428
0.30643785329638
0.267405032029677
0.290328717478889
0.271877083903778
0.290898193434205
0.282992721347376
0.307282869663173
0.29598690301076
0.307680888612402
0.306580737026625
0.32431328414183
0.31290711916088
0.374189912580455
0.312953321383779
0.363710004116327
0.369575324241504
0.390627912380221
0.383927617908717
0.363815421567606
0.380783382228653
0.381135477107912
0.386230700763797
0.399074981985902
0.383921660555065
0.445018450383609
0.405835234832929
0.428563949984515
0.420505552607203
0.430896852238171
0.424600076862115
0.452879446538671
0.463198675447823
0.449467628377556
0.522796947225194
0.449648232224414
0.47042133067147
0.448432468622666
0.467171481655318
0.473240264955111
0.451618499464013
0.472779316648302
0.451101276762692
0.487154411151186
0.474732755527567
0.471814321196243
0.479072338235961
0.474837897091605
0.474692244749662
0.486636976772268
0.489784318421294
0.496998443806832
0.485471922669887
0.503683204235956
0.46958653279945
0.565633804647687
0.532003146006762
0.506063924021857
0.519289191157412
0.501150776927343
0.529056892449637
0.513898208653934
0.53730342874942
0.543974244340151
0.52630801737461
0.541433813521352
0.538376952796111
0.553694442081535
0.553932890534921
0.572991918940462
0.55220753580042
0.554193987002996
0.568292424283989
0.53466243514061
0.633407746341185
0.570200203768799
0.5983499882181
0.568217243254488
0.578826151118637
0.572632045960491
0.578668090351494
0.582013969449731
0.583348522195324
0.580003624491564
0.587695587363447
0.587484004137901
0.582412803759411
0.59071554050232
0.585409179738297
0.605018551498581
0.596538601339571
0.58779280640358
0.588826669077085
0.593175866994475
0.585329221540101
0.594123754623788
0.613382191479985
0.580368653766104
0.593495609703498
0.589302465882147
0.602037146044051
0.601356072600527
0.582980144551446
0.577194846498096
0.582095215550314
0.58362316705033
0.586734404987125
0.578057025592635
0.615865780807474
0.589527069509358
0.587850220256185
0.586181257086682
0.594916116917163
0.58947044440897
0.599941037367481
0.593315068962261
0.602496481459796
0.602383796080653
0.601595537426823
0.603830130790596
0.592346488865108
0.604665352142219
0.615797672591255
0.611704642463052
0.599416366993254
0.590949568819492
0.594205843292919
0.590187568586925
0.602773075037719
0.583052710523511
0.584327215824879
0.570318049448085
0.576722561827817
0.558966912156772
0.585718987512605
0.562592585821505
0.555818521513169
0.560652820871985
0.536984951422755
0.551820709996418
0.540687283999829
0.538780140047055
0.526623894219643
0.533531309652044
0.525236820832568
0.526272023319695
0.519017490779668
0.521081520741123
0.516466900444943
0.521920635176571
0.519358879394049
0.516718364034018
0.518465591677679
0.515649410421467
0.513563535296155
0.508881971332052
0.514015017809783
0.514784374212064
0.515566028911516
0.523335198393791
0.513915597668669
0.521120918810784
0.504138289581467
0.514291973668633
0.50285924847491
0.5141751040939
0.504621922466682
0.509245555300767
0.504295555165984
0.506080139535997
0.504052162088194
0.507460631315321
0.502126899649242
0.501318882868184
0.500710635317827
0.509151985220884
0.502404569973492
0.505276947738074
0.501901600273184
0.500297815425609
0.505271444483043
0.503818989745217
0.508574572822289
0.5031299632363
0.511185414665138
0.49748652742089
0.50943020250368
0.50810999286315
0.49946536612039
0.505787828079724
0.505709488714258
0.500252224389587
0.500531435090098
0.49846124857592
0.495917267492726
0.501020299211782
0.501647332807463
0.497616895365522
0.492077883334972
0.495982478812887
0.488739825462106
0.491887871080461
0.482044080749391
0.477930122121574
0.473987153744746
0.469692060610583
0.469998027129901
0.467982394552976
0.463568665348975
0.455949183221272
0.453307731941568
0.449944732911183
0.447732784962612
0.445789064858049
0.442016356742494
0.439663282354609
0.438002522035785
0.437719608170093
0.43894790172788
0.435018730498946
0.437188405722932
0.437156331981618
0.432479029437666
0.43557721814518
0.431953181696364
0.43434969908318
0.437489177483657
0.433691673447165
0.439713958612538
0.43944002250006
0.437080469362359
0.439768894146544
0.444743422888567
0.442975225618218
0.443543757642969
0.446303821350078
0.447250753571162
0.452037298765846
0.452781947331559
0.457209903355112
0.458044069157155
0.456926471257395
0.456613896019862
0.459979095059193
0.462819189121964
0.464364527100319
0.461602699120893
0.459589800807829
0.459571126614602
0.462852830557847
0.464127742447147
0.462125442865319
0.459608135586933
0.460201668931939
0.459913801243657
0.458315052158527
0.456935210415035
0.455348780979092
0.457657650560309
0.453579358402104
0.454451656179261
0.452325574249904
0.448404463757422
0.449361023665083
0.447202589583594
0.446075492613492
0.443621590148443
0.443045420889001
0.440596262840487
0.436935795398525
0.436585033161541
0.437332865203845
0.432357009092158
0.433927136494604
0.428322935228704
0.42788892608292
0.42945024115951
0.427502787292263
0.425481922499661
0.421727640306327
0.421971503491958
0.420897974827127
0.420564804385651
0.418891402371008
0.416529689017939
0.416138025299461
0.413658394654577
0.409206027938997
0.406714956331937
0.404271246649978
0.402066215505743
0.400298310365908
0.398803910127517
0.393536630846973
0.390209773652209
0.386774893007358
0.382931763996847
0.38130935207822
0.378773428407061
0.378159496318124
0.372008477176608
0.369680298224141
0.369635486138204
0.370987133901801
0.3686676869373
0.363988014189091
0.360755181830688
0.363367334222407
0.364386215448579
0.361558194307118
0.362065418002415
0.361259470467256
0.355378767347724
0.356611059848943
0.349777560372508
0.34823046265556
0.346361865871283
0.339807896217075
0.335532996367391
0.331375256855138
0.3279896721602
0.32443662028291
0.322684823558601
0.32164567277365
0.321078197059538
0.321108574574727
0.322500501120975
0.327004392880294
0.33046406773784
0.339662307388023
0.347891218323714
0.355532496556551
0.368410745189512
0.38188746379795
0.392164225581209
0.408960821697283
0.4254998362421
0.443535811850466
0.454261695438155
0.472393848153684
0.490218392284508
0.503969956566263
0.521628560521351
0.539255439094924
0.553322694192293
0.566598287335911
0.578702599185451
0.596087591037034
0.612071036770385
0.625059984328619
0.639389249346206
0.650380467573389
0.664094321420756
0.674659254691665
0.684206377995902
0.691202637344691
0.701096066929378
0.712278314356245
0.718306331175198
0.719382358300454
0.724103676860532
0.733040318110086
0.739510344512398
0.737127490226154
0.73650348140231
0.741321710390607
0.748828298969363
0.742827181290776
0.745321244565522
0.747622395474305
0.749074842236482
0.748911572589551
0.749505763667339
0.751391799513076
0.756167184441969
0.761421218104642
0.761667623368257
0.762085351862636
0.769129394140019
0.778511151433952
0.779881147196281
0.785127959454221
0.789182396220149
0.795715327235077
0.804995131872721
0.81709117446181
0.815678949168989
0.834311025682762
0.843114227904091
0.844612445992084
0.870816084902959
0.872952366604063
0.884918020991246
0.900273490686779
0.90234322831347
0.919562422580359
0.940321628721
0.93221766847604
0.943986421604411
0.949782633982721
0.94713667340992
0.954900417095338
0.962533737704674
0.954629672096851
0.94637433275642
0.938917103063463
0.943705669517938
0.949811559338976
0.935432201475118
0.932839511889733
0.946483414308671
0.949806742082977
0.93231409844468
0.949692446807765
0.969973581229419
0.981789316652977
0.996646156639733
1.00511713284256
1.01422126808478
1.02754465235028
1.0446898617873
1.07097084909556
1.09569979139236
1.09729937987688
1.10815408519628
1.1233137609261
1.14240482667717
1.15252801067089
1.15499009698065
1.1812430823046
1.21224192675237
1.20588769877084
1.23103106471935
1.2286721687137
1.25664045072682
1.31249689411473
1.30818548917575
1.32559523440743
1.37366927411698
1.35639542438085
1.37515241529825
1.41271957038679
1.42804284481297
1.42502716542847
1.44590503893188
1.44423025219687
1.45096252502226
1.48961171257855
1.50739960674509
1.5174378296996
1.51852379662006
1.52496207859739
1.53059662202342
1.51106860166296
1.53606258383407
1.52907765290361
1.53259873585752
1.49957409198853
1.48329298291567
1.47312626542727
1.49026549908458
1.4773666559819
1.45972276947131
1.46321729173389
1.49291703509623
1.51823591115556
1.52210012710898
1.52753123912534
1.50368001106031
1.52531094375209
1.55685389416909
1.56175762139866
1.54986858986277
1.53043607365456
1.58433295304224
1.58555260804052
1.64517284799913
1.61881029853807
1.57036266294174
1.641035270873
1.63923229028308
1.61768072156437
1.68916372726289
1.63402502745667
1.63105574711349
1.60061920435606
1.63618934547878
1.68638081293339
1.74916813144495
1.65430263175539
1.6442003240481
1.68122122892844
1.65683612952872
1.71062980153699
1.68510015868953
1.64778367280422
1.70647246532355
1.67017789478752
1.6066830926699
1.58937916779353
1.61804995261722
1.62773914837898
1.65715213150612
1.62779236341972
1.59574187792138
1.60621470135791
1.66881529020951
1.63221657682035
1.57508299578153
1.49435171115311
1.48997086656479
1.48587936148981
1.45110386304751
1.42795257545078
1.38929327517254
1.36530616666126
1.35025931421209
1.28068765496937
1.22129467391897
1.19733837381657
1.18547178860393
1.162075873703
1.12436284243123
1.10637904683303
1.1291303996299
1.10213220959385
1.09323548450873
1.06910402933156
1.06306161360042
1.06667670522813
1.04701500876834
1.03329906413411
1.02265929291161
1.02778422252543
1.01228671402042
0.999296643202623
0.9944542246236
0.965448416889054
0.944891222081855
0.926101006189396
0.901922345867161
0.887703544358485
0.865104386010392
0.83215618421143
0.811006727822745
0.778338157954974
0.745655007299006
0.720646772363597
0.691244266483581
0.66036613686793
0.623842667582518
0.591858649605328
0.572122523782276
0.543279271137995
0.519745102030589
0.494117324549909
0.472270774030525
0.453666166927606
0.430237368566749
0.414976840147309
0.404599097707194
0.391469824664079
0.379495267384368
0.371157296707653
0.360819936611736
0.351274060105078
0.349160976477873
0.339586790679512
0.337115263967156
0.333691679114714
0.332414203980319
0.333637618134374
0.334216893039774
0.332993264034999
0.330712562595112
0.331657179912178
0.33471826618614
0.333731252198451
0.334849030124461
0.338678997088054
0.339761193826704
0.34206583223583
0.341154085773502
0.335828738644929
0.337970228540118
0.334886120929877
0.332577719929154
0.329576467961572
0.329116434652645
0.326673185550722
0.323353144653618
0.320139054655051
0.318626425385176
0.310447878193437
0.312713780584847
0.309640513095356
0.310870831128569
0.311034468865567
0.315420472080279
0.319882275256904
0.319532156089365
0.320200266747048
0.324384701656742
0.323899157034179
0.328968045148744
0.333255890291772
0.338099490635137
0.339050975516712
0.343410716749727
0.345419735161421
0.346058333134269
0.346667221908405
0.352682192577025
0.354427543131378
0.36150321004016
0.359801065256029
0.35360495663349
0.354397028657785
0.359909506000424
0.355173110654242
0.353587355214273
0.360298069532566
0.366229851260263
0.372835020303283
0.373991133296104
0.377535166454587
0.386047954316715
0.390239963957373
0.39489799466609
0.406185473552296
0.417213124038196
0.426998369217463
0.437749483956066
0.45616189806516
0.47755483786571
0.48268433690753
0.487708294206546
0.492398577316301
0.505535737700192
0.495802177642307
0.489228658028085
0.496671590521677
0.485209574002917
0.475636143563378
0.471969450324443
0.46361654303728
0.447417790636766
0.440292977259626
0.437196653611257
0.42942563984607
0.43046312189213
0.433116969248216
0.434415412495753
0.426296793965423
0.426281545249863
0.431682784398874
0.432830561859227
0.434166698684292
0.433767751601554
0.4285593465021
0.424014466996127
0.417633681222184
0.423128684460876
0.41727112897111
0.404667814753447
0.401407542464166
0.403015973504575
0.404249755141624
0.392175280141322
0.387503523042686
0.387832464066109
0.387938874605191
0.387459311269131
0.369966344720925
0.373251384160636
0.37964537280724
0.372372226275578
0.365015497860991
0.362900113600219
0.365670466126455
0.356525601572326
0.358166100675763
0.365634407263411
0.356167377836265
0.357850019791824
0.353896148543911
0.34496138314447
0.346596610148182
0.348226984864702
0.352974231705203
0.352405474820069
0.340647476383978
0.338229766488698
0.331859081799296
0.338060070234293
0.33902295482069
0.331674972597218
0.333463544949068
0.319412620597884
0.327992562404001
0.327055743170399
0.326621177398606
0.323543300962914
0.314649313184837
0.316065409419689
0.314455525928066
0.313241605096652
0.321109182330998
0.319641306468376
0.319779135937783
0.323299233114196
0.330741058561712
0.324813856672885
0.315751700973124
0.317917308415068
0.316482030604906
0.326889939336221
0.317626594098384
0.328491212829042
0.334966291889824
0.329971030329877
0.333129135729166
0.32687302584015
0.333764619839733
0.346914952016633
0.34787285998398
0.34154073789256
0.352340388758439
0.356677520202701
0.338673311099555
0.349196474695584
0.36614035444774
0.362094603642049
0.386398553390195
0.384579308157088
0.395225804636812
0.392805714664541
0.388626746067421
0.398023302250341
0.415179866198858
0.427164349588432
0.435076175466714
0.440952416931643
0.451565529202045
0.468686149388828
0.479069912531633
0.500717551464007
0.491071983925142
0.511359859993571
0.544609617897385
0.532754428609516
0.54474253891257
0.568206531131581
0.585703566446499
0.585235611540179
0.588503976310964
0.579833505752716
0.601360342204645
0.621637147987342
0.59462303583938
0.58904112405258
0.571466037648317
0.574402040975263
0.57909443407054
0.586268829978602
0.575283235168916
0.579287686159104
0.612461117653395
0.596583767508346
0.573811632798645
0.542271041333851
0.591421334870442
0.582438867866148
0.534981695907244
0.525888046823031
0.553605794889605
0.525465916128581
0.528744136390629
0.57057848029066
0.552759152341337
0.515400713078134
0.505059031446839
0.507043095866203
0.511470019528537
0.504128018674123
0.530047576698144
0.498560737892727
0.505525486047601
0.501878104213248
0.507959184591678
0.477605406737829
0.503901385973809
0.492590997684831
0.507588396000702
0.482426926005798
0.478028472983658
0.484932349445853
0.526570828413577
0.519196209487655
0.532555559603111
0.516422481512599
0.534019037922292
0.533011101110028
0.54881944213274
0.512301779546045
0.500977908744504
0.533151633567053
0.49989138795238
0.517519231088169
0.550268909164436
0.516354295668622
0.507219080767285
0.54604209213541
0.53576759725979
0.538707798843602
0.580336690383655
0.528821232694002
0.601549403548879
0.590076863420788
0.515378096959947
0.558980191480059
0.600934297823471
0.556752770974139
0.555342082565889
0.548788099044958
0.612111056421861
0.593487176140177
0.607784326156839
0.599335660379741
0.623825257724003
0.610183866300453
0.671801044882758
0.675312573154514
0.660020495446187
0.604264352083323
0.619394180533047
0.721419883515739
0.727841154503556
0.715120698801414
0.81811313385967
0.85597458090106
0.764405733006812
0.671364303123787
0.78104932623294
0.677718815242826
0.677683060464185
0.648196924110396
0.674949525546947
0.711238546199471
0.696577150344366
0.720951822539648
0.80996823401677
0.578875056361118
0.699326776948235
0.66600305041254
0.611583958539818
0.693650064216576
0.747056802760227
0.677622522885462
0.71918196841241
0.625684791100653
0.732260750758517
0.717370352833745
0.795297817438282
0.688936880899362
0.669036234493023
0.752370862879169
0.870641066284808
0.581153515395678
0.638438574209707
0.784705738468181
0.739787870172382
0.598084212476124
0.699195588415245
0.696626219806911
0.760735639150311
0.609528667556679
0.840729318727359
0.65286463546247
0.840894361509018
0.633143597512742
1.10941482642858
0.79130716779891
0.818972339879604
0.449525582424944
0.562039260342827
0.66714472809195
0.729612910110927
0.788523822032037
0.881619686061374
0.683876088163927
1.78285953065859
0.835874286205859
0.685385159759243
0.563876706684182
2.62738003555276
1.01741829846799
0.691480498483741
0.592874142825043
1.46585944942596
