3596
4000.36533379555
650.420452594757
1
2
2
0.0874623533962488
0.0855637111288387
0.0906547064699212
0.08826397408574
0.0890677077559513
0.0912779291185351
0.0866310314839782
0.0912606438207548
0.086849292477624
0.0902268355998857
0.0895474845616472
0.0878192855057771
0.0863471492511898
0.0820738404171778
0.08411021133177
0.0837540523973997
0.0892109713291385
0.0866682031011735
0.0880440827599424
0.0854787281789895
0.0885633214728695
0.0871227017062659
0.0862439070828745
0.0860826258610574
0.081381809915146
0.0898180496628884
0.086850951594916
0.0836639946045747
0.0864179933394013
0.0911831017449773
0.0862484573849419
0.0918554961728372
0.0905091441120887
0.0865438364166296
0.0878293502334187
0.0848579009203125
0.0918054364756624
0.0905806014873562
0.0830766428591214
0.0903613303701507
0.0955112014125065
0.08950308495095
0.088406412012
0.0877550195128461
0.0809241912272424
0.0862030261411637
0.0872751168612627
0.0813642051822256
0.0866524498116602
0.0873506430997322
0.0876593054373066
0.0810010053908441
0.0898055576993338
0.097022761408516
0.0899073882907375
0.0934989949893429
0.0783544572428022
0.0921239553279075
0.0928339191786342
0.0773486222590043
0.0987061171515219
0.0907069699405913
0.0866447948732931
0.0853310075517636
0.0839672939290209
0.0850327811826452
0.0782043570935396
0.0878407611594798
0.0811139979107357
0.0844129210608629
0.0786799765419985
0.0965932679702511
0.0890139859328563
0.0868173220310251
0.0928125111762964
0.0825860637766536
0.0748538014625957
0.0851209528116073
0.0750084901745559
0.10442995029897
0.0945098308640908
0.0828558213017291
0.0754260092878568
0.072837363527111
0.0809903771452729
0.0960377857504956
0.0735600798931696
0.103451213886563
0.0937087599510696
0.0879229833270337
0.0840243341884503
0.076801559558425
0.0762405303014822
0.0848681392320081
0.0786435540164302
0.0861761482618044
0.0772642286079359
0.088085609646015
0.0702545743391526
0.0829109827689573
0.0888307672971969
0.0935388427225113
0.116886112914759
0.0628152146883527
0.121383084669282
0.0919847137292329
0.0763543285242257
0.12064397567218
0.0868421285300489
0.0893989445871024
0.0748691802709846
0.0845857513943319
0.0705274202986068
0.0914618545664976
0.0570981545383025
0.0946935489525558
0.102947547835666
0.0878240905821977
0.0833142032438854
0.0772370204125742
0.0652437775146213
0.0969995579956253
0.0999803904769406
0.0804447823598618
0.083615746081324
0.0795913523357075
0.0663905844072156
0.112507531071981
0.100396521817513
0.0799863661946695
0.0831410675937758
0.0801137126562617
0.067319014901627
0.0693888466186905
0.109638067433914
0.0831360394916949
0.0811305785446102
0.0633832147266747
0.0870978513223574
0.119385634179883
0.0991031273591285
0.079229041610799
0.0556117580846146
0.0928587542353333
0.100251806015375
0.0801233009432101
0.0798650143866507
0.0888703143282513
0.0834369203233401
0.0742181294464213
0.0759126126247835
0.0694532656872675
0.0861760437978124
0.0836961831512327
0.0308031170722975
0.123532293158655
0.114020835812419
0.0876772378809905
0.127545728427943
0.070145470359741
0.0929579036155325
0.0708341844374159
0.0738014128209775
0.0670403270186884
0.0828549631091401
0.0595759733548945
0.0885619268287644
0.0904180323713959
0.0776008002307735
0.0781112285504642
0.108709231039598
0.0733251304184522
0.0595173653420848
0.130746187021562
0.0831268874495079
0.0743174178039548
0.097059450818243
0.0877062165314215
0.0624482158202871
0.0828614554708689
0.0967484052026586
0.0753919893203351
0.0865036548867024
0.0755535930409517
0.0740384065426078
0.0897864868347804
0.0807441961821222
0.078524767483633
0.077669021969453
0.0498311668542365
0.0807144537431825
0.109777383138398
0.103696100488834
0.0768562220219906
0.0865630836290693
0.0379212011350418
0.116351519510005
0.0906774288451019
0.0739560161824368
0.0770828455794274
0.0687253647919304
0.0778657607928257
0.0726047017940801
0.0734579837278776
0.0665561657247603
0.0513114529161912
0.120662289001138
0.0877687231826619
0.0767298838833472
0.0709725100512126
0.08608892652535
0.0567321956280405
0.134402865991114
0.101410942560622
0.0878499594060148
0.066610841021546
0.0724068948793359
0.0929665561176589
0.0896472722149577
0.0755307166923401
0.0818279638716185
0.0700465656608172
0.0692149263205562
0.0764291638602249
0.0724898641527765
0.0746770679054769
0.07607809945911
0.0771962786599222
0.072036156299473
0.0785842795312893
0.0847224236153719
0.0829409134995071
0.074472552924155
0.0783894022885755
0.0628090186076508
0.0901947298013598
0.0907154267904788
0.0777750786256232
0.0726488773817167
0.0690251533018746
0.0742125383877623
0.070944484396556
0.0795309028946667
0.0782592337654028
0.0711904831191007
0.0677677525870358
0.123073113496466
0.0766599780801015
0.0837917063105099
0.0613132138392867
0.102625570608487
0.0858755367849383
0.0843488069034983
0.0739391543456481
0.0819181995379076
0.0678236442044327
0.074922900712666
0.10187725379784
0.0857189150105117
0.0673233356072691
0.092389270180109
0.0873406062502264
0.0846456794566051
0.0687217263368115
0.0577183554162271
0.144926289449579
0.079031534977781
0.0729639162499624
0.146241436468352
0.0830755483842787
0.0927068872335054
0.0766661189808372
0.0373065333905954
0.185726988986955
0.130186746317885
0.0808213864691388
0.0807616740235528
0.0982471552764892
0.0794170441441285
0.0901142431463083
0.07866738220943
0.0969028010072662
0.103252965158969
0.0949231209245446
0.13084695735256
0.0605757865581574
0.115631651930622
0.0932896200798209
0.0966256792860114
0.0891399814581601
0.089710945930812
0.0767385161817344
0.0986059180365619
0.085583973443294
0.0999727317592991
0.0908437252038533
0.0830194716208464
0.100368633328465
0.091022226258615
0.0824201068224712
0.084585130023812
0.101592543425201
0.0838038344989478
0.0843788260104236
0.0874549546711964
0.0975385223087956
0.0766237087068066
0.0794743401906994
0.149223301410194
0.0952171030750486
0.0901008653662298
0.114013907783756
0.091610863141201
0.0891887945723917
0.0862909479360938
0.0951953014894755
0.09424440439123
0.0846204060488237
0.0912135471332573
0.120371084448773
0.0906038995959732
0.099663584579208
0.0873608024284107
0.0893172675962584
0.0949386798634882
0.10094272536236
0.0933932582551126
0.0861884666474789
0.093678439291516
0.0793837439299486
0.102107279622638
0.129910665718015
0.068693029056933
0.128472190509349
0.131914518280417
0.0986276565721866
0.104130814232011
0.0961759555895118
0.112398320331313
0.0950982527764288
0.109545599336149
0.0958787091251588
0.1144698805882
0.125900252429789
0.111695620178527
0.107687144646878
0.109681389107263
0.151809262910267
0.165676363017495
0.123984830652598
0.118453285296023
0.0921534133801756
0.163792620621138
0.129165762197557
0.140586185986468
0.150572369829123
0.108825082275803
0.126774780457516
0.12088979054294
0.130051356384736
0.122586836501941
0.13853388690033
0.11642863085468
0.12915783993089
0.12674789776818
0.140071814354328
0.125989788217022
0.132662138061606
0.175254300909195
0.136074678106679
0.1400923277535
0.15406547270904
0.123655588139265
0.17449455793106
0.161165991779771
0.201631757322307
0.184253987439628
0.172349094227374
0.202911971983976
0.159100842628725
0.171776787363677
0.151918388707759
0.169692078543226
0.169741443590703
0.179031295916804
0.174025424301334
0.180048761008392
0.180027102619805
0.188759666200356
0.177879914157774
0.186262349227568
0.183480638809889
0.210419713071337
0.190015711479322
0.203964081420705
0.18390972974994
0.216774858098136
0.236055437574105
0.247349660411913
0.214191302084393
0.227890712500364
0.217488351394809
0.21292275869191
0.225036131063667
0.229836282895957
0.226016682394855
0.224098034340766
0.261077777332429
0.254588570242016
0.258855352159238
0.256309119276352
0.22221762366827
0.268018017520227
0.243796425857991
0.274344954736543
0.278230078037386
0.269442459022926
0.248468895272052
0.310603158845065
0.284448341045018
0.28859903642573
0.29576696000932
0.289430226179769
0.268325822945945
0.291127181700134
0.28726087868982
0.283135710514782
0.304079886614692
0.307742670310342
0.311199639849649
0.325015804989901
0.31305351275734
0.310483456245824
0.338196601961055
0.33439563582633
0.328044979473468
0.358290793671616
0.321531196861088
0.343312884848373
0.325910979308535
0.395822236778104
0.363507841510682
0.370099900377398
0.366913072595816
0.357401638090251
0.356554035900649
0.374214585329937
0.373727506902501
0.379806325236945
0.383120652528126
0.383529918164234
0.380934608695304
0.390340810336412
0.396333628615243
0.396945412835562
0.385779343200055
0.438786337188349
0.404389034454536
0.435244293685149
0.408263426270852
0.438306890952305
0.414440158955155
0.480599627514445
0.452197289960511
0.46637292436118
0.473233322735022
0.472253453823353
0.45439090179919
0.474841501407479
0.452614446095528
0.500350475560919
0.481696979079919
0.483768376468399
0.492591409483693
0.511093504423365
0.498684740661003
0.492200297752813
0.493196662825471
0.53156876320975
0.522934263149835
0.519189095709833
0.529125565079386
0.55476219080812
0.531354543758991
0.537485473020372
0.556231023024607
0.544461394430051
0.553520042937354
0.577132209683661
0.543258850917824
0.574026158880183
0.561277395728025
0.578697998678319
0.587126453472253
0.615520545233476
0.568815041477543
0.609250844298516
0.5971075519249
0.638859545617313
0.627304012864171
0.669617459181322
0.616270152157901
0.671805508050786
0.612511438878267
0.683071902426514
0.634685601730505
0.708325341827328
0.639115415206609
0.685102957418058
0.660235271837721
0.68503506257497
0.645965555902647
0.713513375905357
0.692854300814162
0.679421652600773
0.689748659639054
0.771224708470207
0.691155707517971
0.748281520070882
0.705313994521072
0.747328338820748
0.712658524878994
0.755498647869192
0.777217990172719
0.778471308513627
0.771752538972871
0.797658295948824
0.767578200694572
0.799014070422338
0.748276230941896
0.829922113646436
0.763902369271047
0.842506694946783
0.79721878875819
0.784710203641512
0.802963279518335
0.818850104606885
0.788553700282455
0.863062737262673
0.806791525486417
0.868159310762867
0.80029247424775
0.863043783470729
0.838961039092777
0.853255839874707
0.906939290173697
0.92376374838697
0.841344214815953
0.902744862812334
0.883387635144482
0.919751119192978
0.881961455978813
0.98722266591156
0.894010892331421
0.912545505995356
0.876004945377845
0.935279913604684
0.881624237531631
1.01204503371616
0.931317834086235
1.00041920757763
0.936072115220535
0.971387380328963
0.973193311649031
1.04258407477335
0.98345152550844
0.986450066959712
0.892765212282993
0.943948538230118
1.00528803654591
1.00986852858224
0.917397344973236
1.1056213055375
1.0274707247024
1.10457865517947
1.04435597522422
1.09134347388441
1.03366850242171
1.10938684254147
1.02063349883144
1.192987543103
1.02469037405846
1.12123676394152
1.08556274123713
1.05764588206862
1.13254528477328
1.16419424209621
1.06179087844701
1.17186294818148
1.07032363417316
1.13980509655331
1.01366929169676
1.2370934851341
1.12580609979067
1.24063661055837
1.10532478084422
1.16580381935531
1.08745813040346
1.27818460619317
1.14226215440804
1.19834481019993
1.16224449516305
1.07595359227996
1.18344096243737
1.16489801574267
1.0770702354293
1.33516092911465
1.15692482010388
1.145241735054
1.20695743188339
1.27189838706931
1.26661098394082
1.30125002530704
1.25872609167538
1.39207300745925
1.19261643430102
1.24214735826207
1.24539993144621
1.28345122560603
1.25628705989886
1.358066292865
1.26311931898263
1.26682179705742
1.18621065513929
1.45719799056703
1.26046757284536
1.30965343027685
1.31306237345683
1.32598203133261
1.21285636681331
1.38451946750905
1.2391149018208
1.50860083227384
1.35666598592241
1.53750421339373
1.34675565773988
1.43484905473733
1.21268096130486
1.46711099993757
1.2803862387178
1.3270699220655
1.31284300059147
1.42669571695549
1.26966248356236
1.47278568754763
1.33656418626444
1.55598419963547
1.2711699739838
1.38609952683323
1.30358732074535
1.50700451447578
1.28398369920928
1.40133190140038
1.47537041210729
1.50336430365789
1.38349455043131
1.52490354500755
1.45151437023908
1.53941154714365
1.35741236226064
1.63474463819757
1.33923979601421
1.69170147555947
1.4022264954586
1.37574008013775
1.59509203594606
1.6952818082566
1.43667893736725
1.37530154742803
1.40447440684487
1.51000660253853
1.49272906979821
1.5055834906627
1.53993482609839
1.53279319795704
1.36650764237076
1.48821821179243
1.46654800879497
1.5991818657798
1.38805085381127
1.82633584475908
1.53656571035776
1.57241271303921
1.58232997041079
1.55281898162775
1.52550939558276
1.67327755015344
1.4633444363756
1.5649642404604
1.45050092491422
1.61517152023321
1.47015527569181
1.55127601363013
1.47782971431314
2.08946613252363
1.49260710941172
1.59507879159571
1.37513604712267
1.51844103580788
1.43621873517183
1.64708464017511
1.47096023682419
1.47889922646821
1.57719725273253
1.66994359015969
1.55960253566787
1.80753353979223
1.50134360436158
1.67147782618957
1.48275595639569
1.87291291816896
1.60593918779358
1.57119149626952
1.51570449797293
1.94593070783768
1.48175602593209
1.52602764878366
1.52229418029558
1.738224326967
1.41736131892085
1.64881849222424
1.5040685462271
1.93282764549051
1.60409129579045
1.64336064676397
1.424849255397
1.53190264289814
1.61179878154329
1.62460984051129
1.67943036475044
1.53596305183619
1.42283682266566
1.97964199324061
1.52314628438338
1.61217507750501
1.62477882058744
1.72924148207916
1.46623233298697
1.72099765039929
1.45182643694312
1.77131565322647
1.65388565697687
1.70334598778987
1.4910995034471
1.61189611393025
1.46000367527372
1.50480957149772
1.63870478023147
1.88435320555703
1.56650898064107
1.57911197959887
1.53216605155224
1.80856535211651
1.46063880990498
1.62245538529156
1.60446429553804
1.87103770912705
1.49642163693614
1.63803421205883
1.55294005036615
1.77567628994605
1.55100252838868
1.69745050333965
1.56422636398531
1.67661221216794
1.43117122024363
1.62824686044818
1.55398844144103
1.97465111543919
1.69570883914943
1.542076218948
1.53805246874514
1.61196508152672
1.51753817341444
1.61889282303205
1.46515456064003
1.53004706159138
1.46825206554098
1.62190029301417
1.47163858695836
1.81099750377967
1.53952344390105
1.57251286751155
1.5421540795258
1.50763811292434
1.51279546015784
1.73530796775364
1.61153068766431
1.63752167387578
1.50629974790803
1.57935525296028
1.6909990309347
1.70077158251037
1.58781788085717
1.68172250060186
1.52530330541975
1.49527338319472
1.65044032084453
1.56697521967665
1.65087201034433
1.67082882753122
1.49867642657435
1.57488697790255
1.55630539665364
1.57106019480702
1.48824595836919
1.61501834692393
1.67521354498751
1.68251554386263
1.43758263267848
1.51132783361932
1.46919759166051
1.40255356929136
1.53825210139569
1.54952363217525
1.52214449945747
1.64386911525797
1.44242424827783
1.56296598376124
1.53993300698862
1.55686373272989
1.52747253090842
1.51112093108372
1.5055307957133
1.602234993938
1.41345238120954
1.67142857278279
1.36334914417508
1.45921807469689
1.38889775639628
1.52282502559596
1.45945862997003
1.47774606315906
1.50603326329162
1.42951564844466
1.39454509080548
1.54395138725346
1.3577466264021
1.46072935891251
1.45261276360772
1.58299887394202
1.39364078132564
1.40360836915175
1.42378195429732
1.39668313087215
1.37591406784017
1.46762754991338
1.32655635698719
1.4259565521113
1.38492485959437
1.42159511349301
1.27811636340723
1.42134189645861
1.44936826263627
1.47964389893875
1.48945457824156
1.39565349514872
1.36144950584111
1.42682508218058
1.41148720190109
1.40346453923189
1.44941346291064
1.4776781802135
1.34455392370047
1.33553975324629
1.3132089200262
1.35639251087054
1.358174606133
1.32887049162614
1.28070998710916
1.37226655320467
1.27483006371912
1.28570016932126
1.32397032341542
1.36811358513463
1.26578434570045
1.34973887616573
1.32734239609645
1.28644367111626
1.22600564287423
1.28778577530857
1.24793172707019
1.29308206914569
1.18172285464908
1.29378350499905
1.20966025698497
1.293332273415
1.27910867004415
1.2630094029662
1.20807553850891
1.28871065772323
1.21015639249026
1.22261010299607
1.17525945948973
1.30716658868289
1.18780370020575
1.23096559845789
1.18363586657565
1.16021158998628
1.17365265893196
1.24925018965751
1.20880167547605
1.16157622785519
1.12625748846115
1.18195273530378
1.13928019657071
1.14578095678916
1.1665934314523
1.12335493877218
1.12123644368039
1.12517673388853
1.12876814065546
1.11384876260204
1.1080320489743
1.11723940598981
1.0844001594272
1.11628682481586
1.09462428348053
1.09657125713518
1.06836772515048
1.07910904967857
1.03387749488658
1.04958603598794
1.03532709663909
1.07106550980526
1.07646989675813
1.0311843018197
1.0230196229047
1.0310541447742
1.03256830349274
1.03288213112362
0.980651329868502
1.02025695580184
0.994156732074874
0.998807511817128
0.992751201725661
1.00300466245905
0.981132884452767
0.989748762520193
0.965766032868176
0.96700441044895
0.94350839219508
0.9816156580325
0.973273802901647
0.93154392603987
0.956806461176938
0.971694347077395
0.982622393315401
0.95795587152624
0.934562565343253
0.9463080055826
0.907145665511974
0.941086326138521
0.925487260617966
0.918300144003037
0.909355925832008
0.938237723451034
0.899775364058969
0.888175694852657
0.883614163661119
0.898965368588091
0.879667178157179
0.858026712502985
0.856776604394409
0.868736598394652
0.851323911970205
0.867751280187279
0.851026979327461
0.851860868928664
0.85480266948832
0.862189334104525
0.826284947238711
0.847261425227041
0.8401020862163
0.821123100744199
0.805031649679574
0.803658092180648
0.813463020804932
0.820137017421678
0.811774644795419
0.7845146261252
0.801171572497256
0.796299479406607
0.796331683383762
0.815644347128625
0.785407615982671
0.796188858434933
0.768142402833702
0.773049220597148
0.765507653140253
0.77062322281308
0.774186578659922
0.750635793285681
0.774066383607121
0.7704763468688
0.754042940688228
0.758295260713805
0.740327486623637
0.741665923768393
0.733565775341278
0.7328878102089
0.721939172099689
0.719656846738185
0.721399219988204
0.716931152937379
0.710610783228466
0.721263590862792
0.703201935673203
0.700494443960175
0.703645232829059
0.704770030533035
0.672722069890853
0.692362094450335
0.700491434151865
0.687490646431958
0.685484087200325
0.684577219320122
0.667047626230683
0.661865444244649
0.674339965003801
0.661908559108995
0.652293373878831
0.650675965965501
0.644040268223767
0.662281620030622
0.656502212888291
0.638461922419334
0.6382339218842
0.643661189856663
0.640581244129309
0.639172875330631
0.626752064280261
0.626149189453111
0.620843418616522
0.619866980951072
0.621983854923777
0.615934322671109
0.609005597235251
0.612375494278783
0.601967661014556
0.606903482733541
0.600208361925939
0.599597999164348
0.596474362636099
0.592010255326935
0.582995240990247
0.578975590094085
0.584776040410413
0.584660804084581
0.587832346190367
0.579480062621455
0.572171959175986
0.57099417911916
0.564062180885738
0.568053699919817
0.568370980385433
0.554385720773134
0.554595920361921
0.557536334663227
0.547014570823018
0.551353833891197
0.554640530278331
0.549598539551324
0.551205660679158
0.541525659701197
0.54446739597892
0.541329036417384
0.53410008317356
0.533469334764694
0.538779462675552
0.533712954820038
0.529479760381923
0.540493049657016
0.536962546487203
0.530658861907824
0.526330959340797
0.524964411793911
0.51828939481865
0.525387306022867
0.522040016211313
0.521444221239765
0.530605911584139
0.521155572846785
0.528714750646957
0.540452394442984
0.526913432788431
0.524737830235434
0.52548572738755
0.524284480305592
0.527622069339151
0.538580948893754
0.527995926349586
0.534359706795025
0.543896371686409
0.535854843127267
0.54243797644687
0.536042080874202
0.53774247306839
0.537652903223141
0.547398874134077
0.553258535385831
0.549273868174159
0.554235082083445
0.565759847043764
0.555673331721777
0.551391555939627
0.561340328158478
0.564811968715247
0.575138054566592
0.562906605399631
0.564165645774385
0.560595942067665
0.572238481086676
0.581303247982734
0.579248184302512
0.580022164867039
0.591450072028014
0.590613157865146
0.585559075662869
0.584745746465926
0.588800899913345
0.591691133876261
0.592992858586612
0.604549535386096
0.605885562783179
0.596901070973358
0.607707536494507
0.616618422151081
0.612015517751602
0.615887127888066
0.622524766579847
0.629260288262856
0.625516009011623
0.624657191289235
0.632939972722571
0.650759158371596
0.662467865796588
0.653276542940957
0.654807424139823
0.658323551484803
0.664706280961475
0.667872413966983
0.673021389523864
0.671962170771695
0.672532024201006
0.675922036917291
0.683961510286027
0.667524914981227
0.669433053244524
0.680190942789337
0.684265904315226
0.682267540553889
0.686356734364471
0.69106160564455
0.676997475647125
0.677498297245559
0.672806951962179
0.6821929449268
0.681716582225779
0.689252207091366
0.672927317123789
0.687536791247995
0.6878711934211
0.675622772653861
0.680702663014852
0.676687024121754
0.672441617541616
0.680802970864149
0.681644327984917
0.683317056514035
0.673470166285679
0.689556216903749
0.674380730386982
0.668045026348265
0.677022127928847
0.675572987315367
0.671489039460468
0.675168316548729
0.68420616295853
0.684111995508462
0.673808383827709
0.684674285062351
0.673900859966456
0.668985232993423
0.68516163385432
0.68240016672665
0.669071204495249
0.662645919718487
0.674268516696697
0.675247432240262
0.673950067516995
0.681142866265542
0.682927464437948
0.683229521452948
0.685054575426306
0.686578157616872
0.670962874356006
0.672623946756456
0.677996453988038
0.670547219224992
0.676469381826939
0.685251502160147
0.671185243303929
0.665161833884518
0.666445918323466
0.668737697951931
0.669957823881798
0.671902741566344
0.659926388277382
0.647625809036878
0.650409732269417
0.670747370139698
0.660104949927721
0.646076679331364
0.635244535208809
0.628817274758673
0.622658136668161
0.627707428381632
0.625981681335645
0.628568272611371
0.628228408227616
0.606541945889212
0.606898112461724
0.611831949835069
0.603653875854295
0.608174999065665
0.601411395542996
0.594693867725714
0.593096998408477
0.585885019743462
0.576040477473108
0.578454424530884
0.567397480335759
0.570447825232913
0.553777031708086
0.549630274395644
0.549812147958955
0.553189226795657
0.550299324611906
0.541354542366071
0.540896257270015
0.536503695557138
0.535154974681428
0.529704631935591
0.526828657250629
0.531832913258135
0.527316028564773
0.520647331860813
0.520456273229651
0.519206502808512
0.506322660582671
0.510672428870932
0.507093548906084
0.502187719559593
0.493618113793173
0.49678008076583
0.493007549661384
0.489730609162426
0.491647291031679
0.487506339856426
0.487014699009241
0.478996145522758
0.474118017796915
0.482327954443707
0.477333890164216
0.48211844455654
0.471459404222504
0.469295896489898
0.470792499195601
0.464687052535191
0.464415460612775
0.457219497168627
0.459938885368858
0.470592721271058
0.458308094486123
0.458994651097197
0.44624945488247
0.444829448793628
0.44348442501775
0.447051298644112
0.445344015383484
0.445850878002977
0.443991944437223
0.446804375620542
0.442815361194926
0.442083406907119
0.438214086382557
0.437999973891207
0.431859565109008
0.438805390051357
0.429623685475059
0.434718888369019
0.42958386211199
0.432463101738
0.422368264095527
0.422853718251829
0.420854485765137
0.429347695806357
0.425805894362801
0.419079925868048
0.419061164338463
0.423793461556295
0.416516913130054
0.419841840464373
0.4130031958056
0.409958982281898
0.407498777801158
0.41098346603572
0.406606605348858
0.410296857233373
0.406028032883422
0.403744262408084
0.40539717760846
0.407911446597291
0.401207716424619
0.401438851794412
0.399983591068438
0.397764860108689
0.396889259406999
0.40176213696374
0.392497527556516
0.39830463332113
0.398472283573426
0.396154743478055
0.391744398584079
0.397042559941507
0.398292723804027
0.39134546305138
0.388553307106578
0.39679453781556
0.386384530353593
0.392100700324955
0.391903553395604
0.385185679814083
0.38496178647993
0.389229575346941
0.37718257184629
0.380440816382001
0.378723474228942
0.382820242211777
0.374078149253138
0.38266794986996
0.375560314972811
0.376379528715088
0.377014322209824
0.37225230748812
0.369424938360142
0.373524698450419
0.370328841496799
0.376245676320799
0.37689510542186
0.376189630944194
0.369398804100167
0.373729887909648
0.37292914530406
0.373217952384986
0.372099706183513
0.36958152633701
0.363025790058643
0.367276081916424
0.367846965976018
0.376268478916412
0.365185201700297
0.365030708004813
0.363894815409354
0.367033378527676
0.36672532584659
0.369915955010195
0.3649596852393
0.365792917557341
0.364712677419753
0.366714057177864
0.358084412174024
0.361135538043852
0.355299464461669
0.359742688336325
0.360148710272033
0.361019002894953
0.359056528439266
0.360162420470625
0.358207290262573
0.358509762765044
0.35185799731721
0.360387824576903
0.354819637087469
0.35487009300568
0.353550823911693
0.355052032427942
0.352743145805337
0.35809365219008
0.353434757119175
0.354196176204478
0.342332074902341
0.350938906389331
0.347787062796056
0.347255012590405
0.34312177961213
0.348379030243433
0.344769359958203
0.348719873950429
0.345653791994049
0.344414641363987
0.334384414234787
0.340360820053985
0.341158618469211
0.343196233881708
0.33471163551181
0.340993870728641
0.337574962101019
0.334073264676973
0.337822537048439
0.342464375142084
0.334659203216211
0.338498328865476
0.332775600463
0.33134170317969
0.332821376739603
0.334826164897725
0.327964718604525
0.32967020771428
0.329785333023214
0.335701087323555
0.328707469114625
0.32995016948611
0.328483235993167
0.331763104413535
0.324274924871408
0.328084370247621
0.32009333421287
0.319028476044696
0.316478578988786
0.32249389348284
0.313083398532425
0.31897189945006
0.311961636630133
0.317493409337537
0.315277240486067
0.315806812982794
0.311249325515482
0.31914252342245
0.306779279839984
0.306971132167796
0.314169157005598
0.309225438602029
0.306712532585691
0.314739137773591
0.306931291067477
0.306378553127264
0.302032426628902
0.304839664892281
0.298952845689693
0.302396350146271
0.30226665781858
0.301820669333002
0.29515575956809
0.298510697091805
0.291014358330191
0.29755929712639
0.293937454079894
0.294106354002857
0.289060795886119
0.28985206779677
0.289970890452947
0.292490306176037
0.281142908471551
0.286573915722695
0.281979313666049
0.286721501302545
0.28340390186482
0.289151965536511
0.278768643001453
0.286199535386873
0.281525638204779
0.284754947093984
0.278247592807727
0.285147858071251
0.276807964414657
0.277771495735477
0.279975974078409
0.2770932197014
0.27295813374415
0.274826664817703
0.275319970216153
0.27618468618614
0.272621079833417
0.275914417093222
0.271573172770509
0.271933171084079
0.272485945289887
0.272524087799138
0.267587007241886
0.268636209139738
0.266723726619283
0.271133088714408
0.265771093291289
0.266275516762347
0.259562894407295
0.265267495907203
0.261347695853908
0.265729911749836
0.26349529140887
0.265383837270213
0.261951019385382
0.260556449338005
0.256984452823121
0.259851981957182
0.2545117652628
0.257240291701657
0.253627158909919
0.259125372750058
0.255134737126186
0.257338585755563
0.254684136112783
0.257055992495369
0.252655902336786
0.254675490913647
0.252196242566654
0.25706864841973
0.247834738435396
0.250376256519645
0.250270971686695
0.250765453789284
0.249750953123184
0.252996810485919
0.242769337034636
0.250840943397245
0.244692453879243
0.24933376205819
0.246784081630832
0.248331966286589
0.243668914339694
0.245035203628854
0.244763895064543
0.248571029737712
0.243265724063033
0.243971346698387
0.241590879533307
0.245913002430478
0.242826056496707
0.243554766823003
0.238945335380567
0.242132174321714
0.24054176476587
0.240952730449647
0.238359093785035
0.24491893186467
0.235761104209971
0.239941450803788
0.235612371638697
0.239372950982337
0.239148348270762
0.239229701822053
0.235453881484122
0.240095140872121
0.238465476157776
0.237819169358634
0.232199507848988
0.239955680667953
0.23218661281741
0.237031197730837
0.234423964690208
0.233645886286908
0.231396780934967
0.235091967356401
0.231020060497675
0.231939384008502
0.231220892236783
0.233557477209001
0.226177442709966
0.230769700655294
0.231666452879691
0.233706127822433
0.226124829628034
0.232318813107007
0.228491566940916
0.230267605331426
0.225434835165058
0.230136545529871
0.227315416283135
0.230735633162429
0.225892515852198
0.228511095795541
0.224904198132724
0.228217873021539
0.220273588206529
0.222985478029238
0.221094679228656
0.222893920445413
0.218984332321649
0.222795615527679
0.221288061376466
0.220902460637884
0.218864662285505
0.224996051032961
0.217798721224328
0.215875720682901
0.218770477557312
0.224939712730759
0.21887708818903
0.218040703141317
0.215504081507122
0.22170672999323
0.217355495893971
0.219527656578582
0.214031899203904
0.219581853471194
0.219080416468096
0.222829594135736
0.213841811402005
0.217037532898227
0.212747239824486
0.212167326753113
0.217660349910034
0.216966173527213
0.211966548955221
0.217678075718222
0.206166553801379
0.210332719170877
0.212803283379646
0.21185369150762
0.207820336297048
0.213186253909119
0.208968884107095
0.209527117840813
0.206335364393492
0.210340070463671
0.207447807545004
0.211425558755683
0.206240510070027
0.209933944739986
0.204041915804587
0.207770648541688
0.202986994239416
0.203341152475101
0.203000741873364
0.205399020082627
0.203504269012002
0.201339218817256
0.19855673862124
0.203354363304437
0.198295018309824
0.202323207986402
0.19604466109819
0.20014203742536
0.196141263387048
0.195919034011544
0.192356288110373
0.19670740321385
0.189542571248039
0.192290651255123
0.192136077022973
0.199343853022746
0.190268459760716
0.19299216558888
0.18720607949257
0.18892372887026
0.188815535811671
0.191959704940895
0.18740728763518
0.188406750869519
0.188895114132626
0.192679185372513
0.183791031223323
0.187962191880363
0.187332416369401
0.190857122822052
0.188433065134409
0.18586953729331
0.181241259471241
0.185141465352154
0.181978832470702
0.18716803081018
0.182979001202364
0.182932500714926
0.182114247853034
0.184550305137191
0.17636319833447
0.18232872200186
0.17904175815268
0.184193608168499
0.177502816839264
0.184296207057122
0.177955754583093
0.178405884190122
0.175779575924595
0.175219300672565
0.173152127859309
0.177774341793506
0.172449232443558
0.174852262815332
0.172118737776869
0.175989638846569
0.170813149350578
0.174147076952168
0.167280990964337
0.175558855784731
0.167802842363508
0.175347270552683
0.164514512515262
0.170549452598036
0.16757451029646
0.16924512596398
0.168108348321646
0.169768919767885
0.163164009018063
0.168613163725438
0.163036696498295
0.16499293130266
0.161347776875765
0.165419638892253
0.161677545972036
0.164709401126962
0.162582488554987
0.165388469272288
0.161548465298999
0.164738698249228
0.163958073380221
0.162189857359814
0.160764349206503
0.161834562313279
0.156930867715123
0.16102371902518
0.156314169327225
0.162847560928871
0.157103198486651
0.159037132114855
0.158150394331848
0.161626851520527
0.157258432725059
0.161779791788873
0.155531304280299
0.158234462297941
0.156443202135351
0.16138540098363
0.154816174474933
0.158427059027399
0.157252543647787
0.160964587477655
0.156403481579393
0.158613066907322
0.156159523964799
0.158447677050891
0.151332285802037
0.157274972767991
0.1559631600214
0.162354830000344
0.152546279928926
0.157263171249141
0.155479089830034
0.1608311328422
0.152113210406361
0.157114936606872
0.148599225008367
0.153726996819775
0.151809907198061
0.153193706191048
0.144620118633768
0.155256391928572
0.150915043432251
0.145786460074226
0.146603902043567
0.155096786623088
0.14804856337341
0.15492500248604
0.141319088227037
0.15263073625836
0.137282455613968
0.152049098683468
0.147083246342781
0.149753601424689
0.148684467707704
0.155665215675698
0.140387593957572
0.145869077625165
0.146742574373256
0.147202674035853
0.143688971317536
0.15046957204346
0.139546532432421
0.147440149586606
0.142474303515906
0.143323041403059
0.139076682979453
0.143613004301904
0.140560834520483
0.148356118857307
0.142496248669067
0.150056725496683
0.142474711678573
0.144752535438555
0.141110903424288
0.143765252999736
0.149475394362973
0.147908056024343
0.146892440668603
0.137417944314587
0.14794243519729
0.142835826936583
0.152306366809869
0.140156221061163
0.148402319193187
0.142182634546821
0.151128843363959
0.138167593574937
0.144936686865771
0.14457459890494
0.145430229622452
0.140664720260924
0.146268579465301
0.140399833053021
0.140796671550109
0.146405224207016
0.139466461330027
0.149253196095925
0.14058501324124
0.146881295669779
0.13446336237615
0.144878423539119
0.140448589580237
0.144725519777616
0.139093195424653
0.14389059223475
0.135970494194819
0.140218478239308
0.137499669004679
0.140698922301922
0.137472910618495
0.143285813302751
0.135803776686631
0.139494076069008
0.134896427992875
0.139746205023561
0.135362120861668
0.139349426017157
0.134180198542947
0.138393391362491
0.136667710443974
0.139344399870589
0.132573706576474
0.140184217809455
0.135449129762732
0.138709421100887
0.136060134643358
0.13726591171723
0.138026177151896
0.139470270337662
0.136178263820316
0.141362353288263
0.133180718082046
0.138025219553573
0.133183868336953
0.138241940887259
0.13434234272004
0.13980279830108
0.135302070050881
0.139896158293139
0.135413652445578
0.139315240624335
0.134191402847561
0.137634462382561
0.133277544072854
0.137582004646149
0.134229864601888
0.137506663922929
0.136238194421975
0.139971515997661
0.139478531933517
0.138829741060571
0.13374143421762
0.139089527987455
0.13495572812869
0.138822448070598
0.134955060697798
0.139668133425015
0.133637490739532
0.139756439828417
0.135615974564701
0.137934762979617
0.136538628765048
0.138689400711684
0.135714863381263
0.140444293643118
0.136322824223373
0.139377898634572
0.133572989073933
0.138324306491281
0.134439887437847
0.137283851613063
0.132164591651212
0.140414572689503
0.13552659774092
0.139124934868856
0.135657807501981
0.139903506091252
0.134306207951041
0.140268568283164
0.137262449763975
0.140110635647632
0.136943392256008
0.14219986521288
0.13565622338328
0.138802594555104
0.138351439178429
0.142110687425108
0.13543066269174
0.142803294339845
0.135655389744619
0.139424856517104
0.135495571579761
0.14043084691881
0.137878617608805
0.140159087890215
0.137715920155772
0.142414395926283
0.13697038387409
0.142810837209009
0.136363647201054
0.141119987033304
0.135354510822345
0.143199306213661
0.138456006047885
0.142115763077281
0.139777199688805
0.145322528551346
0.139965947579062
0.14273386489482
0.138364849644738
0.145207442314861
0.137484274582729
0.14125016162681
0.137638957769772
0.144506250446318
0.140823691959961
0.142733782245263
0.141262849269697
0.143605800675697
0.139080703439186
0.144112628105384
0.139791127930148
0.144770037223752
0.138478163063526
0.143888049412147
0.140686033674598
0.14444482583369
0.140904891306431
0.143962068263651
0.14304939736027
0.14548044174574
0.141407342587423
0.145446787630979
0.140764442935704
0.143855181797919
0.141705552863361
0.145066681365093
0.142646299081643
0.145306641962067
0.142862251091037
0.143300849258465
0.141298048967643
0.145386243552053
0.141265106435234
0.144552287557278
0.143037487881662
0.149363741411378
0.141948318903851
0.147743547910263
0.141508548629575
0.147836863327127
0.147037803725949
0.149653035712992
0.144342290227396
0.146618144140261
0.141601877576318
0.149019243019545
0.142473475690859
0.147650900264943
0.1443918990093
0.148645990334284
0.144790745834346
0.151629444351886
0.145785921780011
0.149017501620599
0.144107801124064
0.148431124418024
0.144824904673953
0.148144787173854
0.144835431120668
0.149720745440771
0.143940813404219
0.147469708385112
0.145323194379701
0.151051266042808
0.145647560229628
0.146241444084212
0.145487662281614
0.147555435269826
0.146113252554659
0.148060791587274
0.145331657051907
0.145712604374133
0.142042833531144
0.149365436920795
0.143669423998563
0.144918609120288
0.142370473758868
0.145060546537831
0.138691792072013
0.145714825076421
0.139966966219101
0.146020681212238
0.140373556791115
0.144690667038314
0.138604272055468
0.14518912270277
0.138178309781669
0.144140644834386
0.142376439559732
0.144509917981224
0.137762302012637
0.144057868730583
0.136722696182433
0.142690099092004
0.139001376396871
0.145291687422914
0.138728014600268
0.142599713144188
0.137526791801127
0.142829810736633
0.136476106937079
0.141138104711474
0.136870768937037
0.140226974604374
0.139646214764666
0.142937893683925
0.138020959210216
0.141553558230554
0.134396901373446
0.138018293281825
0.136148631248017
0.140989946366205
0.137333153435865
0.142391399992956
0.137092682897562
0.140265951761721
0.135019272067608
0.13953890023271
0.13450480970782
0.139535320264534
0.135111011777691
0.140591173437378
0.135977555377665
0.139766900126847
0.135566385641412
0.138182111715036
0.132508904502788
0.138021258718641
0.134624850159602
0.135263079778679
0.132986876114402
0.138919704376685
0.133445964407842
0.13869434787995
0.13381403987787
0.138444425199699
0.133528517405578
0.134345898166883
0.132531247495437
0.139131595563617
0.135108218310862
0.136788504694178
0.132163151588118
0.138331058212399
0.132144914142004
0.137277102632492
0.131873739524113
0.137254925092559
0.133909239917154
0.135967437721174
0.133165970676976
0.138603443128721
0.13056236529793
0.136189685431042
0.132331046720578
0.136253872151652
0.131411092685895
0.13611824849302
0.13238769524812
0.13579169967336
0.132301807430597
0.135376963475631
0.132862497735094
0.132138009045356
0.127228875189244
0.131250909423936
0.128124976439636
0.13254928912284
0.125966433829154
0.134084834799856
0.127144876235562
0.135057888945002
0.126286352341808
0.131823573302821
0.129580058517577
0.129730829743206
0.128065737739019
0.131074318158484
0.123906523763076
0.128488776931274
0.126545554421689
0.130492005409868
0.125621684179184
0.128806628892766
0.124151648049671
0.128183513814788
0.123939706913385
0.12474237259357
0.124658789729264
0.124149278653924
0.123484203387951
0.125980870668811
0.12164277319216
0.126270539778562
0.121360078983652
0.12236785427616
0.119232808303259
0.120330704085848
0.119404213080031
0.123002799362175
0.122390942909083
0.121557250000457
0.117665365011269
0.123375882780473
0.118481740244721
0.121686771615135
0.115693384150302
0.120281501724725
0.116328135075263
0.120024215571344
0.114311534243083
0.119749205083852
0.114468652517908
0.116009102921195
0.115889947035622
0.117976634465343
0.111672217832975
0.116291062492647
0.110152534861394
0.115786211442006
0.111022262517309
0.11656537432009
0.112199122683482
0.112822193264839
0.113558260972752
0.112580472648144
0.1118221178121
0.120663123729491
0.110807239489983
0.113558548440585
0.109702290558461
0.115731324764259
0.109942360712736
0.114536317692192
0.107776894292604
0.111136435687568
0.106690955453406
0.112136220897891
0.109557335187104
0.110346504692871
0.10569590229519
0.111498443930568
0.108786238491363
0.111794200129117
0.106009723119582
0.111764016919594
0.105726774658042
0.107231002469521
0.103880703091851
0.110500810869008
0.103355056588512
0.1057527560294
0.107487969117067
0.11475806167714
0.108251317574394
0.108103336023762
0.103809794424882
0.106045847245045
0.101579810018917
0.106638914496158
0.10441753897906
0.107164682547434
0.106114373336462
0.105461555274737
0.10161075382024
0.106987882677224
0.102180127980767
0.104960081217243
0.0993809814366666
0.106256667416814
0.103384039161725
0.103341841129956
0.100440846300323
0.106293123788062
0.0947710918706467
0.102994063069237
0.0991753357117807
0.105749458480747
0.0982105208844524
0.103816290828143
0.11369511685587
0.10472875444142
0.0994695112119916
0.101940325380264
0.0986608763087753
0.10280536626884
0.0995271662712951
0.0983888822982207
0.0987721911993801
0.100915187323235
0.0992193836334349
0.100751674300792
0.098751494955809
0.10347441669667
0.0983905049282998
0.0977250657578143
0.0940716569599435
0.101369456026307
0.0946301881482532
0.0993085833098099
0.100412307159104
0.11101839264744
0.100276123131575
0.0987536722027004
0.101277061318822
0.0951907781916038
0.108353392265716
0.105759819698516
0.0956736933368001
0.100606207344833
0.0973152840213506
0.100948995965416
0.0953434388324042
0.100616186435947
0.0952332204459126
0.102925781912577
0.094468787222512
0.104540991047507
0.0948982957843869
0.0974705747997491
0.0954485278745566
0.0998296113308886
0.0927149455421023
0.101117643991769
0.0922825993474441
0.0968425317011403
0.0942399930972559
0.096632646800765
0.095151074825196
0.0988098555985767
0.0940754526087234
0.103207569102478
0.096067424917528
0.0964748498811369
0.0951254391691391
0.0949225158228172
0.0942097003364037
0.112804367167182
0.0934584935823462
0.0998255978813133
0.0908372248926585
0.0986251983580378
0.0935185135132511
0.0986073756267459
0.092975080767573
0.0977710892736126
0.0936891681918894
0.0979897576327863
0.0925476355432733
0.0985456346575917
0.0912425214860281
0.0962077723125339
0.0902494690595829
0.0945623488155488
0.0946504937323408
0.0989253487441599
0.0966968066028907
0.0958365609580136
0.0981769261774499
0.117020906318504
0.0975095068386838
0.10692698059513
0.092973077359446
0.0988234321992342
0.0920465327909924
0.099171075203973
0.0884956785788588
0.10085396947599
0.09130614154114
0.0981143661802362
0.0909135483505043
0.0962081498033316
0.0883133345216832
0.0991456037811499
0.0874602318573083
0.0947947012886064
0.0873455394102385
0.0973114097866521
0.0878610885190513
0.100600815974529
0.0866096219780504
0.103228068953296
0.0948781026895697
0.102106903817074
0.0883567319441247
0.121147226470559
0.117366750265526
0.0954390877641607
0.100652176967135
0.0959633718348335
0.095866404754672
0.0965861343306477
0.0962771051003596
0.10028330948688
0.0951721003500917
0.097204174626473
0.093902988370204
0.0994290320985983
0.0966526749853379
0.0947520429315796
0.093089496464933
0.120547234103779
0.101825018098691
0.099636169885341
0.0933651840718522
0.0952340489063865
0.11232311247706
0.101504785377964
0.101811371477828
0.102388369262003
0.0941628612450993
0.100094109595656
0.0980023473879519
0.0988014507945566
0.096373761586085
0.104436181362544
0.0942757010170624
0.100584762769801
0.0929125530542919
0.101957399007739
0.0983237319858278
0.109580936377251
0.109190060865501
0.0988511694268083
0.0992944826663843
0.103849201818289
0.0971071072788929
0.103214195474468
0.0970857512247995
0.100327710588882
0.107824245114175
0.116476868547641
0.100517609274102
0.114893562927717
0.10773291815109
0.0996492777235443
0.104970901774075
0.111594540809777
0.107293728650117
0.104366260027836
0.0980711808274563
0.140656563236333
0.102677552671287
0.126146683086074
0.0974150704404687
0.111759628694826
0.10154222103419
0.111675714689373
0.0949313583076828
0.120381893839352
0.107535897101203
0.109400448536935
0.101910945333829
0.116583670216954
0.114731366811289
0.110598412314125
0.11222841898861
0.110288675380425
0.1081539157211
0.115518692186643
0.11920636409826
0.101575077364217
0.127430236988132
0.138392023452216
0.122107708445654
0.125009733420538
0.101516748760518
0.150223382110414
0.111738345392147
0.117199771824007
0.110826333324799
0.115608540780298
0.115260760467606
0.111762714424929
0.136751291798006
0.126823982801975
0.110854678322771
0.128277989027288
0.109210858658347
0.143156703320454
0.126540468481964
0.122531345350552
0.118418370433278
0.128988297028882
0.110201013645861
0.159760385221016
0.143935928587569
0.129910679060868
0.153756197939257
0.138131932352362
0.142722984867845
0.138020641685317
0.136160367770853
0.139697869915181
0.149849007336279
0.142564485051144
0.134447727038924
0.145360979541903
0.171343152074759
0.13980728279281
0.151310852245899
0.146006351766218
0.136929025719388
0.17161850635895
0.196281844322762
0.176620028916559
0.157920598202729
0.156058673228515
0.182278348077086
0.162822046623409
0.160460835784943
0.161561332969388
0.157709299699801
0.162426733205931
0.164278352949508
0.178577050751272
0.165764904552029
0.169544527795141
0.174019952984992
0.166121733117013
0.190071323733594
0.21139831609673
0.221704174820726
0.184298645270126
0.226877953536756
0.20949973717536
0.195116063085408
0.194923421703621
0.187142962636818
0.207139578651018
0.196268053039699
0.202330816104686
0.195905053679972
0.224222072114666
0.225574884526585
0.20437996201712
0.244643989927654
0.211553349045423
0.230608898580584
0.205358967248071
0.386323799210574
0.264584407048915
0.248125031893497
0.260056701971126
0.229950607310685
0.355973703757355
0.278869309002901
0.277945930848968
0.28269629913433
0.289423387855718
0.295211530153905
0.31432178241555
0.313024853478861
0.336669194004701
0.335930756453489
0.332979614169662
0.329305747847419
0.425676031831523
0.392119215572475
0.409308467125858
0.377382109552509
0.411157832538464
0.407744217808962
0.412401954170097
0.416044888942504
0.433875716810681
0.409990540941835
0.520864098571418
0.460428413090471
0.481177619229933
0.460472513823703
0.538046415342899
0.484145931622865
0.529184258152036
0.559237295894838
0.520632149384253
0.535616026653185
0.536262585079968
0.565892849445772
0.550716907972633
0.600994176799969
0.61082283415128
0.586815132005929
0.61300753556046
0.606782066412096
0.62994913295333
0.613728212618736
0.637790952455638
0.629447003711096
0.67612533498306
0.666971218389469
0.889361105961053
0.696793662942704
0.650532073919853
0.675681930180074
0.64847383589275
0.70399994517314
0.700304876535904
0.696413081360151
0.712602353907071
0.679237522518393
0.692437839595563
0.679997261216708
0.695393585288459
0.673404728190617
0.697908524773281
0.675572148847825
0.716936975897452
0.696957796245471
0.658633971892613
0.798032335418847
0.6822837699793
0.690171126995328
0.67441593909111
0.671402062750133
0.691657811752878
0.692159725361055
0.674446147146043
0.718883391502393
0.666095231116886
0.674242885518777
0.654295117360657
0.68456031616515
0.687191006136842
0.641585610444111
0.64418048094288
0.626380871936138
0.636876504991797
0.630251834180958
0.593884133748977
0.70480008107834
0.614300111851465
0.599653391164563
0.613219238234211
0.599353185396497
0.591603420549242
0.583332888924868
0.583548002679636
0.592885182119161
0.580992349833087
0.583047505379338
0.575124390801374
0.572444612410956
0.571709026795542
0.561268857732306
0.582359487078628
0.568417712245784
0.57432994467314
0.569627781034397
0.575925037698494
0.564829029722794
0.561219842689399
0.573254635217243
0.564267539286126
0.571148673233838
0.56296274851946
0.574831131318709
0.575817730365651
0.566202317701214
0.573954448474577
0.564713177102609
0.571592864218371
0.558987997965081
0.574519579562006
0.563211769280258
0.570462414399903
0.560192526887612
0.561058034665682
0.551887487375319
0.563524309710364
0.547942104915336
0.57251837220908
0.54661036918891
0.614533161093619
0.599427945285139
0.544975001965664
0.558152376916977
0.536152584530427
0.547885653231327
0.530236296401651
0.579157921087163
0.576453205901234
0.532761314160307
0.535253481219506
0.529823082767776
0.538997086527387
0.544793171847835
0.507705566893488
0.533240486875076
0.505131338728593
0.533807229726248
0.621731040810867
0.531414175119399
0.627155744805027
0.523262501669672
0.520782512678873
0.498070717392302
0.56926472898236
0.499238578187963
0.509835582576954
0.492393088203665
0.525482577320497
0.517481511373962
0.486603926061032
0.484900597145039
0.479857877323054
0.476046580989831
0.511545542664841
0.478972912135478
0.474013294984637
0.533020824571079
0.482144961559012
0.492500136741947
0.530765323234826
0.487755948103644
0.454167967626837
0.452077211500223
0.4540341908584
0.436733095534611
0.505479463741943
0.446507249015124
0.456588336116451
0.443458872244989
0.414359334700236
0.432105304932439
0.42944126714358
0.4430301444097
0.403969285871756
0.45447135189229
0.403549645997708
0.413692736049076
0.426704967799559
0.421780806060112
0.465619705857771
0.406494858799739
0.396144091090817
0.403957651943762
0.448376290662208
0.387098503746279
0.410324332978005
0.38668328218909
0.376064911728681
0.401202627696823
0.383072845490514
0.372086537502618
0.390873093698647
0.367440873793077
0.424428852212154
0.415337825803269
0.409832743112883
0.374406520049855
0.348181108339117
0.353502059536979
0.353706207867128
0.351990346456226
0.346934724055717
0.353394955068699
0.378779952419079
0.324148572266525
0.409147011830528
0.358360630918538
0.354897649153061
0.358160927558216
0.354608456643288
0.360837204367304
0.386516293429322
0.393184794337744
0.393049124717184
0.362580456018072
0.406893490788079
0.365367171862831
0.38845397740967
0.374993232693216
0.398421669981711
0.38732014254546
0.411676682268351
0.401877613413996
0.417354496238778
0.414235250146391
0.436079983891383
0.426566112837295
0.495601101506176
0.43343409989683
0.483696551857578
0.484232186079405
0.512665869724075
0.504467007446644
0.486235862822586
0.505707809363497
0.503597011357075
0.518666016541897
0.524877871381888
0.513552866879209
0.574470221433911
0.537000629188296
0.556479038519434
0.546919137276763
0.563815968436678
0.561369650705301
0.592813622953754
0.584944624069962
0.597459175766377
0.655041437260774
0.588999911514056
0.599048940096948
0.584968400172506
0.597371063612218
0.608067480175544
0.591929655205332
0.610620923380317
0.593407677836157
0.643170655869669
0.609960785240364
0.610803551455406
0.626722692149667
0.618670351572626
0.618341951887795
0.633918899144279
0.630463678014426
0.636229755274681
0.627074350288272
0.658384524500763
0.620291615800969
0.726486369644221
0.671071467612064
0.642129246065932
0.669369853843493
0.664241487137451
0.685867313367452
0.670604026443524
0.694657487973639
0.694194273824813
0.685424910454808
0.70397455959983
0.705278032092031
0.715893387102596
0.710150289766357
0.737961631851
0.718968110440179
0.73574718763178
0.728021166854181
0.707934407850418
0.813085102664628
0.74210055308889
0.766119578888172
0.748611135101712
0.751734146683439
0.743090807189886
0.759145224181235
0.762454454827144
0.768347974352041
0.764025175808809
0.75743928766374
0.764686867257969
0.761875173792871
0.765101818824775
0.755166555854566
0.779026670348173
0.765671081594341
0.753981464676845
0.751922510950729
0.751016050513529
0.754430779640746
0.784075974535196
0.787002645077068
0.758138665012547
0.7713940374752
0.753763154125733
0.774738214388094
0.776441237115178
0.75116067039439
0.760894263352725
0.760459935270056
0.753217677452849
0.76951702014204
0.751468275483086
0.798932520124907
0.775577098574871
0.785745456866054
0.772565689539538
0.774792933055561
0.772744642781291
0.782598196383208
0.785912871647613
0.795214315842819
0.796811577933935
0.791697592695877
0.797615885254681
0.798923123392703
0.805964738228751
0.811624510988535
0.804894093020576
0.79684669472653
0.794021015283237
0.789544802159905
0.782626082351693
0.809344922563889
0.785260377343586
0.776743653166966
0.771682984612019
0.773958530299556
0.75270573693189
0.784877565014736
0.756886263644814
0.746329471401543
0.750736781311292
0.727551875867856
0.745032981135239
0.726157272328301
0.721661296981706
0.725749096471001
0.727129952457784
0.716074040776177
0.716543667944526
0.710961777674287
0.712155684834981
0.708419206717371
0.705181805490799
0.699480426631978
0.698394713412137
0.703417659662303
0.695967289249113
0.697509242953931
0.692612363200404
0.69703017612811
0.696456714298578
0.700592220663544
0.70242821414839
0.711309407790591
0.707242566069213
0.68612690976514
0.70091196007314
0.682789353890785
0.700816104856221
0.69029147928185
0.694883088081842
0.681392684174531
0.697381608093159
0.690379809503673
0.696240011839099
0.687327242753834
0.687595575779745
0.684860932314477
0.690342320271074
0.679976983893721
0.686587581044634
0.684885195886996
0.68542359933202
0.680541283543486
0.681903891955761
0.687774691792382
0.678078101120299
0.690152453701726
0.683240550117015
0.690727287787684
0.693678777497802
0.69487612082551
0.693508127315046
0.686161044056582
0.686493380303458
0.6854969932316
0.686488248794647
0.682026823489232
0.684565481984943
0.679253751327103
0.679084283208921
0.679315466841233
0.672843166939621
0.672978539482798
0.6699956941128
0.663435644153936
0.660094580446149
0.652555579811511
0.649782240818169
0.638041268442338
0.637618096508415
0.633181929460957
0.626597796453277
0.626626219609564
0.615687487939687
0.61617052243195
0.61441908727191
0.610587705860558
0.613533537287333
0.607951593181326
0.603704120778618
0.609293104439769
0.604298062975728
0.607554634757114
0.604883813116348
0.597223067280618
0.599839339805897
0.59855063699913
0.598668510387183
0.600245240229219
0.604352622169606
0.60178560810557
0.60654054782628
0.60398669921125
0.608730133859435
0.609859500124393
0.613681000663102
0.614981526912018
0.617764234355298
0.61958761182789
0.622306937115484
0.619566260656193
0.622407085139289
0.625307380256052
0.627219227195302
0.629792682068081
0.630500647377739
0.630976364805801
0.636497563286633
0.639053896023973
0.630924167202359
0.631589630749933
0.637163148555715
0.634863382874613
0.638868676324617
0.638827882794872
0.632948538893882
0.626307994610534
0.626349411693488
0.623002981785189
0.62457097504735
0.626058016083372
0.624054678553082
0.620085771312992
0.615459723711468
0.611373640007672
0.615187841013472
0.616057483311975
0.609634723185779
0.606772325868349
0.605389367350198
0.603119616308307
0.599714762885022
0.600943528063025
0.599630113673845
0.596975217724463
0.594120500502802
0.596480679693937
0.587989292892014
0.586480795455372
0.587898326707796
0.58354114129041
0.583788025912844
0.580216871545945
0.579465405154677
0.580325169466156
0.574989412690311
0.574878152089035
0.571508018353656
0.570418298575133
0.569475326100418
0.565233111963494
0.561469743483497
0.558098030628189
0.556084351587888
0.551213095196882
0.544339671079952
0.54385997886199
0.539464152584606
0.53409779025306
0.531095545612629
0.527887178068208
0.523229310963901
0.519182093040753
0.514380672469266
0.51346931016833
0.511767632118448
0.514279554203463
0.514314589232749
0.507483060509554
0.506786049722433
0.505392497534595
0.501237638393429
0.501237998504464
0.497463244124677
0.493754920656563
0.493684117600829
0.489600299142959
0.482195489506389
0.477830675507573
0.470312404706994
0.464436335614696
0.459712911929784
0.453913339662653
0.449718681034345
0.44476317435176
0.443939967843782
0.441958347023846
0.442090201607693
0.446403178665839
0.445902326016996
0.450987929316218
0.462965521643368
0.470735663769587
0.481069338563655
0.492789445155591
0.507037787828064
0.524712067818972
0.543384734179634
0.560181869564869
0.584066692847681
0.594434134473986
0.622143927738242
0.644678015407431
0.659569088714966
0.67875112845632
0.694693188382927
0.712865873453333
0.732844056477404
0.76033707037566
0.772981847800774
0.790745997995331
0.810764931584954
0.827263859138128
0.846409933721542
0.864568777184761
0.872813660148774
0.889172394807862
0.89370492295629
0.905226386170463
0.922751206142672
0.92782106203811
0.933220440719469
0.946898175263246
0.958204209063274
0.954172671273521
0.954120867640416
0.959787930956471
0.959394451483263
0.96380415962908
0.961401835507635
0.971466754142236
0.965913087861525
0.960438851467365
0.967564361403349
0.971583421060024
0.971561164227633
0.974942107458731
0.980233011660533
0.990549135306069
0.984217392137024
0.986781009697475
1.00166311591323
0.998736205093963
1.00942217141241
1.02440113175099
1.02708152979173
1.03351063403189
1.04643953815971
1.05298143859551
1.07232364661107
1.08345754695343
1.08630522056605
1.10373061470239
1.12494370292112
1.13720195021346
1.15912410861733
1.17676880125145
1.17986974303431
1.19016684404569
1.19939047795173
1.21016421014139
1.20245077977881
1.22067774491199
1.2119823900445
1.2185640270952
1.22086226710177
1.2270539823163
1.19894715513444
1.20087015914645
1.20467542994713
1.19213147719495
1.2006070054472
1.21850599262115
1.1927242936538
1.20654077933422
1.21092748138173
1.23458245628953
1.24748146748269
1.26472492582195
1.2680806442178
1.28166773097471
1.31578402527397
1.33077341256169
1.33370899601126
1.36320766907643
1.38368884091761
1.3976011477801
1.4078075889675
1.4328394541651
1.43157069111647
1.44834109382919
1.49713168670923
1.51123705413529
1.50032187946089
1.54857119149028
1.60338337002125
1.63377984370855
1.63211229898796
1.66604303503969
1.66664450374094
1.73689943583711
1.73316883310322
1.73670553854237
1.81133741583084
1.83874229263741
1.81723485331237
1.89194808628899
1.84662261551968
1.88987092575025
1.94306641446959
1.95470167062128
1.98011514362057
2.0447509237649
2.01133153390291
1.92264063089584
1.81512698256088
1.89984450878517
1.99013739702547
2.07047404795695
2.10054551852645
2.00661023051605
1.9231460152625
1.91185731178833
1.86658743179142
1.84239383600229
1.91310452583286
1.97893104411594
1.85738537608074
1.91095416678261
1.87225926698504
2.06744638690397
2.22896152340222
1.99061759150219
1.95365404602507
2.05631077764602
2.07429928501033
2.19302185562209
2.10890682627582
2.10013610319091
2.08638208822158
2.12510549243916
1.9944666538842
2.14691243637556
2.30611766290524
2.48906754903361
2.428470751577
2.31327457785438
2.27560826186977
2.25011483619873
2.16616306182506
2.05802606055626
2.07022577960158
2.1697571652712
2.34828451767032
2.35717915387796
2.34684061464771
2.19994850897935
2.07878968026735
2.29470741008031
2.32707938155451
2.24760055650732
2.51675016326021
5
2.2404554272169
2.26052092032525
2.26115770536975
1.99243821329159
2.13462271393422
2.149731694117
2.22137855725679
2.35261999871812
2.3570310500686
2.43830078661176
2.35483078440642
2.52214360061692
2.1985514559559
2.22765178731896
2.24602632898388
2.08278466305544
2.00988805621126
2.02597793684862
1.92373370423419
1.8306705304824
1.80715362044684
1.75794912573344
1.77989876035299
1.88216440133923
1.78663373802506
1.79902537120543
1.71006537672687
1.76393239394555
1.71796573962659
1.79357528049634
1.77083714670617
1.62986759640692
1.65472850587083
1.70326269930112
1.6727486349199
1.63433483822233
1.62521076331394
1.64037251826711
1.62223490057117
1.55986362303993
1.50929494825635
1.53901643856192
1.48254556228464
1.47530987586262
1.42703335059243
1.36092166939457
1.33606754268478
1.28821232382597
1.24810020120681
1.23251334828319
1.15465415484436
1.10965939187178
1.09341914599327
1.03334626703111
0.997108833513823
0.980365097742781
0.936056828438062
0.905623481341066
0.863104454627104
0.838719594186388
0.834125591365681
0.804513371696491
0.773176391576703
0.761331489420486
0.737186750719622
0.715965979826484
0.71462409317754
0.706918223838936
0.694588566236298
0.690262543687109
0.686912385188872
0.692164509896166
0.684224179663832
0.679849661943577
0.679494329808258
0.682754868199173
0.676020644215757
0.680044432505256
0.689716270806026
0.692200300860786
0.682859874267313
0.67526474558228
0.680387191414775
0.675253786711778
0.669721489684659
0.665058970516405
0.657286266735826
0.652433190186831
0.643247261683929
0.646404148191007
0.639770281465336
0.647432883144106
0.633613130577487
0.631158642241425
0.632676294511351
0.625827110532191
0.634981054491847
0.643622518533897
0.636764728983967
0.639656851978986
0.634194641047457
0.628608976862649
0.63949590948408
0.642758678491188
0.6423529129663
0.654697581705531
0.653117936637048
0.65911692540196
0.666320996628428
0.667238697375203
0.666319076789307
0.676634681948392
0.673323587597915
0.677113388953333
0.682863234478581
0.671350157393237
0.672749762856395
0.674977039480098
0.673579076910471
0.67343608500506
0.668980299913728
0.681876235775375
0.689095114351217
0.692433352151574
0.691382719231215
0.698681922866244
0.710209607120746
0.723934750696189
0.750387488987361
0.751591704322175
0.762678229412142
0.791700389497665
0.819615892059734
0.839531901370483
0.845425344279035
0.862236043472931
0.858179802378401
0.85508322714994
0.847849110437268
0.865699362738217
0.887793619671053
0.856153007605942
0.852488932292085
0.849547116032304
0.837404959826492
0.829186037618308
0.797888665745651
0.802360174008139
0.828641851034108
0.800014282653918
0.794082635688435
0.813441307903398
0.797606051914638
0.790289474066741
0.812300414867653
0.80822075364676
0.787100782865903
0.804965550184065
0.824555534894445
0.803078080404521
0.783137221649256
0.778298978452742
0.766592725129433
0.781584365916136
0.774898407525477
0.770284355639254
0.747214880764815
0.740856437496179
0.743305301097034
0.724932784049188
0.74662202249118
0.736969757058679
0.712163450710599
0.726612806535807
0.735171580676639
0.724643859361091
0.726868281182342
0.715516074786007
0.716902311811946
0.725404254894163
0.716864380716858
0.693543575346095
0.703719340088193
0.706843032751718
0.706034040469363
0.713529368081963
0.709244608750332
0.709609660015021
0.695108962804288
0.686936358563267
0.682517919820929
0.679659282402158
0.689197958228527
0.692525491541493
0.690885935676509
0.668800917496819
0.683321807424338
0.671001608758044
0.67517649887056
0.674043918041007
0.666562920867171
0.648929969698026
0.648308665950138
0.664579842540639
0.66706756299778
0.664377728504289
0.658580970985041
0.6637715899792
0.669228518353634
0.671551796742069
0.669060644885038
0.678809993579058
0.674060989988166
0.647918128724367
0.667966381283748
0.668851583774266
0.679846776057703
0.701347194497351
0.661945217592381
0.672320295833765
0.694742122950693
0.688947455792241
0.683544348207282
0.694872248458456
0.700273480697713
0.687399567286201
0.723502928639285
0.712737008131815
0.71248973347388
0.718181288997467
0.717867392570987
0.74690645747686
0.738590809559856
0.712532035044716
0.738360228539581
0.740109303940505
0.752745114582231
0.769681584708834
0.809762004338016
0.812156109786177
0.802211274526629
0.818968028981601
0.865897338874753
0.896664060864503
0.880748133652916
0.838014523483576
0.91473476944368
1.02131876230998
0.99746138472714
0.987989113204745
1.03613614661838
1.03280691333891
1.05231659269691
0.999479746692341
1.07959677647054
1.11170171164024
1.04468296249084
1.02290283561608
1.04318455510346
1.0832024151254
1.11339736954659
1.08523900415662
1.08377165994269
1.04910185079881
1.04230875794786
1.01200263212083
1.08893315396183
1.05028095397616
1.11907524657161
1.04953015534401
1.03905826808066
1.01318258094298
1.07965256873
1.04966551036707
1.02331475801815
1.02828000465282
1.06308362273369
1.13232145051623
1.0757313243189
0.991864875271137
1.10441781978953
1.04515951586078
0.956052364866156
1.02680716072332
1.09217258243387
1.02197047828917
1.02262072675031
0.999643428249447
0.970405864564246
0.958778585228951
1.0000766393888
0.983989396952646
1.07235704393921
1.01211569616343
1.03753207514023
0.989716592849686
1.07101929462653
0.998279762350115
0.949575335296153
0.981324297243142
0.983740317359528
0.97417445918806
1.05462979881454
0.985895152372771
1.04056697350584
1.08128378965751
1.06486882041005
0.98078536679788
1.03371108836311
0.958261130002035
1.01345885109898
1.07767202886517
1.1636064061548
1.05872086405527
0.887701434397545
0.937955257831165
1.0323596062195
1.02140445929417
1.13195166416279
1.0021833914553
1.07304401010138
1.06051945559022
1.07299974801573
0.942224988819051
1.08273623423976
1.19736548527525
1.13498900691931
1.3331905901544
1.32684362327689
1.11411837350732
1.35692950445574
1.12579663891516
1.21064743625688
1.09060954496168
1.17373896733135
1.15618999517813
1.35236302973076
1.44327100064479
1.58162586448617
2.07916918282333
1.35977017947978
1.21628379475676
5
1.63713054038192
1.26892737696355
1.13877585065268
1.24958484579209
1.42167556119706
1.38131190843368
1.13414217120414
1.2798892505372
0.992275039551779
1.28617243654933
1.04631186046141
1.46200648122159
1.33626109051288
1.18459049214325
1.13953443229649
1.1933993132856
1.63923718821584
1.43049438715007
1.12022561237301
1.41655326957413
1.36259193807625
1.28711833944205
0.81651185182665
1.46084919843804
1.49638313477942
1.37955208550788
0.944541088914575
1.15013772847489
1.41591353017419
5
1.11153796095421
5
1.0418445029357
1.05480687494713
1.46001228027254
2.55009097091335
0.701775771918833
5
0.970925514729651
5
1.17302803999699
5
0.981084676593136
0.863325210041834
0.703057402128674
0.859731118789748
5
5
0.791079103948428
1.54285168132661
0.972894045679538
1.06618696162635
0.967295083101106
5
0.767797280789481
5
