3596
4000.36533379555
650.420452594757
1
2
2
0.0804114377165927
0.0730616584208318
0.0706820558400968
0.077780852378344
0.0842876964287299
0.0714770832080667
0.0706864831461419
0.0768889280516971
0.072088528004567
0.0758209719968143
0.0844026993836008
0.0751694309081685
0.0697155145937478
0.0727188142186382
0.0747307972329293
0.0702793553675592
0.0759021388560801
0.0813106738549274
0.0788053285865517
0.0808976132816932
0.0663187880126312
0.0755894723346187
0.0729864045245155
0.0767065286880673
0.0788113495658749
0.0746813185651449
0.0682035494052588
0.0696740820998594
0.0735411323289927
0.0754644568319783
0.0742833157299247
0.0742234088638447
0.0732562916089725
0.0716544361706338
0.0748684473574242
0.0823232849780308
0.08002757862038
0.0735292924767158
0.0773354773904892
0.0754708248694357
0.0736760245276452
0.0759953946257517
0.0841181564464031
0.0775615634953725
0.072515259609244
0.0760713769529877
0.0711736834543788
0.0777858331909329
0.0732073441372492
0.0785141489758173
0.071177484911329
0.0671619171726667
0.0785230655886394
0.0863333531278211
0.0795371376210372
0.0844773012057918
0.0745461490483882
0.0753644183826112
0.0755196046086928
0.0717357821163265
0.0878258316427373
0.086162097062239
0.0807931491276264
0.0718262445630158
0.0754732529163891
0.0723373879414826
0.0705941591961299
0.0753182748362162
0.069145789038477
0.0773322883560075
0.0675649088555988
0.0870666476303708
0.0859387954981337
0.0788095658445684
0.0756004584606089
0.0765393881825815
0.0641540196220678
0.072619746253813
0.0713829490189035
0.0839938280197408
0.0812947815970533
0.0816859896732313
0.0701298709142933
0.0609677270608052
0.0763700747248581
0.0915946459651817
0.0586812705520878
0.0861777564972706
0.0864164980288513
0.0776622061021125
0.0607821660393965
0.0664925935149524
0.0628431295039004
0.071601368979246
0.0635032412526622
0.0717494965951187
0.0661165344193323
0.0772136017691244
0.0678117283272127
0.075513192734944
0.0754953006928583
0.0877158355599814
0.102243920110508
0.0656998111196116
0.118673716575181
0.0775865849797083
0.0678275937096295
0.106622473227448
0.0788799703884534
0.0790210817291398
0.0676870486233621
0.0755337431810435
0.0658493172851778
0.0855175570169823
0.0536115343971909
0.0853283842514166
0.0856118085607905
0.0748007605827887
0.0694195155275048
0.0622413446787129
0.0552632050163666
0.0949168079662372
0.0956169335156612
0.0723666106652671
0.0767273392195894
0.07009225529267
0.0506378316144453
0.103611903507839
0.0951718946603824
0.0709681692639076
0.0712189775003987
0.0755882979670457
0.0518052059553397
0.063307957923074
0.0886609974391105
0.0728982798901458
0.0642772368160968
0.0528737837565328
0.0991405200322628
0.106170513605289
0.0812426892176267
0.0721047372276107
0.0506965845665559
0.0896632369088567
0.0987738172581119
0.0731755153943142
0.0690056320517285
0.0890257621072311
0.0683098214240792
0.0642598269403159
0.0621283633053663
0.065555113248726
0.0742152795572004
0.0703507891919928
0.0267343928934583
0.120788573969378
0.100031326023489
0.0838033371734276
0.122973147433502
0.0698473408350581
0.0790295652316915
0.0601333523606952
0.0692161740897375
0.0579137900315237
0.0670370363240454
0.0513859560539207
0.0748176901795668
0.0833709016147319
0.0681442251363971
0.0792873639056476
0.094566340421942
0.0693009278242655
0.0612833514918296
0.120517512404495
0.073971874895403
0.0672936605986056
0.0950250295432371
0.0764126815369189
0.0561973124592528
0.0826771117745447
0.0857070175526652
0.0655323724552551
0.0693404477714089
0.069844689052214
0.0699884648027028
0.0789139913522704
0.0679357784712092
0.0631898912954275
0.0684029761464467
0.0489815520014288
0.0692947887186705
0.107714489146077
0.0995099323746161
0.0706232808158653
0.0677081819804759
0.0312542842675615
0.10080716034265
0.0845946896701646
0.0629705148774067
0.0737015254341825
0.0608622501686634
0.0660786054198885
0.0617129386502733
0.0717221945757984
0.0601201084231935
0.0417165176862559
0.0975277958040633
0.0793880500484167
0.0699154833216654
0.0634359129929997
0.0689390913077429
0.0441458649591229
0.121051822452083
0.0886814122789009
0.0761124440763657
0.0565365222741784
0.0649826635071867
0.0806831767366075
0.0743101635143926
0.0692040615828113
0.0678144786248788
0.0633024974607288
0.0636127490333431
0.0655686936997978
0.0614404528783518
0.0712312524565346
0.067140835725809
0.0686785382087148
0.058293224612926
0.0639126708124283
0.073841734026394
0.0676396274122348
0.0765394133863927
0.0645355528952757
0.0491121554128411
0.0789582060387234
0.0825018353409101
0.0661632007264873
0.0651657815951415
0.0615542722594987
0.0681111023980114
0.0640970520814974
0.068816624035569
0.06634509034313
0.0648517788992236
0.0645360840038175
0.106526309288217
0.0628081620630254
0.0687941979297924
0.055669613908811
0.0914807434260213
0.0785389179367073
0.0721438487919416
0.0586213410985356
0.0664603244276987
0.058364153595745
0.0651822903191032
0.0880056071210457
0.0773348962046771
0.0603375615169103
0.0780460410253149
0.0758629887966737
0.0695202126586719
0.0602009005095556
0.0539415972070211
0.13594193538636
0.0733249827005939
0.066275843227177
0.130636162656009
0.0782839954965544
0.0795423983699596
0.0594393563676231
0.0269998936527383
0.152664062813793
0.126609492211482
0.0719956021592768
0.0648790489820826
0.0820281087691631
0.0692005339460994
0.0771257314211766
0.0685506665493015
0.0756734339880644
0.0951513163835943
0.096010787631226
0.111203230279285
0.0541515028615028
0.109824714989157
0.081158019585027
0.0823153490438105
0.0778194139370628
0.0783370208188302
0.0618031187585253
0.0867620540636556
0.0798603807284338
0.0896776307673895
0.0738047688699558
0.0674830788145838
0.0949349810826823
0.0835561739793334
0.0729454646712078
0.0732830734177814
0.0840826509553443
0.0640136971821266
0.0679601944595848
0.0684519509116039
0.0817267765777553
0.0630985390388775
0.0818470713668418
0.1228605007922
0.0824623883090586
0.0770217365329692
0.0971863341567325
0.0808037618490203
0.0752591578286317
0.0738052421615268
0.0823330349602441
0.074915266413078
0.0736573576303803
0.0708132572423778
0.0983395948546628
0.0762904088713728
0.0816114048341285
0.0696056674205724
0.0738437666290484
0.0770005578157804
0.0792371148565372
0.0762826715845888
0.0790150096770445
0.0790383919103067
0.0672957474123756
0.0971151763269979
0.107625658204424
0.0538298826293384
0.115821319017709
0.111388387627471
0.0854008515775752
0.0795219182055064
0.0864420298925461
0.089889934628228
0.0755303730155039
0.0929480107852092
0.0792912392368041
0.098824287419197
0.0962337946012993
0.0988259168452276
0.0885039152849323
0.0868885495944168
0.125656590112882
0.144081126778217
0.107413144815492
0.104098214802613
0.0667700241745255
0.142840724486385
0.109033121888608
0.125791069281262
0.128290077122395
0.09443823425307
0.104712374678866
0.102680248282362
0.10829325319148
0.106029154043999
0.108591789774942
0.0930593328272294
0.112936508072017
0.109099774176371
0.124875140323456
0.102348187799225
0.119064759552204
0.148928531716242
0.116797285739699
0.116033327942554
0.11877508266857
0.107892588825225
0.156435621957467
0.132456178632109
0.177587869159855
0.158038993472487
0.152378246338362
0.176956780559328
0.139723601053588
0.140169504249924
0.123136307227823
0.139116684976122
0.145670763290453
0.153255485616483
0.142619192421328
0.14761021478967
0.147363419031354
0.162605656951433
0.141572077879655
0.14688132833067
0.156493158665813
0.18879600203948
0.160892594342712
0.173231647102833
0.157372504325656
0.180533782087197
0.2370745136106
0.226995650189043
0.170984193309788
0.19900800986764
0.175872725279521
0.173014987277876
0.187683201108603
0.190673690366609
0.199211144685214
0.186516662132526
0.232386422136044
0.223323296106129
0.215579663478947
0.229293047953137
0.186280191997608
0.224353195026841
0.20595334683195
0.248830941439802
0.236226972137247
0.228875854071229
0.212515677307373
0.272914007993538
0.237482136642855
0.247158553084299
0.254459034672709
0.233715002771545
0.241256737267019
0.240736268234255
0.250098636869869
0.241453137949884
0.252394910244975
0.255618347888776
0.266819657278988
0.269664970984481
0.257778938852452
0.263521918419807
0.297429239954331
0.271564715218159
0.270168699282653
0.312584150199451
0.281467729632682
0.299384903626233
0.261447096757398
0.341569095844635
0.29540746389885
0.324203519567338
0.31231753486767
0.308734985008255
0.314671890595399
0.317461772457642
0.315769183481965
0.327837954830342
0.332686854722595
0.331144405643783
0.339810862011434
0.350549249232594
0.331455046934187
0.347459068537296
0.355988930782487
0.349131493713435
0.340643993310616
0.375216881418689
0.357968149002224
0.380484984416791
0.357106749798685
0.406793806727213
0.402820608660084
0.411801899199291
0.409571435050836
0.411664232190533
0.387555142389075
0.388777195936032
0.395458338271842
0.410962257206097
0.408187263214942
0.422373424781152
0.416390410710369
0.429305994205843
0.41849990481189
0.451387335468598
0.475186367372288
0.455474257536739
0.446728347702316
0.46678945807707
0.443428445522796
0.472834837667611
0.473387839792632
0.485254031526455
0.513385551626756
0.498302505360914
0.502710487247542
0.502310707622992
0.486185442151092
0.517214014169555
0.480710365035522
0.504544820556372
0.495534331342642
0.521718597126546
0.508687968477565
0.547556496918988
0.525437342834327
0.52975700114869
0.540700692314538
0.56247896513591
0.548355799875395
0.602559009773897
0.538936569453872
0.596672731225463
0.567242995187713
0.622675354447493
0.57727218843184
0.610559914406661
0.58877195311554
0.597257587782501
0.589545435735238
0.603505263729343
0.621880995605488
0.612671839458197
0.612648046007927
0.66562534673947
0.614449529308532
0.671381445532743
0.664098776967337
0.664422363989488
0.630082905673139
0.67844585034296
0.65479202256831
0.721225111811681
0.681795129796873
0.744810623630318
0.701745152245756
0.723364665737984
0.686436808767943
0.722731212309833
0.678741942103668
0.730253655089456
0.720595015928803
0.726478234480123
0.712741818482668
0.749570332976506
0.69847517901352
0.755840363236622
0.734514795934779
0.795567396138114
0.726567341283715
0.776049930491453
0.799189198818536
0.844038249911199
0.810844933572057
0.800123214739997
0.790852820486981
0.83737337275037
0.79515540885328
0.804348445874535
0.814693958679018
0.85515035321868
0.784096803121532
0.920969227028624
0.806647318708477
0.907915127611656
0.806712213248943
0.87838099472341
0.815361346873756
0.885738860692646
0.839411597334942
0.964227407236403
0.844070207313733
0.950151729486045
0.8358386225841
0.90450606480413
0.863904996810941
0.959659082664626
0.857825023174613
0.955236772790116
0.930732697603929
0.947337627823141
0.958472171466754
0.982835142737684
0.890703259244589
0.972237896652849
0.897407667880595
0.999608213202743
0.954948895748939
0.998324403073674
0.924213600380668
0.963839471677292
0.959112124131619
1.07539694446697
0.947808201734611
1.06632019993431
0.971606046101734
1.03835639230096
1.00896587342661
1.03229151024824
0.963061455270565
1.04946054883709
1.09814861718062
1.09612772655947
1.022880801359
1.10796385204227
1.07907688581352
1.10039920282916
1.00628561124441
1.15600266536424
1.01642758834118
1.04558000207272
0.99460500816201
1.12618542875456
0.996609399863901
1.16488423378957
1.12200390239204
1.11332762954631
1.11717885552898
1.14439682481751
1.10020015855796
1.13145862872611
1.10815881201603
1.34946653556264
1.12436405334264
1.19469643623426
1.0928881770276
1.26901419995023
1.09509067859309
1.22552466159357
1.30223326157719
1.2778529001239
1.30764312315982
1.26754510994759
1.14292429910542
1.21344686870563
1.2119004976935
1.23180316029797
1.14019340743338
1.2580677242425
1.30361245370551
1.32181306078377
1.17626255395364
1.30503022103391
1.1989808238599
1.34803400977648
1.16304773707347
1.3741593604256
1.17553456925527
1.20814722313649
1.18440155803227
1.25512541774729
1.23723535525565
1.38955059771425
1.16260480959033
1.38134008591555
1.15330292572
1.25347537509172
1.17840870670114
1.30022658925696
1.24294584253398
1.33952749710933
1.42596218511019
1.41562744123411
1.31239318696275
1.28977943379694
1.28678286882458
1.29149252595966
1.31366761837687
1.42471258060224
1.30630961545771
1.34393336511428
1.33658586633609
1.8161778875561
1.21620081623844
1.33630852203711
1.28692851997886
1.49318820220033
1.28971465560812
1.50418726514539
1.3438431326833
1.53983625181693
1.32592695098555
1.37577501706781
1.20243843316023
1.3294077589047
1.35016902861676
1.63076316403209
1.30916616460916
1.65267226578959
1.29637782961915
1.46671930329688
1.38064271538468
1.53183550841738
1.34997091207721
1.3991694951281
1.39776883401203
1.34762151182838
1.29609638993182
1.90694643226651
1.35969966317951
1.41966275755791
1.32826494379425
1.50078148688752
1.34830150438566
1.62796475883283
1.38906235017006
1.60720427436584
1.42118809321756
1.48245671406255
1.43985482421722
1.54187226884239
1.40002128712168
1.47843749654813
1.38689887033739
1.46632401461628
1.47540262118952
1.45329294881184
1.4246902663254
1.49796336911656
1.52609342979716
1.61482112624009
1.39251628723704
1.65242469814887
1.47447688616145
1.47158399685765
1.41295371241777
1.70600311147374
1.48837468169373
1.37951874199543
1.42242056402711
1.51132353978172
1.34124385664346
1.51295524183167
1.47451188045895
1.68332796004793
1.43963720853237
1.59292530799424
1.39940693890001
1.42785777758177
1.33906439527354
1.60191414169022
1.46010079768632
1.55990207911158
1.3967277259539
1.46723375149219
1.48057548971145
1.61880750700558
1.35665520148826
1.54196339458535
1.42717308403534
1.40296212096771
1.48035007018763
1.54883889402096
1.55348658767482
1.39257601401528
1.43009659725437
1.72303247005559
1.29213496518616
1.5805169647352
1.33243613014461
1.47907673107094
1.5190318350756
1.47620788349461
1.43405171755369
1.5293316295659
1.48085923229395
1.56634452700453
1.38871114615487
1.58875005873211
1.42230601842384
1.55785509533156
1.45225954731922
1.51765616031427
1.42412286418679
1.66178276999021
1.3263091685865
1.51647212990991
1.394974980218
1.40196477894803
1.3569904726593
1.62067576062843
1.45762846765508
1.54878334076332
1.38498714822326
1.656549593852
1.50658970073836
1.56313582396914
1.50255258010982
1.44674970389145
1.48805874641144
1.53472304849587
1.34829981656636
1.50400898767839
1.36991712075953
1.51119543388092
1.40838402476085
1.6129294712918
1.43130195688574
1.55228052167717
1.35609322704936
1.55230259403622
1.4094435137455
1.44351252214833
1.57774636519967
1.60548803359566
1.37970144909832
1.50517531700571
1.42290876824854
1.5585268642688
1.46747858498984
1.49787825089509
1.3202301636637
1.43041362358556
1.2719969678917
1.45532686261883
1.45068222001264
1.4466499643652
1.35143264365932
1.45951263484245
1.37953162381356
1.3529290288306
1.29522175787956
1.49244956548401
1.32717498752702
1.43937798880538
1.35527242393293
1.37211226078833
1.28677968085886
1.44939740034382
1.42068122158589
1.40328388870467
1.35580554600753
1.41590324723392
1.25996414430424
1.38717905837317
1.34272244758176
1.43158912551321
1.3656636496607
1.40040200672564
1.32477328930272
1.42894503592515
1.40821081837637
1.36143156753321
1.28033400870768
1.38915551347138
1.26678751439467
1.31137125437414
1.26511849983989
1.31167715928315
1.240534190169
1.37266832127965
1.29210582066352
1.36113833056157
1.41456120237856
1.28063244272815
1.25819566616334
1.2803223766063
1.19940134394371
1.26910188123283
1.31173814943881
1.25954469133822
1.30976513282227
1.29734090571113
1.19473600890147
1.3208319091791
1.22932536688506
1.28989078212058
1.18396461426982
1.2229458560575
1.21214588579909
1.21626613844367
1.14342003988019
1.14764458144297
1.17494784535712
1.20593548758506
1.12467845666424
1.1802411210752
1.14796558780433
1.18688260261591
1.15319988530294
1.17837264102784
1.13306254124199
1.18462693960714
1.14422572259881
1.16781053391604
1.1619366953009
1.19084649912191
1.10752250062407
1.14423526039844
1.14045692542135
1.18293327747046
1.12048720486679
1.1066709594307
1.09315594387741
1.08365839006266
1.10214682229234
1.10979214680556
1.08443265410308
1.10676837137375
1.04880830475171
1.14936229923808
1.07365778413733
1.07673535873077
1.05931466758779
1.07550356166887
1.02287319044022
1.03352468977744
1.02889649158986
1.04361705657982
1.04146671998998
1.07630782490626
1.02426831848024
1.0269426249981
1.0246729975004
1.02809944489516
1.00247525801218
1.02019514077657
0.981794832647815
1.0088702437095
0.988795392431373
0.995647810526914
0.978888803060044
1.02052422903741
0.970043362234636
0.978317998589345
0.946389276840496
0.95806399018299
0.94163224149197
0.953597311602483
0.927788251459307
0.954604219179446
0.930329675196637
0.958037101783014
0.923625357383224
0.933027772316793
0.922969929743342
0.91010283193196
0.883408388449585
0.923385057506028
0.908977722149089
0.918835723702083
0.887706477665989
0.917781897981666
0.877620705331827
0.90720891263106
0.880618886585719
0.873033197388318
0.862926671424388
0.883743498619692
0.867850547004731
0.874019519507403
0.845170634161371
0.853989947791247
0.827379017557434
0.834153170289391
0.844538681631409
0.845481789677682
0.814134679921042
0.814274340657975
0.804975460445065
0.830123889159894
0.809408008937827
0.83222188002198
0.794838480858488
0.800623524684402
0.786842934805295
0.799471656108158
0.798502355987035
0.790904512257009
0.7599033844095
0.776755132269329
0.776657995370014
0.767207879272264
0.769576467014319
0.769555355929185
0.751255902635334
0.782623113812591
0.759297524276438
0.741681879488048
0.746745395325813
0.746353788409528
0.743370035921739
0.729486406468193
0.724502234929968
0.721620419897998
0.726895218386186
0.73269899986722
0.719584784624329
0.738244143053348
0.718852611438386
0.715155923219571
0.698201138117587
0.712436008738191
0.699983727652992
0.699699789232284
0.69656934382202
0.693470663505061
0.694444323937142
0.708079520108116
0.686502914427968
0.680394911649301
0.663655493565443
0.679417605130739
0.6739323902311
0.679048523269025
0.669673447412975
0.669783713386152
0.660565037372267
0.658582884081984
0.638521407579028
0.655638534160034
0.642093540997523
0.643994518425369
0.628933046258653
0.650374422605079
0.626942915900462
0.63101307763447
0.630369240239731
0.626455334609558
0.636592739243759
0.633519765866335
0.613626304567998
0.616701973874423
0.61586589718861
0.608634414910549
0.592066513684518
0.604647038834313
0.603824787998124
0.606821192828633
0.601662317980409
0.592186401181604
0.580009078222464
0.570993425967596
0.570810951580556
0.580408885155941
0.574075291298254
0.57516778536174
0.569676241568039
0.57411889182505
0.564682487748505
0.567030384755492
0.558420328995041
0.555784215504087
0.551607999132237
0.552492934309557
0.541623646598128
0.550210297224448
0.545081226827233
0.54249132812203
0.541774087924141
0.543525369407978
0.545439953271584
0.528697550926643
0.529734855447217
0.525207573344894
0.517258834181945
0.530812627323391
0.524984162374737
0.509249786527102
0.500876531508486
0.510301651568337
0.510617830053819
0.512759162246951
0.509004485380528
0.506889163591146
0.501255307759831
0.494431819212981
0.48862000174309
0.495237732224337
0.506747162533783
0.499885149326889
0.489944367619048
0.479644614890091
0.489560782356921
0.484462500632621
0.482776174989657
0.486755642655539
0.480935488276387
0.476086395820903
0.473509247838375
0.475989854432922
0.482630701756329
0.480138723173624
0.472303576544016
0.47671959251303
0.484338734910117
0.47308500003141
0.480573361793037
0.476518116095031
0.464381301255497
0.478172566483709
0.479505676613804
0.481180602902783
0.481539347721753
0.484285113081232
0.486807767702981
0.476340713819878
0.476720119338438
0.474582417373618
0.479635085088822
0.491017057337118
0.487755111930324
0.490844313828115
0.492641398925427
0.488840257347616
0.495460158997132
0.499542492535154
0.495097917591713
0.494821820287768
0.496509108111073
0.509363133323533
0.507972189462035
0.499262113650777
0.51165968309609
0.526933308607362
0.528847455455234
0.521420462269908
0.517775124527564
0.531636242922286
0.527873753105463
0.537121389681053
0.532741549329676
0.545407832298248
0.535090117249373
0.540478473593187
0.537944091381723
0.539011144071942
0.549236085040479
0.554816125316007
0.550130953373156
0.553087849275598
0.570213488848751
0.564128254104903
0.564529694081718
0.563524549462124
0.566900480790255
0.587240877558104
0.575368569831566
0.587236466393261
0.58699304954784
0.594742254806275
0.588285850461382
0.599651144907352
0.602280058062195
0.598243223328721
0.601561058831305
0.625909039928881
0.61833512295831
0.631458231220227
0.633991097833504
0.633836024296117
0.636820086549076
0.64967005972656
0.633085294782845
0.638578871077394
0.645546004478202
0.641967638358222
0.658871998282146
0.641927545833734
0.639287860146869
0.658882239413216
0.658306609871087
0.645465993975368
0.663581436381766
0.654656485561387
0.647552988871667
0.648131865805457
0.644248202172658
0.657574847528353
0.640988124695084
0.645931038545643
0.632710315133771
0.648930227393225
0.633170227342431
0.634801192732106
0.655733258517211
0.64319439023423
0.640414134354724
0.646612371308612
0.6361927084549
0.638886763013644
0.632657557607294
0.634674414314004
0.630194699908469
0.64115833349361
0.64626043820386
0.622261258865942
0.628848014795456
0.636063328699623
0.638722391113741
0.635460085650706
0.628581245670683
0.632993999298877
0.633294882267514
0.640178502096158
0.637405190966624
0.632125014455066
0.646749131221158
0.640612802243662
0.637712258288749
0.64236592881973
0.629029531371651
0.629505092456522
0.616825324295663
0.619262102735121
0.639109183420322
0.635807452944091
0.628857907159622
0.630051525072546
0.639058192276449
0.623642086829673
0.62215570632038
0.618083181152818
0.625690187888659
0.621253456678306
0.613559626041945
0.621267758925191
0.616313437320285
0.611543078216662
0.609805935463
0.606913679887432
0.610388916185804
0.596849325709869
0.589460122908296
0.59057505490268
0.587950044895049
0.588994305142912
0.584302239445473
0.580022069443853
0.579223920987248
0.56772650892574
0.560231012565514
0.558861166860116
0.556888724889513
0.550114774570296
0.552432658981531
0.546537819345869
0.543398478277274
0.543901749885749
0.537542463058254
0.524743192507436
0.526573720781069
0.519119107642879
0.513273432345502
0.522091066454141
0.516607960365657
0.510585826174753
0.507598142655724
0.507215659014619
0.489944976591522
0.487091865719658
0.48607258026745
0.482019022081399
0.486209699002266
0.477526498747462
0.476452524636433
0.477931271341147
0.473385212507655
0.465691906484307
0.463022876194854
0.460104120113595
0.460436605045963
0.459615702810523
0.457623699858647
0.448995097222101
0.448765639737051
0.450182491990082
0.443314838215585
0.449054398335689
0.444633939939619
0.434736561545553
0.438745512753687
0.43996088260152
0.42833690410604
0.428419051619869
0.435623750765238
0.424649885808696
0.42426690846396
0.424315837090583
0.422033951259446
0.415678229516982
0.412866963548558
0.410704356181271
0.419551866749551
0.409531502134543
0.406467489772847
0.411469305730127
0.411395156224491
0.405756459215156
0.404365568858637
0.401283748263316
0.398920493525305
0.395627977468027
0.40059377861461
0.394147471349138
0.39532650162632
0.392460207193727
0.393217577552473
0.387346881288007
0.391700332735647
0.384913472100694
0.380199613495368
0.381543685047843
0.387102744535342
0.382899809368021
0.385064789412655
0.383215145149563
0.382820772026214
0.375382602984871
0.37780837627225
0.375649648958277
0.379093371549914
0.373423642436195
0.364513018206606
0.369977736851372
0.369739049206882
0.361653958267468
0.363273977619812
0.362576576511396
0.364874113467965
0.359479271741845
0.359595047539771
0.359807380012493
0.358431143076126
0.356956118774787
0.35472689668969
0.353034345347577
0.352033526316466
0.353965698734846
0.358804459357492
0.348078038849973
0.351339072428677
0.351815635785701
0.350005031111363
0.350554671142643
0.348055079277058
0.342727296169298
0.345658971194033
0.343729137962214
0.347056966016448
0.341849406573667
0.344260958894867
0.340890099825404
0.338418069773484
0.336156154663238
0.342964756738397
0.333766593396012
0.340691700070659
0.337796403197424
0.338164142664674
0.3323986110401
0.3307615254345
0.335921653119515
0.33341235121572
0.324825864059544
0.329544155687703
0.328240087965559
0.330077548262533
0.327931062877199
0.331197832043863
0.330669917424416
0.331202753102245
0.3284561055573
0.328089073382734
0.320018865798475
0.32378320054282
0.324127037823388
0.323238588681893
0.323081780007035
0.324774569166713
0.318730964649073
0.320007503636996
0.323332407290227
0.323576527954812
0.319529904868674
0.327557496101973
0.320043038774611
0.322025511042107
0.319485811928881
0.318985190317522
0.318727145414806
0.319026795770621
0.31120660813381
0.315205839433049
0.316164260218848
0.313360044620449
0.310859727366661
0.311673555047164
0.3113687436248
0.315696510358483
0.306752767304721
0.311022266546434
0.310721696427425
0.312267576913913
0.306948289571182
0.309413381602104
0.306901614523164
0.30813287776767
0.303493174507751
0.307159651070982
0.304621158544518
0.303936890043158
0.296501498665226
0.301459723929764
0.300726401476595
0.3028466946476
0.295679728413717
0.301302772099915
0.298077803075409
0.297697359098494
0.294909478655213
0.294978935025617
0.287409461184888
0.294620044677174
0.29232421952126
0.291308445749402
0.292894914737525
0.289969070824629
0.285910305123461
0.291793448736966
0.285014360000139
0.287693165407
0.284626674100893
0.284991705990068
0.283628680418822
0.285803841439179
0.281952312477826
0.280857085152742
0.277591674011656
0.285738139353762
0.277700342893989
0.277540103387885
0.277796360955841
0.280645864870978
0.276014797295014
0.278564528196148
0.273554040295071
0.272833584267095
0.268714628857824
0.273561775292907
0.267292080797593
0.271978123978533
0.265036300317265
0.269582403283847
0.266789372513856
0.262671894037115
0.264269841135847
0.268561348601359
0.255542582303017
0.257298087916743
0.256227112167318
0.260740391968253
0.262541795804638
0.261141758868892
0.257106417531089
0.256178419172916
0.25239174626783
0.257067817378024
0.25267951939585
0.249323829927196
0.24467772100621
0.25005646184741
0.245931530348886
0.247636884885094
0.243172893034069
0.246217483425983
0.238950097956207
0.247885311004381
0.243416203993835
0.241269399014945
0.240067148371005
0.238632797949767
0.235576137125909
0.237037262955732
0.234127225245375
0.237204571190676
0.231696973563482
0.235929159345383
0.228987269102955
0.231313459584796
0.227383633430637
0.23015042946578
0.222901076305642
0.225905888722143
0.220060291094877
0.225420465131795
0.224337034978903
0.222660025023194
0.222994575441207
0.220053610469183
0.221416118863174
0.22871387525501
0.221700989672468
0.216890100284367
0.215309133827982
0.218847769922096
0.21576452147154
0.217494544934067
0.216051387527631
0.219333419832515
0.214285900060393
0.211454591715724
0.210791445525277
0.212008918032982
0.205099681431527
0.209581900411101
0.210580148520191
0.210762944749589
0.206014804023258
0.208651907608687
0.206744085300847
0.206713330567976
0.204091710191212
0.206627070451064
0.202184039115854
0.203063152858079
0.200211008561027
0.205890714980763
0.199827944546761
0.198783320623119
0.195285820917683
0.199595721140663
0.195512841338558
0.196671902857698
0.195279819218687
0.200541050990315
0.195443733495932
0.197872935872284
0.194818044744935
0.192460320286175
0.190601348780894
0.199441874356928
0.194241115420182
0.193980756537427
0.190092257312564
0.193247570610613
0.188476302345885
0.190093648127177
0.18514592008026
0.184301778698461
0.18514304636021
0.191088927061812
0.186770520664846
0.18920777631847
0.186052707899523
0.190839424255476
0.185866461129713
0.188494019831039
0.183006338068061
0.186498600303285
0.184297778918691
0.182224163168877
0.183007962456527
0.185703784775244
0.181764876018467
0.184996039553777
0.178226757664684
0.18188712972698
0.183762698529339
0.181447494620784
0.17887389271669
0.185588656130321
0.17790422916508
0.180074751414423
0.174036736159403
0.178673181833787
0.175413339963478
0.18230022753644
0.177713333303211
0.174592706736585
0.173233257526207
0.178433672370392
0.1734686002166
0.176983697736443
0.175971610422398
0.175149959182812
0.17293183024742
0.177715639486658
0.173247271314931
0.175077501880782
0.169163745331633
0.174343668565027
0.168978761484225
0.170667480988935
0.170509536358157
0.173764578655702
0.168440388512081
0.170427574776896
0.165614972580729
0.169462163871039
0.168769860459006
0.170383952544895
0.160905620286586
0.163409359616885
0.160985804928658
0.164867967096164
0.164309285394416
0.166573260896012
0.161185965438773
0.162440433166404
0.164001073662398
0.164345855580999
0.163491754103651
0.165494372856332
0.160272211638366
0.163352786888822
0.157166367468113
0.161658952179881
0.160805478524836
0.161397106761003
0.156968068427471
0.159370092945444
0.155943327652024
0.159685320190987
0.159477575042346
0.16239167205294
0.153881815175364
0.154234187774452
0.154476033153534
0.155788490077775
0.156210722957761
0.160412085405242
0.153389112060722
0.156216752651485
0.154214903583666
0.157575921402006
0.151372781681483
0.153834239703271
0.15374378277365
0.155219903617567
0.151889409761421
0.152959974180825
0.150720015241052
0.154621654171121
0.148906147016644
0.150686739617698
0.147893993777811
0.149619366949507
0.145433697006837
0.147176795807642
0.145078525088289
0.149825720124998
0.146142873840281
0.147417523300178
0.146005794509003
0.145937118273173
0.142028739151238
0.145557763592324
0.139422196688075
0.142995051196454
0.137277826603902
0.142546808205448
0.136542876269441
0.137182093005947
0.136876536317008
0.13869510829835
0.132765036560699
0.137303772093776
0.133173079317513
0.139994336323587
0.134318749863297
0.136021374256078
0.133081482977439
0.135367725701079
0.127930310206861
0.133187335989751
0.128733693749271
0.132474414410124
0.131003272990339
0.131782026969952
0.127249752547176
0.129581813113737
0.126853908991978
0.133378605207828
0.129087125563123
0.1281093449465
0.124882064370954
0.125863028652792
0.123235391648882
0.128007647702253
0.124735872388271
0.12625325958273
0.122303502511471
0.123541295230129
0.122103476436105
0.126145465477331
0.120970983551973
0.123892727156968
0.119359382400102
0.125180276313916
0.119020782419951
0.120031365527836
0.118444368407146
0.119491277590968
0.115872470187032
0.120707535045604
0.11575742788822
0.117932013585743
0.114267413518121
0.1148221747058
0.112186710933009
0.117935062018311
0.115425695524018
0.116162635909956
0.110970393707133
0.117173585502427
0.107792717821043
0.112984617646669
0.109084260813372
0.112138629321708
0.110353862126036
0.113948414963739
0.107703838654937
0.10956574055696
0.106100212380648
0.110314975959705
0.107461995289297
0.109823569618639
0.107183481931445
0.11089722191104
0.105242347574436
0.107265613138599
0.107002611277429
0.107851538474424
0.105510424066874
0.104130670159178
0.102550564121815
0.10485688424101
0.102870989195826
0.10334889274542
0.102741886239931
0.106349897819507
0.100927035035631
0.104730962010489
0.104865754597454
0.106775352916935
0.0997107427864951
0.102053588996347
0.103252956152394
0.104464192618119
0.10094680075606
0.10718225293441
0.100349540369457
0.103655493524927
0.102804393371089
0.105041277342226
0.100373956759437
0.104405334271891
0.101405835578429
0.105339966904447
0.0992001779063213
0.102474631016493
0.102014101091894
0.107116642615114
0.102241492535816
0.103038882705504
0.0977836358835237
0.109251582137527
0.09948038412529
0.100150584430315
0.092868212433211
0.10050210547613
0.0977504662579098
0.0974187875897308
0.0938206201037872
0.0997600310831735
0.0966398804746094
0.09471899824802
0.0939519680484965
0.101450487105273
0.0895038072449108
0.103023062704828
0.0904432633395554
0.100004529598583
0.0868464483605623
0.0943434333119562
0.0948168137770093
0.096334883814732
0.095221820410363
0.101702594224898
0.0882789550831206
0.0896074960404236
0.0900064528241772
0.0934251440630375
0.0922650821676425
0.0906433909098237
0.0909019558670913
0.0916694578355634
0.0912370745368041
0.0863044208836529
0.0866247229430214
0.0912351132381648
0.0923846622456557
0.0915634544456384
0.0942917397513642
0.09512741279194
0.0916671256235708
0.0899256685704799
0.0923109456219231
0.0847691431248318
0.0998573184944678
0.0889700397253576
0.0990083032697778
0.0852099584184255
0.101648477009462
0.0849043592889044
0.100381437912546
0.0787116918185844
0.0984731940983815
0.0902604142674629
0.100262142716092
0.0816632768787854
0.0964109901689036
0.0874581374282179
0.0922430927887894
0.0886381538618592
0.0946664889457336
0.091974936889897
0.0888965240525944
0.0971600614600933
0.0871455136111903
0.0947150197160452
0.0833759486455204
0.0953244959343871
0.0834947850374922
0.0937354547766759
0.0849942364684895
0.0896134334688495
0.0874015138086689
0.0901188435749713
0.0873496127593997
0.090842891952964
0.0875759123308305
0.0885730815212234
0.0847565752956449
0.0886442770749107
0.0838652009329986
0.0883678331541756
0.0837766459063989
0.0896997187663166
0.0824681100572714
0.0868090208285293
0.0848570070632349
0.0873114778879333
0.0849640080041719
0.0869583787055973
0.0829072155345601
0.0879451197019297
0.0814852333691045
0.0885495509308464
0.0814874514457131
0.0845949079238764
0.0852841118084142
0.0904714746904297
0.083757095521452
0.085912452169907
0.0811846486761092
0.08712759261553
0.0814801454722481
0.08875405107638
0.0847203855579647
0.0861591389679635
0.0831305719698719
0.0887009151190828
0.0813302765576641
0.0858703097039474
0.081709105184627
0.0880412972488982
0.0830823471714588
0.0843969344218342
0.084347946758318
0.0860437167705472
0.0851447674491393
0.0857346432954828
0.0863000910128546
0.0872143911276103
0.0839084004154727
0.0870227010851498
0.0825445653499947
0.0881056743909256
0.0818224959726525
0.0862028435796326
0.0825180477661898
0.0873550230379871
0.0822868844663722
0.0862084548036536
0.0826901553589587
0.0874823077739978
0.0842380333805669
0.0886699046540508
0.0869045108335988
0.0873742376809776
0.0802480166665535
0.0878498305311083
0.0813978340425738
0.0858951382264929
0.0824033994771791
0.0887542379375606
0.0815985790794694
0.0873595567002026
0.0820948080915695
0.0857589734968185
0.0804151984786959
0.0875195640253524
0.082881139378761
0.0871255431518137
0.0840333263719385
0.0883331044224865
0.0840538439038182
0.0882348483907133
0.0846834029755604
0.090902432898345
0.0840314470089949
0.0877197142399921
0.0847089315769014
0.0863686203305916
0.082403573225657
0.0869993650454316
0.0837210723591031
0.0884874167033499
0.0828903633688095
0.0892043091756557
0.0855376212822433
0.0885062811014718
0.0845287617047142
0.087667999796494
0.0824440618512769
0.0879122071653076
0.0848767368548062
0.0890430705663012
0.0848953475409761
0.0914331215150598
0.0842923250518587
0.0886976096939576
0.0849821218754187
0.0901592624580767
0.0854315979823674
0.0904732954243777
0.0865804308440057
0.0937641514733726
0.0863428759716052
0.0872606461462909
0.0888595223037308
0.0880789798317075
0.0863662425494622
0.0899963920365069
0.0865837748115875
0.089630041341281
0.0853100522685295
0.0890569344566874
0.0876605962585473
0.0925425114351293
0.0876282228123528
0.089663249887921
0.0880424084832318
0.0908247912523503
0.0872740462532467
0.0905450663514633
0.0873250598332851
0.0928570836269504
0.0888208807440234
0.0912250701864091
0.0877950331985062
0.091819029040111
0.0892987124826072
0.0883522192180611
0.0865393892282067
0.0924870609382005
0.0881236978765267
0.0896415995052941
0.087635381626143
0.0927771002302517
0.0924967513345506
0.0939793797467635
0.0888422946644354
0.0937067774968105
0.0917724887315168
0.0961456986904248
0.0909265603685676
0.0946165565163167
0.0891018298423977
0.0954798632716487
0.08964212412835
0.0959973806562133
0.0922665646837836
0.0945744417347423
0.0926856353969376
0.0959963220058534
0.0910882635621276
0.0956013150032345
0.0923796340681268
0.0959988980807887
0.0914511368625035
0.0936880918199325
0.0919755401449472
0.0949447520009062
0.0892742493329331
0.0931818967840046
0.0928907443374594
0.0979630523268534
0.0904246083111581
0.0933909228973159
0.0924165806752543
0.0959464190354653
0.0891320887800886
0.0927931918236908
0.0899213325506961
0.0912552636423562
0.0889581650657471
0.0900242803102482
0.0903173103768822
0.0919557457569583
0.0887194605435807
0.0903591102808835
0.0861479545210085
0.0899771900422727
0.0860420879097855
0.0923029753820304
0.0868105500867454
0.0911570725703883
0.0866204451307669
0.0909599239417773
0.0872147156734736
0.0897262323544019
0.0871284708614982
0.091519086337485
0.0863234298058146
0.091951241733439
0.0866857936884768
0.0920817998164221
0.0881331849086437
0.0910984671233956
0.0848112606375359
0.0864250944442145
0.0847784984378817
0.0894223984843343
0.0851777045657582
0.0880337238150252
0.0850321533857905
0.0878827570658441
0.0865703757896283
0.0891759087327146
0.0834212092665591
0.0882364272278249
0.0801952217311191
0.088674142092313
0.0860961034013373
0.0869212779682266
0.0858935377339055
0.089858192494085
0.0839918265497061
0.0901060792305819
0.0853646343575228
0.0872618678897783
0.0825582396519265
0.0854513771145193
0.0848302617138367
0.0882410540443618
0.0842829424187736
0.0884322169469219
0.0835711034559302
0.0869809412008366
0.0835273664718213
0.0877325258398922
0.0835403920459867
0.0863141063744711
0.0825709565043013
0.0867651731788894
0.0825141014818707
0.0872860631382949
0.0840827981228965
0.0863340849135245
0.084131145025839
0.0862844507136811
0.0830592007191589
0.0869960534876262
0.084936889391441
0.0876707319927272
0.0821817343569646
0.0854242587093245
0.0811443810048153
0.0863619196036566
0.0836357012827827
0.084685660941349
0.0833524506831403
0.0884823826769104
0.0805532604616833
0.0851823942168128
0.0800038868223228
0.0853638931343432
0.0804794433955595
0.0847497131812471
0.0827202809389699
0.0849079729921751
0.0820399563009402
0.0848833311498372
0.0833647600894235
0.0855153223257023
0.082522556575658
0.0848320340458656
0.0796116130805802
0.0828393372000703
0.077558215198995
0.0819892638630799
0.0799660938759425
0.0847020163135186
0.0782418786615054
0.0861384110499057
0.0793347382514123
0.0844194172060858
0.0813406757082194
0.0829791049722493
0.0813859637092023
0.0845776754832392
0.0769494535043438
0.0818584047771666
0.0800409114697002
0.0832167188248934
0.0799257497842928
0.0794355247789754
0.0769073418167027
0.0805460935065973
0.0787986746441866
0.0763099046434287
0.0760175489412949
0.0758659109435276
0.0744539005580851
0.0806509933697477
0.0747135596276824
0.0807277518353199
0.0747239144956351
0.0801944509475734
0.0753846813739602
0.0756114508467348
0.0754261813776374
0.0796082983634249
0.0748855876314964
0.0766094471334742
0.0729144383904637
0.0768383929191407
0.0721900948792327
0.0749957830532078
0.0723198157937728
0.0754082468573611
0.0688449896190389
0.0783376847706921
0.0713318880805588
0.0761760120033473
0.0701497578023157
0.0722836666817331
0.0731123328701462
0.0734183321738279
0.0685579650226597
0.0738720596271695
0.0710704305142491
0.0743436761095587
0.0678012480274065
0.0737855884807341
0.0697188186846393
0.0714014453863302
0.0685077164700749
0.0705317155571289
0.0710497399802893
0.0776022107553788
0.0693451133110858
0.072477656071496
0.0690486264794273
0.0726240252417617
0.0676966035149579
0.0723506047306226
0.0648588903294313
0.0705425489151573
0.0671351582592153
0.070481243463937
0.0655641498411539
0.0715538729346738
0.0671457561177462
0.0735701709720295
0.068066214535766
0.0713571341638709
0.0641249164060072
0.0700082807202227
0.0665573870578817
0.0676690223692804
0.0645243286728033
0.0717969145882466
0.0659016423549596
0.0660618217684411
0.0671359402632547
0.0749724884245261
0.0687965820808742
0.0682179956030688
0.065067322848933
0.067163573319866
0.0620605613180867
0.065818749582299
0.0658374138847835
0.0688958135003436
0.0639565696383112
0.0662550035185849
0.06379313452027
0.0691296485227649
0.0637009317195611
0.0666088133943508
0.0598838624850322
0.0673827148291666
0.0620606621347941
0.0686490462096385
0.0604881954129729
0.0701614518908298
0.0599872885731574
0.068153725345992
0.0639614725434132
0.0686581833198105
0.0614573913905983
0.0682941330739293
0.0794161904176601
0.067486958323557
0.0625945034046177
0.0668533950374508
0.0619217005730587
0.0659896687132226
0.0629108927293875
0.0635412052043422
0.0622128888961569
0.0659207310638009
0.065234659000822
0.0636935241417808
0.0602358163458916
0.065587018479349
0.0626643941682974
0.0631020514473536
0.0616056771974993
0.0646010005046658
0.0597865585723713
0.0629523661337266
0.0645502456753024
0.0747182833448731
0.0652796309320899
0.0659583769197771
0.0617626066933907
0.0595368537744126
0.0736968689867897
0.0706744963855523
0.0613700793135364
0.0635409275232468
0.061528994602737
0.0640079307559663
0.0613838285788993
0.065229461384204
0.0581468014888674
0.067531489405169
0.0595228680051937
0.0680181215161515
0.062863003542793
0.06240344217855
0.0607933594295594
0.0665489646333178
0.0601272528551176
0.0636809537827295
0.0594829552147703
0.0635219092776375
0.0591601375776741
0.0626213383018364
0.0617981989702491
0.0636842693617285
0.0609684396777039
0.0680329807307727
0.0625730724722724
0.0630266991199971
0.0601502050116175
0.0619020814617467
0.0624595033148269
0.07770358115207
0.0593356490823944
0.0645762954100353
0.0576099837502029
0.062974217888991
0.0605753944982634
0.0644425419371505
0.0588300635915459
0.0636880839334608
0.0582513612788635
0.0646411831796126
0.058624463081182
0.0649606955161492
0.0582303784368294
0.0636771168612389
0.0588610292254314
0.0633525753088258
0.0603936524917074
0.0636851070737946
0.0622555597990356
0.0636625364958997
0.0673412813584365
0.0838383394791643
0.0692541386261247
0.0750954140282637
0.0629315827026183
0.0647760619321009
0.0581567479684952
0.0662050409584394
0.0564228689180094
0.0684496203024942
0.0591789723721412
0.0636990474218966
0.0584187728249674
0.0642548380014078
0.0560194015820788
0.0648777145110048
0.0563757887129732
0.0647799992289263
0.0566683604082383
0.0673610960746189
0.0558837748286427
0.0672549684254147
0.055427494192368
0.0703135295768047
0.061999182990405
0.068791018834324
0.0550296283963244
0.0894801951652181
0.0857107411989934
0.0661680372771715
0.0686512230917136
0.0634277642861094
0.0627037641809761
0.0613524660833913
0.0622616376278309
0.0691720321698872
0.0644323627755751
0.0639020247964338
0.0618799603500595
0.0666542685367005
0.0649961213173339
0.0616736658495076
0.0633311820543367
0.0876262941879691
0.069492588342868
0.0707488842517631
0.0616395840796663
0.0683973046842435
0.0818415848716597
0.0692121020781654
0.0679694303228953
0.069939034055163
0.065626351721931
0.0678685640704982
0.0655139724876734
0.0662301426312112
0.0654618269275669
0.0717065023610253
0.0632492876434373
0.0712249775745719
0.0598393042161531
0.0734899183155043
0.0670424862634695
0.0779169438111314
0.0754652287911083
0.0670605762036576
0.0685283519226973
0.0700789039310773
0.0654298597801351
0.0696062690544162
0.0692690643769933
0.0693737963547195
0.0730289163041978
0.0844610867665866
0.0685413691991405
0.0828365313905411
0.0786011688846109
0.0689942231506884
0.0718909490267623
0.0804012403602942
0.0750743247067448
0.0688529005145477
0.0694886337285254
0.10155778586503
0.0738107929721936
0.0943913744951023
0.065681461122
0.0783224699070216
0.0664686110577448
0.076924581494041
0.0626533590917683
0.0907826415480034
0.0718331764910983
0.0804752106741538
0.0690251117375587
0.0850575160961178
0.0823944179563658
0.0804857083323246
0.0790787973815623
0.0777914522006038
0.0762756563344495
0.0870905360263763
0.0822155142872429
0.0723772809139247
0.0986522036805538
0.105287337213929
0.091651686196162
0.0877619493104577
0.0718305690663907
0.119900475330955
0.0799795493619939
0.0863602990306429
0.0763096413335275
0.0833456097969272
0.0806341040172465
0.0806205018623606
0.0997640003650079
0.0923203226899783
0.0801516245334489
0.0931012119448648
0.0733004932721754
0.106325618599983
0.0947797055599162
0.0907043099041931
0.0824229064275815
0.0978458155640431
0.0800339885024982
0.125240112042372
0.110094951086398
0.0989933519810571
0.120587460175091
0.107334350871434
0.107541088970163
0.105865951003838
0.101943643847568
0.110806123199853
0.116834306854963
0.10835483228545
0.0990422464566961
0.116403800365377
0.131494414527384
0.104350501939413
0.115659920685505
0.1084194511772
0.102753108996075
0.139951083830142
0.158698920628071
0.138541385672717
0.120352913652036
0.116749016759987
0.142712391437625
0.125060983086618
0.118614489942408
0.120902461445457
0.116973846708726
0.122723972618296
0.11914986045932
0.138397584642536
0.12582873983955
0.131775565934141
0.133374627809691
0.1297756983462
0.147117662609202
0.175721532617577
0.177132755681542
0.138854775207709
0.180888236823343
0.165572864371623
0.15135024524696
0.150518111578845
0.140019811851289
0.161413299870088
0.148802208804507
0.157409331539438
0.149162013317172
0.18466141252116
0.174844016974966
0.163704822075075
0.193028841581375
0.164319647605876
0.183591670598091
0.161352073292429
0.339750487087615
0.213768855696316
0.203839810725496
0.214548012980849
0.196521244594371
0.295455678112786
0.233165400538186
0.233658223351066
0.238035002330901
0.246888976378811
0.256636359971502
0.268336731801252
0.269806341168363
0.292023454342664
0.285962559789853
0.291055889232965
0.298390865116852
0.387046644708307
0.356663913129155
0.358756875244133
0.331460921952988
0.359294208554102
0.368199583987748
0.366317893523019
0.367050863336812
0.383704734580403
0.373255683263081
0.470444696376792
0.406344376025208
0.429988066459015
0.416499690594782
0.479348811430692
0.434624370592494
0.503153689919009
0.49821902445383
0.478897118792434
0.49110026189341
0.494058812060611
0.512392821320089
0.495680731955636
0.557313853486741
0.560526552138975
0.540888535499791
0.557628443558718
0.554036317217622
0.572343953648631
0.56584042789123
0.595160083393394
0.586063200006187
0.648212949404259
0.626153445804366
0.778371220087096
0.636788405968142
0.589351045685524
0.601662621968873
0.590205846675262
0.648131209948454
0.631557073393202
0.633032170561659
0.652961300877414
0.600880468773394
0.620672113260344
0.601384490376776
0.612238740894455
0.598460025315408
0.634497888320536
0.59302549667514
0.637507852877438
0.625799295189748
0.646219607015961
0.718646757091993
0.614899720616071
0.609401982218678
0.620126776649188
0.608923679725276
0.607274068845062
0.604466473819292
0.612946839986417
0.637175044864566
0.597179948396184
0.596246149094589
0.583620954299202
0.615594752267384
0.60622701146838
0.553510094134344
0.570608195461687
0.552831818906551
0.55285173618105
0.54869445120948
0.54158435949007
0.607615142110243
0.52687129274799
0.516125279596399
0.524356139032222
0.508573832361069
0.509328590148901
0.500666673881477
0.516425119058081
0.517961166518301
0.495134349297019
0.508191260719591
0.503442090328704
0.493200794031458
0.495991377431964
0.501183173827569
0.502495463366503
0.495456698321747
0.499947961425323
0.496435207675968
0.498117162028871
0.488674339897172
0.495191801028688
0.494676085653676
0.499955336339645
0.503711623306571
0.505621669199072
0.493154860753105
0.499862211868864
0.491992649999912
0.49885109329677
0.495262514817955
0.50568549052196
0.490835207023685
0.496466273978585
0.493639375813442
0.498995800817168
0.483129263369005
0.496768796785367
0.488001990977685
0.506892445442629
0.485225016536522
0.505011979533101
0.491406021021708
0.552099107390665
0.526159216369469
0.481541704481502
0.494665478796876
0.472385658156201
0.495041125648451
0.468349869991424
0.527591962181188
0.508321885883675
0.469989344335217
0.475438204073961
0.462854166163458
0.47377992873546
0.488977619460973
0.457576870606271
0.479700750743304
0.452808315445268
0.505267307044174
0.553665178974582
0.489886783110875
0.567927750686573
0.473233891932008
0.466079001611125
0.43838507900436
0.512128433678543
0.44524040314221
0.456031231608065
0.44984000199014
0.494743271217389
0.469026687121428
0.448111204767428
0.459110144627535
0.449489563197812
0.454998769604497
0.473375986621132
0.444087513456267
0.452873311132848
0.48725160354551
0.439752141399827
0.486458154150689
0.485028226050626
0.453004406010863
0.417638311062096
0.418326780356067
0.420595624139738
0.410481075326195
0.478536334561522
0.414806028476715
0.411571580584927
0.398875720622559
0.382166061510346
0.393683914546175
0.397426784094968
0.408282650909293
0.374826061593435
0.433251754378193
0.367898627154304
0.384696709395813
0.391995985375853
0.396322572939089
0.416737575535029
0.367985679730824
0.362680954849267
0.373340078628628
0.409796413080876
0.355935053014145
0.367425743740891
0.33844877414599
0.342774491464962
0.359582485631336
0.336778979871543
0.338754964776958
0.351665684849288
0.328760867823495
0.381071257302368
0.372911747765861
0.372399062351096
0.324767324078703
0.302536275793853
0.306668388564607
0.303439010111598
0.308090861699877
0.30062081990498
0.308655100302685
0.331729363088356
0.278047151570011
0.369590017474448
0.310694293543075
0.299614785448978
0.308220538521887
0.30711684588218
0.311110531910892
0.337908828026007
0.34513610835318
0.337806376810922
0.31261582760343
0.350992587476259
0.313264943031468
0.33333966753189
0.320735123396068
0.342006984387651
0.328726557342204
0.35616524888563
0.353080771672273
0.359600116347505
0.358489207921818
0.382411970873712
0.36571329577268
0.432558302785624
0.374813085830693
0.434541292203006
0.425044877592448
0.468076741214528
0.440526960022662
0.425453338228881
0.442495544066441
0.443738730961782
0.448863774305755
0.460300822580828
0.453203286578201
0.510566969224055
0.464572688798539
0.485357868372979
0.473308497845253
0.496961012246783
0.488609640947943
0.529060827366355
0.523118151445405
0.551157600200916
0.574169396722455
0.524091862701975
0.530978960892433
0.515682763642991
0.532487011037921
0.537653136002443
0.522459593544482
0.54532161382997
0.529609990652674
0.565873767818031
0.540889600426969
0.532598189114577
0.544650146160808
0.546610080712007
0.547527667971836
0.558099515480063
0.554231526202663
0.564873795613955
0.560140522100612
0.573934592486429
0.544432752272991
0.653612091359866
0.5987814533828
0.57610601782442
0.593561118491141
0.590136090780825
0.598815820818558
0.586141353478336
0.610982255618208
0.614837359244443
0.605264684255916
0.62289719303739
0.615287953392012
0.632587787988177
0.619616870085048
0.659847467982237
0.61744846121527
0.639732886075713
0.649194025604876
0.646809884047127
0.711369793048508
0.648460384837813
0.67774067323272
0.66379488280707
0.662215293768894
0.661696652509221
0.659668444277799
0.670199907437169
0.676038380722516
0.669758202319443
0.670117090752812
0.669270262095863
0.668284840766794
0.674009726624447
0.66378556433026
0.693583541575237
0.671223258704703
0.672145522587636
0.665405863566023
0.6663475455419
0.669419021467828
0.691087944060769
0.676958192487291
0.662671899867923
0.672201969092519
0.669841091046152
0.694321852627092
0.685041139066826
0.661936382890662
0.664224732579725
0.665097596278266
0.660520967042298
0.662000892636955
0.660973004532658
0.707356128475084
0.676499164137899
0.678235475925555
0.670189006493541
0.679417304317215
0.67781004684228
0.675964956387376
0.670344951372942
0.682562640186731
0.677052895160693
0.700075864593232
0.692935600282455
0.681765584173845
0.702378160382505
0.690847205875609
0.69828212786792
0.684301107078505
0.682152910963609
0.676865495914089
0.664064490038909
0.686229877331396
0.676435290096399
0.662751769947561
0.65015857498975
0.653939041169628
0.635319291814565
0.671760571060244
0.648252786638977
0.638262628932554
0.638569598020503
0.612590213782474
0.624163355296687
0.607768256180457
0.609079223487213
0.608360645541132
0.611108192893763
0.596407286155596
0.596540952312931
0.595053228113753
0.591171924811293
0.596287969282356
0.598864472771373
0.583558284831334
0.587929856712876
0.588410549969033
0.585905742652198
0.58624689814433
0.584045117432249
0.580973912778537
0.579640216685487
0.589501617815808
0.598768487228629
0.594854635579432
0.594344854165298
0.57555200172493
0.583840062376665
0.573189515977154
0.58192265757458
0.57875708327259
0.581322325404392
0.576397201793778
0.580346366601469
0.573876155545361
0.576989060875323
0.572754021519524
0.579662859740136
0.574581452968061
0.57952740528206
0.575909235831348
0.574371466710304
0.568586482589263
0.573644938619584
0.575976393051947
0.576664960496062
0.58029316117124
0.571677564436863
0.577533875123874
0.575365256277573
0.578496607368365
0.578806337492926
0.570548886726634
0.576106381062223
0.571967425835531
0.5743542336277
0.576056101758168
0.571985917325213
0.570328247434571
0.570657805710169
0.57215481625208
0.567890720501842
0.559650705756926
0.563151731695747
0.556579323336224
0.553425666579659
0.550821831135848
0.548165646199589
0.540390691723027
0.539865409940702
0.534833099612513
0.528944895479159
0.523568327744223
0.519387293520779
0.518768809570267
0.506699343071229
0.508025347298905
0.507645470553068
0.508603522406984
0.503574635559657
0.502872536869175
0.500793779977966
0.498701957400967
0.499661551265736
0.498283805459434
0.499995301216419
0.496771429078134
0.493074723265222
0.493782346456429
0.495188891443578
0.494873757407087
0.497934925325581
0.501637528818186
0.503060668553982
0.502219377847806
0.503419000137566
0.506435295923843
0.510976837923094
0.509194479612968
0.512830493957505
0.51396947072416
0.516023297916191
0.519935002354141
0.522391130882715
0.518733178804899
0.519908380965417
0.523669017043008
0.524640298313559
0.524284188263668
0.530450244128082
0.530532204558336
0.529791740997998
0.526671053324548
0.524524967990074
0.527437471642164
0.529038743523962
0.527675163284094
0.522921892979329
0.522527499870946
0.522683537950958
0.517788190977122
0.517819637528734
0.517369460648166
0.51992619164411
0.516010656215025
0.515999237240725
0.515803728904482
0.509836615288442
0.509514570201759
0.507104986733675
0.504261694327212
0.504203358911375
0.502421654634089
0.501823785904557
0.499193397180829
0.495049153751417
0.494769061755132
0.496605867132699
0.488831145838411
0.488808410367507
0.488708544830235
0.486301158524285
0.484676817027913
0.48015934228097
0.480209083392377
0.481645212558774
0.477335760935467
0.477613153174648
0.476537950077154
0.473691455030007
0.468173616490649
0.465979545333587
0.463966716632827
0.460556636206616
0.461218826287613
0.459216658550382
0.449987166568637
0.4482731375676
0.44683843013164
0.443327240408002
0.440472843349115
0.439140221866706
0.435323995289533
0.430287495753204
0.428030350845671
0.424686716181534
0.423637054327483
0.423157386935115
0.42041912898078
0.421033444477419
0.415997869640681
0.416905014131685
0.416395102747492
0.415532961091499
0.413821582377792
0.411986452759877
0.408021593433811
0.40734122170644
0.400863370262584
0.398232861623846
0.3941329783254
0.390249204508525
0.38596141820449
0.379519898083465
0.376213052801801
0.372501535455429
0.367498339730297
0.366892860851096
0.369686953868898
0.370302228512021
0.370462522116835
0.376355784906471
0.384754563865906
0.391571400408915
0.399808951891715
0.408532045842448
0.423372845063285
0.437169205798166
0.45250052695965
0.468669303745582
0.485378068144445
0.505008542528461
0.522531100624978
0.54496003646916
0.558928840620699
0.576373993394799
0.595023584633283
0.612343741940977
0.632108227450961
0.648043671809916
0.662938768167048
0.684166867767836
0.699836143097004
0.70955995532462
0.72688505217724
0.73949212802382
0.754914817558588
0.760863622154827
0.774822270769635
0.793289420076932
0.798845052698352
0.807540380673719
0.819874901263915
0.82053970988414
0.832602137233041
0.836195534762576
0.833338194260736
0.840445790609168
0.845033581983778
0.845039788141635
0.844523927532125
0.842179304303354
0.854496307781588
0.849013699845429
0.844178260078333
0.855503999895852
0.858082239648375
0.856888203858871
0.857143830870382
0.859127789229341
0.865554602421867
0.866661656712429
0.870208942379747
0.874785455793456
0.882221279883843
0.892099821093156
0.902918236006299
0.911678481804988
0.919461581737222
0.935764619976087
0.942949258017801
0.953515755142522
0.957892814987974
0.974959657040479
0.987233624579271
0.998105511739085
1.00570953954466
1.02333333299687
1.03543370487308
1.04925824473434
1.06056384676929
1.05772451696215
1.07121217775647
1.08162622335654
1.07780119837332
1.08166935395921
1.09649776876428
1.07247107113719
1.06875916091828
1.06733180750374
1.07959678358338
1.0697821107673
1.06033127414284
1.05744663695518
1.06949777228073
1.0718332442937
1.07582209971643
1.10074998995981
1.10848858924884
1.11274216384668
1.11657750037643
1.14949796243913
1.16251493967005
1.16627124262634
1.18730320489955
1.21663773054138
1.24192144734802
1.25363524779439
1.27301431821672
1.28051675623448
1.31184000223088
1.35677399055827
1.33448354338439
1.35178424871373
1.39567071963979
1.39094673922538
1.42590162716014
1.43420624835941
1.46011035102243
1.50567251266807
1.54652052045271
1.55313110341158
1.56440575067152
1.59721135208784
1.6162525189225
1.61805210436337
1.66139450767874
1.67892833665688
1.63448805723597
1.70708408198848
1.73784865320031
1.76027197861783
1.77831774792367
1.85607618139072
1.78678200112929
1.67377656258919
1.80444378075328
1.80694367270885
1.78182592741114
1.73538305810835
1.72112854674507
1.76965712270048
1.75659731700715
1.74537928095315
1.78630875058499
1.73246573399794
1.69705318186761
1.7210343554217
1.80260206591294
1.83871348175497
1.84346432727161
1.79765658444804
1.74655458886572
1.78264235010025
1.76730351803396
1.83458307437165
1.9037177314404
1.78220867638657
1.8219740194829
1.84520239648495
1.91908121543468
1.84189168815825
1.88046673309905
1.90992703205262
2.04518223449559
2.07531344851672
2.06818770099704
2.11105166176252
1.95780177800005
1.86824957724844
2.0096354733377
1.97060987038616
1.99485922945714
1.99320105076116
1.9895170778884
1.9223413781001
2.03019553514096
2.18446202372928
2.08077774042276
2.14512925547179
2.16479421583135
2.04535397761783
2.1240647471674
2.03355443593984
2.03573870014472
1.98260379349661
1.92775660000178
1.92658395191712
1.99229599129225
2.00858356958722
1.89405073981987
1.98436163928959
1.93040371029335
1.82427803423001
1.79972111410897
1.75968575935445
1.66423955620507
1.58908911074237
1.56429016492001
1.48451433538566
1.46700765634747
1.3920625501711
1.38034760369298
1.34297111520814
1.29650279664019
1.25530882809843
1.23330474022484
1.2258485198795
1.23082948083956
1.195216477823
1.18998504536208
1.19565855079541
1.1903194978781
1.18685902823583
1.14317954057169
1.13433346388897
1.14311973388337
1.10923385311519
1.10494606568497
1.06904233738164
1.07145400891924
1.06099005512737
1.03475810599815
1.01790745728236
0.985714860992738
0.973502852450195
0.930099999236005
0.886120105504846
0.874512424563668
0.846715343218929
0.809782194671798
0.76838564556059
0.745153222191473
0.706466872817211
0.667510894987628
0.648795224684234
0.625782614198105
0.592281960717848
0.56492217990128
0.543715548360322
0.523471792401835
0.502324396638381
0.484550098847765
0.465811847712066
0.452869360911372
0.437739614014097
0.427577652121696
0.417319961109102
0.410771847256235
0.400209706683762
0.393076826491729
0.385728530789066
0.384149493016137
0.383522156128712
0.379748975735498
0.381380343525815
0.382061020289423
0.37817393950713
0.385628215803725
0.381263919525125
0.379197117276116
0.384023117391639
0.390669549235114
0.393208262316835
0.390471479485949
0.38844313456904
0.391381716516902
0.394151025302133
0.388716576507225
0.38597802191322
0.381937770921524
0.377769879317957
0.380819458352279
0.372193756513544
0.378470513392487
0.369394769912553
0.368274954882897
0.365385342864318
0.364931956957891
0.364527571677785
0.365336754251623
0.365970617074195
0.372470594283022
0.375599107273368
0.3690519147303
0.374062282331357
0.383554805157935
0.379611178638052
0.3842108639356
0.385136769515768
0.390100343347049
0.393984267773208
0.403777572848849
0.400857030655979
0.403674250924232
0.404259955843913
0.408256504382625
0.413200446261523
0.415697752274671
0.418451493344332
0.410865201451891
0.409443484332906
0.413392782160986
0.41428865677105
0.418397827686587
0.421420714318829
0.425210740689348
0.429673950661504
0.438218507264081
0.439899196179188
0.444617863693233
0.447314420887513
0.455938334575964
0.469310926159942
0.487492687716316
0.495836227462782
0.514231386633425
0.529039341874522
0.535476536386858
0.544369594586599
0.564571660115302
0.568656686950466
0.567476700314238
0.56026979558227
0.564442168847565
0.562863407504248
0.543168646380999
0.536085454423456
0.530432829157396
0.516981191821231
0.516357011482447
0.504412903348714
0.500746322326587
0.499847266360711
0.497418970550084
0.498963593437678
0.49005982597868
0.491064343439112
0.491784546791039
0.490372889163643
0.505720515592667
0.509869392019655
0.49738646991116
0.499560578373764
0.500202701006923
0.482269776006479
0.478081396797505
0.466248617732373
0.475738783254378
0.472093035712074
0.457930631152534
0.466120603934158
0.454254872275235
0.442013524145978
0.448872827971938
0.453396843035534
0.44865813110878
0.436372161128404
0.438356949607477
0.433053082921823
0.437402268795171
0.435385319862368
0.427567589643223
0.424052465083785
0.422523148913153
0.422431613698346
0.430641425881099
0.413878329197429
0.42068376008323
0.423635253918829
0.416445713350132
0.412055862186266
0.406104285242472
0.407804846850056
0.401899518591998
0.404399078620703
0.405737875417449
0.41291093069811
0.410197020914819
0.391168763855353
0.391738288477646
0.399189017176597
0.382497164227237
0.382061161741311
0.39651764955551
0.393332843153481
0.382773617492554
0.385504063426473
0.397189665037354
0.384909739648957
0.373750491048354
0.378766305330557
0.385531772271839
0.376888756242927
0.381195633821472
0.387478333384675
0.380672588904331
0.380310044012671
0.383893841856286
0.381862047529394
0.395976646859025
0.382859850403844
0.387094981620183
0.385809268074464
0.384947229748011
0.394004382712903
0.404953018966305
0.413901879328709
0.407760979700376
0.403198527633778
0.4049467717363
0.416526869717372
0.423313562326069
0.415534884214827
0.422563136254277
0.441875354710875
0.439561211493058
0.46528271226974
0.46298724323636
0.4443938416956
0.459614516726195
0.470896005396271
0.481063432146099
0.500652636711759
0.498823516711255
0.507123021959409
0.518761491877389
0.540915916164272
0.5722907060944
0.56659933415853
0.559211487542786
0.603662872064048
0.630841549320466
0.634143861444023
0.657046609311281
0.649387233252951
0.66179342281722
0.676400470897777
0.674384656385835
0.671886249307118
0.697960309059554
0.674109283059965
0.672015170946817
0.699838684090454
0.694942849748391
0.698461289548975
0.684712733026488
0.661382752764727
0.663155076034247
0.658493054176978
0.650531168800761
0.658525441741498
0.670584519697239
0.708226869275096
0.653613914007132
0.646907387999101
0.647333925224253
0.680247864637615
0.674011176105172
0.624486145672798
0.636136543234833
0.624134864253121
0.648337663825716
0.636421604913725
0.58826197120261
0.636993919952657
0.603500272200458
0.594119008405515
0.595982408761303
0.585330783758583
0.58654788438119
0.614713769404646
0.593159822291703
0.598731083735424
0.584030267594549
0.573475277786502
0.586700931001884
0.580685570585881
0.574853601667419
0.613211452149552
0.661026216548981
0.636392754085201
0.589161743219626
0.571882258396496
0.585651458199492
0.613014925335132
0.6188387412286
0.626950137895471
0.594801074828967
0.599460116845092
0.592916792665892
0.653791075046239
0.664585993126773
0.612686988460917
0.6601925487062
0.631409032049672
0.582730665125923
0.675844355246734
0.665232542517459
0.641320086665584
0.644774345808488
0.622879220484987
0.641377364629588
0.670616119723106
0.707018245080561
0.684394823424142
0.641161006282209
0.647956402311355
0.639275248984905
0.687010980135053
0.726230081585044
0.732293786883713
0.743345792489734
0.782428635806807
0.740325007581266
0.697131272763581
0.763149619955544
0.906376810634162
0.774185952842417
0.73085321621774
0.790004394554154
0.838675813154608
0.811938392690302
0.884379662047008
0.886295532285185
0.922927381303687
0.796809948713607
0.820043149180354
0.809871772107164
0.885633647988718
0.802001395388961
0.815729423627686
0.77038538066735
0.878284849315162
0.817584109942297
0.86254996835964
0.800937843031734
0.778187140659144
0.994871181133379
0.822285166603702
0.722620143599364
0.816823529862585
0.749980329796042
0.763275243849407
0.699637108531554
0.718893855208511
0.695388030688889
0.808619916900806
0.834103054220044
0.745592131143023
0.713255905065612
0.883153728517952
0.741555328281408
0.753643990033399
0.66100162268876
0.943766836660648
0.842404027195432
0.909635168748088
0.887755709930989
0.77699326892771
0.701278843547588
0.88160053884166
1.09555493707005
0.831226006534054
0.602129166044269
0.828182590280887
0.639125330934569
1.07136330079496
5
0.657620275628574
0.846789846034795
1.54522265080454
0.653670355142073
0.723497262426282
0.695039808450699
5
0.70637643102154
0.946034125102161
0.749489677157321
1.13921330639586
1.14021374471644
0.83146510777832
0.565815239117899
0.660564200900226
