3596
4000.36533379555
650.420452594757
1
2
2
0.0683569428289704
0.0685006577599244
0.0619889443227997
0.0738836574364414
0.0722840153769478
0.0680477733029958
0.0619201299259386
0.0700303954511627
0.0671630860097421
0.0703363894179572
0.0611979572890161
0.0672838842802046
0.0614476082271622
0.0716410926238268
0.0616920614461686
0.0631966097965134
0.0689633519088932
0.0634659212656281
0.0566396978759982
0.0754779213826908
0.0572867647637558
0.0723303694082091
0.0635595172577359
0.066645348315207
0.0620275368197841
0.0730494869211433
0.0597571573870647
0.0655637301109379
0.0632964567317994
0.0698282205969862
0.0661669349378652
0.0763390067240421
0.0651596435535128
0.067032010016748
0.0676026553009041
0.0702386507292444
0.0603136398042269
0.0660705270196823
0.0661610684072493
0.0712542065447828
0.0688350829032529
0.0675233571557111
0.062232752814461
0.0716948027169247
0.0629086646508671
0.0659610601467955
0.0658077941401915
0.065178992065704
0.0609318920437786
0.070421057697277
0.0606187299250517
0.067326082961842
0.0691031270811211
0.081310005952181
0.0618484861661634
0.0778794118101539
0.0625068734962858
0.0687053623581654
0.0596581675329228
0.0648219500518279
0.0683948640583088
0.0785221749297652
0.0621624201527827
0.0737435318527615
0.0602895124550168
0.0606651425513764
0.0554326484217613
0.0705556827059628
0.0570954021308833
0.0651297670060959
0.0603451095309129
0.0622697955376311
0.0743376095315682
0.0747985257596148
0.0609959128325209
0.0669485294952605
0.0506877172619957
0.0680127260369882
0.0605431493459324
0.0671687241115749
0.0633236417124016
0.0688314525386876
0.0584991867267252
0.0616797027851244
0.0563878724516339
0.0759746222772599
0.0550946741539082
0.0614344993587261
0.0709188045220245
0.0718320166565904
0.0547003643522568
0.0555625267394982
0.061014743524953
0.0576898451197759
0.0499479048587688
0.0658649016718425
0.0586191030196068
0.0627175628006976
0.0628641368190771
0.0594890254744976
0.0702645724435072
0.0607417926997294
0.0938307954535372
0.0526236597951842
0.0802985466576692
0.0853075674491623
0.0324083129860402
0.0930513666868662
0.059246929411013
0.0732419424402591
0.0525948692360993
0.0583390465652839
0.0508799582157152
0.0661923742315811
0.0418009876960045
0.0719552118245626
0.0816772888292111
0.0649668857389952
0.0597190724448171
0.0575913007794152
0.0504734518267274
0.0647448592919653
0.0874434092345145
0.0569823944279282
0.0614282490344014
0.0599544884258103
0.0430766772245131
0.0765364810948699
0.0810528945726156
0.0536565153863678
0.0670798419979316
0.0568889692129021
0.0485067257772819
0.0464672200984395
0.0729565811733412
0.0737941098720748
0.0589242988830983
0.0470510445977873
0.0538588544574623
0.105898799409779
0.068727967382239
0.0613256544705943
0.0419508076606947
0.0586561216687241
0.0848928234256207
0.0681025001343906
0.0464601536226092
0.0657488145885761
0.0686031836332808
0.0560257376167683
0.0490887780236175
0.0540466571189519
0.0639052913615753
0.0600447309951777
0.015008560808672
0.0703384884490903
0.114192559393766
0.0492410838411514
0.105565594541619
0.0674828884566234
0.0677507201769245
0.0577194294952343
0.0484201596827834
0.0606699919819997
0.0525644651509321
0.0530439834520792
0.0533965420620196
0.0802724316835095
0.0549856755301457
0.0580912954527481
0.0741168751503987
0.0663239548232656
0.0396406874534542
0.0997886360492563
0.0718641981239376
0.047320146787091
0.0762686237365425
0.0703662841221852
0.0529615954625189
0.0531107861002913
0.0784676139271161
0.061366596019252
0.0599756584772778
0.0626420164143372
0.0537289303817184
0.0679625383100882
0.0632544633585544
0.0563666398084412
0.0529259967984834
0.0357629449430316
0.0519486389339331
0.093987256780942
0.085517140736912
0.0524483110335031
0.0575904157075853
0.029395298308403
0.0659578839443393
0.082707485059231
0.0481871147177449
0.0635985347911509
0.0508831609109823
0.0571980915245904
0.0493635993697559
0.063402550359526
0.0534328033840099
0.0296777580774769
0.0798847274695459
0.0766141246486675
0.054453233181817
0.0584661296734199
0.0540541493198802
0.0496781840115295
0.0810090753260488
0.0942819836189465
0.0560308019053069
0.0585543624425272
0.0443169802108656
0.0693271700912208
0.0696352602364973
0.0650023567360779
0.0576734620305832
0.0641505907317772
0.0515965283131022
0.0626076395770753
0.0546685199842313
0.0643354742123439
0.0535407385521794
0.0609925251701069
0.047729980525126
0.0599481413124655
0.0598654363357047
0.0622879368301108
0.0567272523892312
0.057497542202289
0.0434586650754833
0.0605650328319689
0.0720188425771486
0.0651276231946164
0.0507972499020597
0.0503285410542179
0.0537719382388591
0.054933496276437
0.0547218328052363
0.0599344597688169
0.0569514601515241
0.0512036594692916
0.0789034831646204
0.0660406327795198
0.0530159014811204
0.0578683669167958
0.0556083045711028
0.0765611228275468
0.057112831047712
0.0703703548135175
0.0484339979566468
0.0615464535744858
0.0487018034330992
0.0804679789696034
0.0622307584733882
0.0525976371747834
0.0604745872010225
0.0790254009950065
0.0481903477745712
0.0590823668971165
0.0284733361596683
0.111344096868965
0.0677824991486759
0.0418404064195819
0.109900843585623
0.084918678134521
0.0533463386356211
0.0635261501617435
0.00760426834660008
0.132206058692191
0.109072841180696
0.0680518054700918
0.0546597052348028
0.072440608665537
0.0557631745400827
0.0607471155626566
0.0602671553449479
0.0609203133591966
0.0772515228838371
0.0810727974103866
0.0974112061608303
0.0519454810166459
0.0585271420152457
0.0948738615404105
0.0594322455028447
0.0761997045106963
0.064438594973174
0.0667630727885815
0.0635310920244526
0.0816029953613436
0.0656569866670486
0.0749940912326852
0.0506861697883227
0.0853261518649275
0.0726400845854206
0.0683510490579955
0.0540878397478815
0.080616494435479
0.0650038678582383
0.0711897473806847
0.0661768638653475
0.0746412537099054
0.0602532398904897
0.0654023682235494
0.102094641582464
0.0853313871919933
0.0528762478270454
0.0933233747183441
0.0684065425718986
0.0719144366963224
0.0622387310253016
0.0763885926410324
0.0693971917202399
0.0679115568230739
0.0512671668213349
0.0949262929868172
0.079424989261785
0.0790279617823319
0.071370909784985
0.0738513170692133
0.073894312240162
0.0818656097248152
0.0741024481680976
0.0727189737675454
0.0711315980679297
0.0739247197451123
0.0719849228086593
0.10175584102753
0.0578687532038328
0.0897982948123054
0.115819741330662
0.0861751755179304
0.0800759478208915
0.0880882618656681
0.0900490643319412
0.079546946523084
0.0812790799344983
0.0869184689540764
0.0908668053194712
0.103782460277098
0.0945360869306292
0.0917586166692825
0.0731295358336486
0.133786977834738
0.128778831704718
0.107197668803973
0.0967813922660399
0.0861599438741572
0.0942527616398422
0.13249158798259
0.0975708939713355
0.129655127510915
0.0941562349387263
0.113703464345401
0.101795998268853
0.114683080271798
0.110084947754248
0.119244665637677
0.108667805336585
0.114047603642741
0.115201698036338
0.126448452683066
0.113633710030371
0.118460029756691
0.146683975314418
0.139255524621415
0.118985993784259
0.134499388133633
0.117406988662219
0.147341563139864
0.147460034738873
0.164718636739597
0.154851347398324
0.145177619100614
0.163333153112465
0.149519488651481
0.152923500013224
0.147144827935639
0.145378558818912
0.164039458869114
0.161105336987169
0.162968805997058
0.163085732447857
0.169571279900643
0.169105590766736
0.170195941617103
0.17147017575738
0.179751003384988
0.187167154787814
0.187023433860993
0.175282421758451
0.178123397983428
0.166199123063802
0.236197042336415
0.221837285212256
0.215787144014962
0.191967667445907
0.212667356415999
0.187544839311693
0.210500644618026
0.199614188508036
0.214524958202051
0.203184536859899
0.250749727776859
0.231164048453688
0.241321494229579
0.235414221414226
0.215302671460391
0.22651644609965
0.244345149063351
0.232332515715552
0.263966175962708
0.242597765292494
0.250093294401311
0.257548377678646
0.274296626939525
0.249401585031813
0.28456595436557
0.257885480462026
0.268784510298954
0.264483800302894
0.268157277916445
0.260724876154535
0.285211560673053
0.280388495460942
0.291510642174631
0.286075942553601
0.304543682127965
0.289077831735309
0.31980185173065
0.299059188363039
0.303803406998361
0.309580458391538
0.314249305927012
0.305192632548695
0.323622840830596
0.328891823270013
0.350774420610129
0.317314580414165
0.346751324838953
0.327242986882702
0.346958034505288
0.334716679680027
0.357293379807058
0.344628446205217
0.36395757899739
0.356467845846504
0.370132183346561
0.340632981925232
0.372156109855842
0.378659429964173
0.38118568203769
0.394468715340894
0.401488216652349
0.374718614207768
0.419772334958056
0.400494496866306
0.415300409026016
0.424825090616643
0.449398193256851
0.403401278140574
0.44397599067619
0.427342763011115
0.444066487462076
0.417845252282153
0.436413002053317
0.428219198838893
0.441193506758445
0.442323025845345
0.458016426399471
0.447934791292734
0.462562231020464
0.461599601140498
0.485058307480556
0.469546457956859
0.488232972135373
0.467602411300417
0.495629466762137
0.47207382295119
0.502525535852356
0.495657954745187
0.513917271350525
0.504883453000118
0.53109283285529
0.514340496096033
0.521233695242208
0.521030897927144
0.557216881392815
0.522470468947535
0.546598599269451
0.543810157372658
0.55631352533095
0.535906297278777
0.55641129945323
0.553989505241099
0.585126853918673
0.56529895304939
0.601473313523568
0.571349503730588
0.599138894168973
0.609768400827659
0.627633577558489
0.585348595198641
0.62846269437243
0.589917756277707
0.608069316524458
0.608644936832157
0.657220318054549
0.628153557786775
0.652182324626198
0.641277715871546
0.650873264260403
0.644684624466239
0.672615998633026
0.635450849609846
0.688742111904517
0.640186833029628
0.675715822415212
0.702795909848644
0.686574217347258
0.666008940642398
0.72953767865172
0.700446812584335
0.709506442751441
0.691458235282801
0.704322466325297
0.682648246553542
0.743517534630766
0.689978201734876
0.747262023670722
0.710044208324323
0.735661447252322
0.735826113406436
0.730119498323861
0.716368281992516
0.796256806147672
0.785780078042779
0.834162473130072
0.762144955508498
0.773052572882313
0.775248803643032
0.791576582491014
0.775380975439574
0.814876423319445
0.801612121584485
0.8185222642001
0.760241979078535
0.825528947204549
0.838080284519126
0.830818379120353
0.81322766776853
0.88661523238772
0.838594421276948
0.836654482486012
0.833289968194218
0.859923793112123
0.831470804739096
0.913668023666212
0.845233963578954
0.882749266745032
0.856849898313413
0.92543325320146
0.88401392491014
0.872834861414348
0.867858369631647
0.953962849793149
0.907265850286845
0.927648525574591
0.917995054689301
0.948015049057547
0.935727236842954
0.987281618371563
0.946499106324487
0.960270616688842
0.956524786124575
0.970737753238723
0.963624792085494
1.01456860330574
0.929705211697349
1.01669036136886
0.971859346605127
0.97002398973399
0.936110620511772
1.05293165067712
0.979091075833419
0.982404930713246
0.960507320227288
1.05276486941942
1.00969166561463
1.03179631759814
0.9585612631361
1.05031797484707
1.04074366271386
1.10787704628858
1.01097210389457
1.04812284666143
1.05600676975044
1.07254281844077
1.00086642427693
1.08597254948531
1.04349380386321
1.04670480995119
0.976431866202595
1.13042935404757
1.0567152341921
1.07102823138562
1.1035987278371
1.13681034497991
1.11861614580236
1.16926903204302
1.1012167966518
1.20263247536936
1.12305884417809
1.15793750501781
1.07824780039279
1.22485098679128
1.18622970193435
1.16358692369425
1.11106914600931
1.17435481148024
1.08814274091493
1.16526290940138
1.20108349073769
1.2867496066522
1.1683613715056
1.2534631100762
1.19743310020706
1.26970401864077
1.24643554711595
1.15781681936499
1.12986055672081
1.2919764882594
1.2159171397241
1.15891065671889
1.19508367055794
1.33445934978268
1.08022345605195
1.20702435448597
1.19772389202713
1.25572684290745
1.22551215187406
1.28015470542159
1.29766309601026
1.28852428857183
1.27356053637781
1.3577388917062
1.16642826273302
1.35499002381132
1.21014147332746
1.24046823091944
1.29298899434351
1.32238961655821
1.22256933862812
1.32904141702619
1.27632539586895
1.31070902442752
1.35558345152795
1.35397092543592
1.14751840471472
1.32045810076897
1.35062619599325
1.34163806002086
1.22238550328815
1.35692803886455
1.33207180631875
1.36681253189607
1.33848958615126
1.55970328728177
1.28020822953818
1.35107855293294
1.23519908223748
1.27411385735911
1.24759020105021
1.36150786437296
1.3064319259107
1.38732962468694
1.32703672461459
1.43207149561049
1.36475637602398
1.35186180772658
1.39694211487735
1.43416159648876
1.33167835855527
1.41221299791621
1.29396450739205
1.40154947909395
1.26636692401013
1.43634499803898
1.34746063975923
1.39425248569705
1.41739209214299
1.39601328459789
1.27512756668555
1.44182656134115
1.34270328831699
1.34612974452754
1.31189340387471
1.31213217818087
1.41469568975453
1.5051075117253
1.30981420114193
1.46219453822614
1.32811520794018
1.43973652006846
1.36619982116951
1.49520427178733
1.40501582113144
1.31914139913049
1.40337177240286
1.44488741228508
1.38615630701349
1.58697589634935
1.38665033154504
1.48883364700978
1.32669369918898
1.36772128534764
1.41107166489713
1.51690121168021
1.45124360247368
1.54596344670316
1.43241942642125
1.60431151254404
1.35801106303428
1.4400847303629
1.41702394749593
1.37394722430918
1.39722636234839
1.57831096831712
1.45255435175037
1.33723363114547
1.32870313317216
1.50251733621818
1.37208740650573
1.44191543788436
1.37645240585105
1.45042327409159
1.40071978854066
1.39773286513595
1.37866537100273
1.44153554645857
1.36236530315077
1.65234201533783
1.46320531701869
1.43535670962861
1.51245724320673
1.53547663901219
1.33581555887519
1.40954490156063
1.37476145650039
1.466441343599
1.3782670288186
1.41082965514536
1.32977460665208
1.55814635798612
1.34085064131951
1.39084319343912
1.37866503148356
1.61658190015971
1.44631140447658
1.42600546652477
1.44153018212451
1.5238075581908
1.52197073827514
1.53274243726656
1.33005919352856
1.44107128220747
1.33746022473727
1.57385017747105
1.46655587673796
1.51454602011948
1.31983202757602
1.45307083873578
1.36061974176725
1.5059794184704
1.38545540849152
1.43012052292238
1.4750953859278
1.40408600321304
1.44757774981575
1.43840974598297
1.33953885690319
1.49939788910389
1.38187123394036
1.48857912208741
1.44634455010854
1.45085878125338
1.36363333841048
1.40675239769077
1.30544680893888
1.52064787765423
1.3911352934955
1.4187783782729
1.33975385382301
1.35448678095798
1.39133824685334
1.48851811842714
1.41527888114257
1.4382283538295
1.35524284206888
1.45257063074786
1.36283514657638
1.45863958266778
1.38218193849665
1.37589104834118
1.4278705245773
1.43983745610527
1.44874104159306
1.57416010572184
1.34758168508407
1.40409379723307
1.40057619126337
1.42355980617813
1.35405898553294
1.46152891777689
1.36240999836956
1.33061741982264
1.33255192228279
1.3827402674057
1.3796961192609
1.43203925960717
1.3555716074709
1.51232423731243
1.45137982292863
1.47714554027759
1.3740438014798
1.47288219037999
1.32796104495265
1.31673153473995
1.34390754271658
1.33884807456571
1.30901706028667
1.3653863223987
1.30325209517301
1.3535879135734
1.26574541127659
1.3198486169048
1.27861356906718
1.48500984739332
1.3287209768867
1.39052592455715
1.28796559128469
1.24377778709938
1.33920548376245
1.39972899660213
1.28857452253473
1.36780516897372
1.24191029627006
1.28445969278654
1.27822350922141
1.32340736476425
1.29435299282589
1.3861976448388
1.26140863769291
1.2946317350107
1.26976624973425
1.34234842951974
1.23705323319109
1.31169550175846
1.23206095928989
1.29683239557411
1.24732469376257
1.32278899211513
1.21281932479863
1.30858185651451
1.24069472163407
1.26923391821547
1.20741226455628
1.2549832755272
1.20513213241444
1.16474093495301
1.1434502168203
1.18517448877325
1.15501235155771
1.28466717082745
1.17925161022176
1.2036080492762
1.15056233164775
1.24683259320083
1.18894778990885
1.21502288910516
1.17903740964925
1.22092270007369
1.08634966317832
1.20174209717556
1.16458927327027
1.18504289326117
1.10423342284182
1.08677871681449
1.10333643709482
1.16348319114956
1.05449650874989
1.12838219742674
1.11451085351841
1.12212882599001
1.09129901456826
1.12314051370938
1.07500374877678
1.12019847602539
1.03585259455099
1.11333639051322
1.08529543490211
1.12152818462866
1.05200640766606
1.08151551301382
1.04163662201192
1.04330525882703
0.985362931226329
1.09167666772107
1.04713250148173
1.03599000003976
0.991232064234501
1.05802352508774
1.00865880997425
1.03034438543792
0.973478202474012
1.02880136905319
1.02763730478074
1.00499753011842
0.946183054268127
0.999580388749896
0.951954488931113
1.00177913974641
0.983442198846649
0.958266446154403
0.9565051928794
0.993316739452784
0.933213395933334
0.924297285610402
0.940093268182554
0.966698188210593
0.912257309808974
0.932288078033759
0.903656783176695
0.926446200909862
0.922341594390436
0.931586057917037
0.899552092877344
0.925575965888091
0.880952912854422
0.906791237790918
0.868034102371305
0.908255006387755
0.870140335843094
0.883813357795773
0.855173581205306
0.874079513493031
0.844124762103244
0.854196932019573
0.841411128921666
0.903072672143553
0.843689082759133
0.870830371750452
0.823464771604924
0.838085393626512
0.816374171204644
0.829601500370033
0.794236914099136
0.808471403085637
0.806985098749886
0.840710832151127
0.803952833604136
0.805446638222181
0.802435183744486
0.785293867139791
0.76972335960762
0.795309014574091
0.765927658406592
0.788867669889111
0.794133635088167
0.780845929097013
0.775708849374072
0.773026716498161
0.741170793312599
0.785909440256904
0.745552083941717
0.766604636238052
0.749312274430669
0.736763628573855
0.715165865914865
0.732810621414218
0.727449459701819
0.728240839140554
0.711250629898784
0.738295778890519
0.70224555356337
0.726356639503277
0.714703968498884
0.705048958662007
0.696084974659692
0.711121543542811
0.695517650622448
0.718504178834883
0.678835383240986
0.694674802932225
0.67671691754935
0.690448204337015
0.660356445679647
0.690912716870118
0.660682212741036
0.67958204002621
0.648770913567285
0.66496581078689
0.651073417151452
0.654249177822252
0.628349151469639
0.651522615594706
0.628323207675965
0.65198013240034
0.635011449122097
0.647068938260035
0.627943556398408
0.645697883760437
0.603050498892456
0.61534674939813
0.603698482990889
0.624375648397146
0.613348710953595
0.616122017441839
0.607425261570263
0.608523471364973
0.587674716129035
0.608424721232085
0.591423022616853
0.592608154432644
0.579366902937387
0.600717097022691
0.576172688950047
0.588568294757445
0.564037757452921
0.564949723983323
0.55375581668974
0.559932919557233
0.545534930312401
0.564406531984972
0.557049358668151
0.572802707904519
0.550596245413839
0.549431063789723
0.536229353614937
0.56388214618363
0.544238607029887
0.542525201661927
0.524959299691756
0.550484017489087
0.531826810876572
0.531796957244617
0.521889444667267
0.536182559008181
0.51536478611214
0.525635837225473
0.523221310312263
0.530141460945899
0.501956251004897
0.511736472847091
0.495415071179461
0.516673372175754
0.492489522676042
0.510372661679146
0.491448496763978
0.506027577198416
0.491727063079314
0.500296665247957
0.493832845860456
0.501268214199396
0.485312261880545
0.492251719137417
0.482255088290473
0.500043974449756
0.479975026979846
0.488650155387202
0.469113251780153
0.487207679409799
0.475485089466105
0.492363688924856
0.47103069594945
0.48487879021896
0.466328423468364
0.487328521709998
0.472791361234251
0.484092937825265
0.475751783460332
0.478144646261648
0.464617087699794
0.486843286074603
0.470423813264737
0.497925938063733
0.465344996619134
0.48095680292529
0.483072596047093
0.488471476331416
0.478855110983583
0.503228363332815
0.475518799764913
0.488548970156146
0.478892091446457
0.498605161590136
0.497756484387629
0.495026212091498
0.493589567886926
0.504926182087907
0.494942575849899
0.499411678481647
0.494754883351037
0.517800031727479
0.499003581943164
0.513064654539956
0.497463815839046
0.524364995691425
0.511512457609481
0.522012738246984
0.515378499824171
0.536941577294317
0.50891442929785
0.539622983886606
0.522934923558442
0.536040614025264
0.531685706507797
0.546783494158801
0.537638014518361
0.548608325262576
0.537225790552557
0.550216135222817
0.541362403960785
0.547335006795852
0.546084458010155
0.569924284511283
0.549634829216149
0.562297984325634
0.553010890436658
0.573398405536072
0.564890396667629
0.591757260088464
0.576809087188743
0.575355720451232
0.5841720883829
0.588169639978506
0.592281875499416
0.603648692608996
0.601132430054652
0.610732210596768
0.594607315654389
0.617041657051931
0.614844020819154
0.622269058981949
0.603967465268911
0.626699278080755
0.600994413860984
0.620669131076066
0.607081183707324
0.624801672036136
0.611501187610895
0.63388490936822
0.595459716474362
0.614331117549997
0.602769793526897
0.626079124214933
0.584762071555964
0.607692235724628
0.60466668927023
0.608387358261403
0.602809052471131
0.622241006936825
0.590689731908246
0.604383382208472
0.608853858923914
0.623268993888312
0.603596304128565
0.619658766140902
0.592187621944125
0.616166497304781
0.603031029993032
0.61378860811151
0.610870432580534
0.614733539272308
0.575849975254462
0.622056244750624
0.607416306349077
0.630781954932605
0.611566749728904
0.611662842819613
0.606573161574768
0.624047260699788
0.610989286038641
0.629974440172259
0.610758471034071
0.617066619567363
0.602612941059885
0.619880467817052
0.599045597810955
0.613513416568376
0.597976034362949
0.614017955857708
0.589815231322134
0.619368382805834
0.605724706176619
0.618108289676237
0.597926965553678
0.609869072333276
0.592926377735537
0.600867760723408
0.600832038942254
0.615610581172699
0.581860628938863
0.603877622249303
0.588579283448044
0.608706002870939
0.581399254653918
0.603387704023545
0.5839315726699
0.593380010219021
0.582189022389391
0.587144458086604
0.564889950652493
0.58393115268415
0.562479474788942
0.571332618759793
0.55016034434629
0.565695826210445
0.54645778909216
0.562318976014404
0.535762846107919
0.55689343175188
0.526815941750576
0.547697606411171
0.526133828205864
0.531371524208762
0.51170766932327
0.515102700025568
0.503884511531724
0.511535980365255
0.505669853224998
0.511805930145115
0.499503701016499
0.503885450591299
0.496830458986217
0.502867720382104
0.486332592535033
0.493143038626119
0.475146695226724
0.482554296751908
0.475683679963564
0.482410829901737
0.467870015522449
0.474633452447503
0.459213061087359
0.471099010645627
0.451497002448382
0.463897313492781
0.439738528644157
0.453997727744912
0.44796611310275
0.44789395464089
0.435225463548446
0.448487497272764
0.437349142948822
0.442205940887209
0.430484333820673
0.446704115207211
0.424602605153685
0.440107123557941
0.424476122449956
0.4323780206951
0.411242955128001
0.424425003139425
0.417042746181653
0.418579884766948
0.412284806803849
0.418064255699397
0.408566928856255
0.416566934208974
0.405840207262721
0.420410841936101
0.397656933375186
0.410682819015872
0.391411150237019
0.410502248351292
0.392310538489871
0.405002445529899
0.39616645803564
0.40197127288634
0.391358816594967
0.396329359206905
0.37952955899715
0.392116839145698
0.38779311971918
0.388081320881224
0.379500906672348
0.392296041261024
0.374008979664314
0.379502737940277
0.369418776240544
0.386220255552931
0.372209278364505
0.381682085698721
0.370764467454718
0.378596824218813
0.367286368942257
0.375292322770999
0.368597917699332
0.370144422640539
0.358576804716156
0.372325557220739
0.357960782848592
0.371861709744897
0.360094876619968
0.36118984475857
0.358242417001148
0.369945626510166
0.355895221036435
0.362861909752102
0.354354650714099
0.365043969686984
0.346013412295634
0.353384731048077
0.347606596564502
0.361686059472737
0.342671053289116
0.35355399719325
0.345468241863814
0.354279252681039
0.341780187644463
0.35451062697085
0.342687444524586
0.346193389855529
0.344257275868694
0.352967034711457
0.336496074072732
0.350697649169324
0.341035429869292
0.343601326232634
0.337037453542517
0.340243525883734
0.329368642136081
0.342084953498947
0.32570326066693
0.336313996731507
0.327345570376889
0.342224380313819
0.321914373546507
0.332489604168425
0.327875838680755
0.328838840851362
0.325057713838814
0.333274834303354
0.324609288505592
0.330281244167883
0.320591154531437
0.330860537586806
0.322136371285382
0.329341185115663
0.324783992921072
0.33292342657384
0.316643953819687
0.327413195167449
0.32000613287643
0.328183556483269
0.309453823669018
0.326573334348065
0.319226101629507
0.325223919401423
0.312360960468664
0.325973213247779
0.316061790780373
0.325170252933435
0.311844739169276
0.322327158152124
0.316993328610831
0.32330678319129
0.30838313363904
0.322735441643458
0.310187637915608
0.317551076233635
0.306611665746131
0.319343293447536
0.315089248667659
0.314161837891778
0.307643161982729
0.320896343306818
0.305406648638259
0.322531179961743
0.308533101997656
0.31015011003819
0.300644441758187
0.315442691525446
0.301467752641459
0.309051940118425
0.299238214133009
0.306263172430988
0.299529463893584
0.307491094199879
0.296026151031595
0.302296081964422
0.293979703518034
0.306745611723006
0.291348613671109
0.301651350772154
0.286662658722298
0.298344487809988
0.291838137334622
0.299345544222699
0.292801837833925
0.300413969856852
0.286676119289928
0.295949326534286
0.287876574191695
0.294057662252268
0.285367574369381
0.296850659474375
0.288539484126303
0.288905338920983
0.28349677569996
0.293989460211316
0.279909799775398
0.283339568829723
0.279172172287183
0.284966324295403
0.27762574607296
0.281734916002629
0.273043981729692
0.281651959757322
0.274553726222362
0.285202990254536
0.269896417207883
0.277958148549604
0.26854825683503
0.272379421820327
0.270549382461855
0.279784528941579
0.264560950271081
0.274772103314094
0.262581300909486
0.274071978887059
0.259849940904112
0.26471381144375
0.26323055051966
0.267803679816681
0.259856214624481
0.263126537693934
0.255539888715557
0.263777618793288
0.254358524360898
0.263058409014017
0.25258969015531
0.258484595651771
0.249548502621212
0.25869346453294
0.246652683082564
0.255323607095727
0.246701891970629
0.252385735650999
0.24314088541261
0.247862405159023
0.241246784867443
0.250685715961563
0.236363916083157
0.249852132775641
0.237951487384278
0.245775646717624
0.234925057346635
0.24708177030279
0.231252560066003
0.24009484745173
0.23294326669239
0.236779947377967
0.229837680192243
0.242107540074551
0.231608593969002
0.235654903145514
0.227226771755818
0.237994422877136
0.219033455481938
0.23457622178457
0.220319262570175
0.230419035068384
0.224893733932347
0.223309560980275
0.222033473169374
0.226868150479316
0.220860364091629
0.224728288233463
0.217618269858633
0.223813253968824
0.215161573712599
0.218761005297476
0.215252734573106
0.221278167328498
0.210353912250483
0.219941852532055
0.21356257413045
0.215511028554806
0.211290719701686
0.214764955447689
0.2082713865721
0.218360330590812
0.206616072579807
0.215928726791787
0.204374665073227
0.215012211444702
0.209153327319834
0.213266541599568
0.200295833323701
0.209797172638742
0.199539497366352
0.213614353405491
0.201112714701626
0.208241555363645
0.198191370440754
0.20233842554929
0.199472411778288
0.203997745839113
0.194551282845944
0.205409439001566
0.193761950603944
0.200842440527615
0.195435845929754
0.201696499566934
0.190233088503652
0.20109777408593
0.189117183310573
0.199371282641602
0.192808072321334
0.201835493618655
0.189083351906429
0.195584002729543
0.189855343080587
0.194985800233992
0.190467424445664
0.195193006159706
0.187482867633843
0.192108432661376
0.186803611175526
0.195594032432338
0.185462013610168
0.193397855670384
0.185614953297044
0.191027252966865
0.184628897823984
0.191809954862238
0.186575408300973
0.186932442207972
0.185315510483234
0.192125607144427
0.182712537505948
0.193316447407872
0.181696175681523
0.187753036712048
0.183051779595248
0.185480903442756
0.177035915670688
0.187639233792574
0.181911120964589
0.18566451923156
0.176314047132005
0.185912662285957
0.179690725923099
0.184167642117793
0.180067930676972
0.184738739105197
0.176951307073903
0.183340297796826
0.17388522340984
0.181535695351763
0.177920453435636
0.181114211963245
0.171849264045227
0.178542775831468
0.174855301528485
0.178905480351434
0.170919825949975
0.181123464592962
0.174165483056111
0.180533835020475
0.170744890753104
0.175552341202058
0.169812699488555
0.177768568415113
0.16866820593668
0.175302470845564
0.168413442178757
0.177969304724971
0.169029427831505
0.175714606091173
0.165411423914613
0.171225362957879
0.163758815309439
0.175034399762071
0.16409442341102
0.172053938293773
0.165751000447894
0.169596005036577
0.164825368540377
0.168567524370216
0.161586508606775
0.167414790433353
0.161817424265895
0.169213642722563
0.160248323033451
0.16871181500528
0.163048012482588
0.167948663997873
0.159946721397699
0.165335704537304
0.16089376130009
0.169084685713859
0.157797078101769
0.164166424314621
0.159510062120058
0.163541107769608
0.160689596800714
0.164614144217109
0.156607082394431
0.168060113254605
0.152944585952468
0.15827547238908
0.157474741849557
0.164084282600373
0.15739450550962
0.162130585463669
0.154671733409518
0.160622971202643
0.154054805970675
0.159191810683899
0.151192764745802
0.159007072842718
0.150560196014741
0.155592212789099
0.146788475905147
0.156107656822917
0.150139896250042
0.15474926085474
0.148779484490458
0.153301385541473
0.148115040391101
0.148953876242761
0.14353105716689
0.152693971117234
0.14324745550325
0.15341779481976
0.141213604465533
0.149153274888422
0.141183145380908
0.144854741147428
0.139270890233954
0.147571025111636
0.13949292035508
0.143841386806782
0.137990778160187
0.146844459255271
0.139211913251604
0.144365193025781
0.134674034123913
0.142674576631896
0.134016713109179
0.139994628997053
0.133074627363345
0.140770487371602
0.134413378496863
0.141849120105307
0.134016350597389
0.141043462156947
0.132765794517013
0.141199319938902
0.13077656984429
0.138701813259135
0.132028580137614
0.136447358537221
0.129824727360529
0.13494644632915
0.128799060015921
0.132728799060395
0.127719921675187
0.132623565600703
0.125692458358626
0.133122558881517
0.128048690566757
0.13379263251626
0.126489865464101
0.130402161011863
0.12231571114783
0.129914451938329
0.124180197512617
0.128048219027429
0.120487978385521
0.130438092412678
0.120425500805883
0.12719723117213
0.120889749228519
0.124546944474885
0.118855117983929
0.129430801555879
0.117765930177405
0.129403334247672
0.118550110331492
0.125953535184506
0.112497953028195
0.123390442080416
0.116788378345275
0.123888748623729
0.116173497386151
0.122619258119603
0.115863332586898
0.123099219463041
0.113389348651416
0.117711650137623
0.112709421202486
0.119454967260344
0.111057381522697
0.118593231618331
0.11221049461199
0.1173657393526
0.108975643345363
0.116726616986231
0.113116216875484
0.114881899521598
0.110731020196277
0.118183185354537
0.110259590173383
0.115725503448361
0.107851980172256
0.118130493642248
0.110105403775331
0.117225588487863
0.110669794071382
0.117225167231356
0.108151422682626
0.11293287759272
0.111554075046154
0.117129481292992
0.107880217573641
0.117067347308136
0.106358977330431
0.114564763833346
0.106128951201407
0.11499056325368
0.106167978388526
0.115630879364087
0.1055751942813
0.114388722678075
0.105089689543584
0.11530712055325
0.106265834878308
0.119672125662046
0.106510382243818
0.117995951864916
0.106045826967357
0.120584511306211
0.0989826736635255
0.111119956532693
0.097969325493449
0.122227548878868
0.101991748865278
0.109541493223235
0.0948944178361942
0.114943440459064
0.0952159188506713
0.111377385238022
0.0977441573371564
0.118514493952787
0.100976492185956
0.116386500275715
0.0934997256612368
0.116023794253429
0.0918277121394218
0.122093624520441
0.0958029853063604
0.11308132610033
0.0990467182132485
0.120091999347126
0.0870775724086224
0.113960107352047
0.0934457054864573
0.113873063149678
0.0889658652952193
0.113158482439004
0.0848681440448304
0.116487911936991
0.084843300772916
0.116444293989339
0.084675113503954
0.11913878147263
0.088310714005509
0.126139487943892
0.0890598431930748
0.118476252257948
0.0825170242741972
0.114650806824233
0.0866583837389105
0.126383037699599
0.0983018209602033
0.123869005457372
0.0874595433361942
0.106783785937602
0.101530047187428
0.116314951352978
0.101473002681788
0.0927207966375925
0.109040582603265
0.102065454540618
0.118649648484053
0.079668817819203
0.125955371711522
0.0831823389347853
0.125083001583883
0.0750710366029947
0.130138598926014
0.077037576042769
0.125425769648436
0.0868828748682258
0.113533974479833
0.0971877591587497
0.104163750779995
0.102006180433185
0.0987779107148021
0.105020624282874
0.0972895965511213
0.103513478685631
0.100256760078306
0.103559944815461
0.100875039747801
0.0974424503208283
0.105105574053201
0.0958705577329948
0.101849351946633
0.0985577908499957
0.0999169327642727
0.0990611546637932
0.0998298325648433
0.0986859389981508
0.0999302787712937
0.0967893267864839
0.101944320715007
0.0998121778893619
0.100294192658247
0.0995020293536664
0.0986662892086641
0.0990266570907099
0.100137331435956
0.0983935860030892
0.095701869857805
0.098848151164793
0.0997797090750162
0.101061625401689
0.100550159189424
0.098255895881094
0.0967153962125224
0.101418249116158
0.0990957345264481
0.10101739330667
0.0998596661023206
0.103566250804458
0.0988196302557381
0.10167285391394
0.0995542905647885
0.101347326863422
0.0969975401964929
0.0987979106689012
0.0984712801009338
0.0989048912039578
0.0979824723893719
0.101240598287644
0.0996449895192264
0.100120540460816
0.102379120469471
0.0999733827779669
0.0991833951913836
0.102121425683174
0.102621936043063
0.1017603200718
0.0988068455729643
0.0999375364746024
0.102071952121594
0.102848206654946
0.0984583606745788
0.10139260770386
0.100530122337955
0.103702704993667
0.101040710792266
0.102648487924788
0.103310643290046
0.102921557261899
0.0974194554837186
0.104448866380163
0.0984993236673697
0.101461013208934
0.0986278347398753
0.103424181456775
0.0993839509342875
0.105041494035049
0.098669930471557
0.0996320825106974
0.101332886803298
0.10147961079255
0.10058001896448
0.10476630245242
0.102053603930613
0.104959351173263
0.104115239409028
0.104050366473506
0.103446810068119
0.104969044897807
0.102086394501294
0.102989606563691
0.104254609655777
0.106476070050133
0.100847666861221
0.104366516261364
0.101920101244077
0.104532336956989
0.104792280792324
0.10551738365122
0.104746026453999
0.10629334271719
0.102931506547694
0.105797587223983
0.10245526204513
0.108453630076648
0.106119553124047
0.108699475247884
0.104653703750325
0.1090346556082
0.104096376012394
0.106861615643411
0.105205546533774
0.108948994285138
0.102569019027014
0.109186386392299
0.106258247019842
0.110685158916956
0.108243867432543
0.108609008366116
0.107044764114635
0.106278689292805
0.104310414705083
0.110726718137267
0.106906119573774
0.10912280376116
0.104196489771279
0.107752230806258
0.107225229318066
0.111961570155123
0.106265462610522
0.109749290320899
0.109437497521182
0.113167680006203
0.107406909315543
0.111026429545352
0.110034051392726
0.109493164161835
0.110672953165297
0.112572500998362
0.106464240158979
0.110336728882581
0.110829384443034
0.111691530891459
0.109696335414152
0.110199296820494
0.109293145390339
0.112533338568259
0.110594084493305
0.113434256427648
0.111425574477026
0.114232846543864
0.109448637661075
0.114784199780651
0.110679604520748
0.115883440484066
0.113277321123518
0.114939265388744
0.110285354484349
0.116381558102789
0.109059317484637
0.116178241660408
0.112917967556179
0.116910213773186
0.113622438485312
0.115521787869407
0.114022645819873
0.115385807307374
0.113007185446391
0.115620672048574
0.114126317330498
0.116311873737498
0.114202066834014
0.114529258180761
0.112169379579227
0.115191048434658
0.112420595058286
0.117332059282387
0.111921298858479
0.113717684366514
0.114202025145286
0.114990313297033
0.113307604905042
0.114700759030479
0.109887873864351
0.111815568806002
0.109961495394552
0.114479149828593
0.111319346694223
0.110674597871897
0.111087770802413
0.108928662324693
0.106753581431518
0.112108504120584
0.107482766928726
0.112776940810456
0.110098328669875
0.113317371850905
0.109232700932875
0.114247561176944
0.106729504995069
0.111166208564789
0.109403016322311
0.109996989955789
0.107436442990457
0.111834944303922
0.107768197418162
0.112288599265078
0.106812082447649
0.110097253453758
0.105961066006539
0.109220058053713
0.106426738719371
0.110296335483553
0.106670588640835
0.108034234195755
0.108690112905025
0.109643620223927
0.106518492848288
0.111601735584126
0.105573252967922
0.108202527221704
0.103800030946579
0.108049943553075
0.106164717921053
0.108491177784077
0.107515584919102
0.111021249507097
0.107352721274368
0.108697086755229
0.106142257291163
0.10906727206672
0.104445736487972
0.107341281054955
0.103328759322811
0.106675238968309
0.104423658524322
0.107006452549247
0.106446271084071
0.107378923010003
0.104400225249049
0.106527095972927
0.102997814185504
0.105990247066337
0.103854293109266
0.107569251721234
0.102536498055558
0.108383215450762
0.103625344811628
0.10730445316813
0.104004395062138
0.103907175857243
0.10356083525079
0.106190209142752
0.105390879170115
0.106578287743807
0.102837588703359
0.106790214236547
0.102996121464916
0.105316054563892
0.103617100013888
0.104766553803577
0.105983617884868
0.107595962562439
0.102482772756929
0.106966116821437
0.100254278462089
0.103089363636644
0.101315639886979
0.10411025192764
0.102447983511869
0.103821153878122
0.101080865326606
0.104622042945795
0.101352352611556
0.103445270398812
0.102436099490565
0.101875421313826
0.0996749032153845
0.10198894112879
0.0985416569474703
0.101575584326459
0.0991099780198602
0.103932899685514
0.10109014324317
0.10183995941097
0.0992455670439412
0.0995457977496659
0.100111624905873
0.103245738454112
0.0993234369939479
0.100461703403924
0.0942973494213593
0.0994890920960798
0.0986073050931369
0.0996823815567641
0.0966921507964363
0.100023672769938
0.0969108408505124
0.0988736083488475
0.0961661412708123
0.0955646118377724
0.0946698933903245
0.0963873605570295
0.0942890457605335
0.0961325609869685
0.0938493591246718
0.0960865600122229
0.0936049044206032
0.0963444550645748
0.0937433533696048
0.0913896548969826
0.0938675712013503
0.0948453951081249
0.0916440577936097
0.0952565494934016
0.0878026948792848
0.0944144788048518
0.0900161427736602
0.0936743508403794
0.089611027197904
0.0924767934566043
0.0879426168281614
0.0936326915587815
0.0882915576602988
0.0923119245619039
0.0884769175724746
0.0909549322550975
0.0875886641841251
0.0905966825003426
0.0859481719926507
0.0920992319122908
0.0847287291015017
0.0876076630611353
0.0852092195245235
0.0893012248791617
0.086876717084161
0.0888183247454888
0.0844191753586342
0.0887440888518889
0.0826369714755117
0.0929471061045839
0.0868081225441844
0.0866653681020243
0.0855613265820465
0.0901449858726149
0.0823788056519785
0.0887875637708547
0.08290992833921
0.0867648651185042
0.0824894664598127
0.0860591015853836
0.0824964877005008
0.0854776963707018
0.0828137720986136
0.0867226156033124
0.0837745833944489
0.0831422264156751
0.0799363723119379
0.0869507226008011
0.0823772273402148
0.084467565968835
0.0826796823507455
0.0869692421158817
0.0788798992831589
0.0821893616530314
0.0791650135580406
0.0863614837839273
0.0841619284114729
0.0837530594423878
0.0822732093204523
0.0808838186638226
0.0797633472636105
0.0819899717599623
0.082117250753997
0.0827197491348974
0.0802091405858255
0.079742163161743
0.0791478865308545
0.0817447107854829
0.0795234715994864
0.0801804512916146
0.0769281981368837
0.0822391242120821
0.0778959270623836
0.0804357732024801
0.077883325061276
0.0808462106288687
0.076616779237835
0.0788206081320167
0.080180777225873
0.0789964069275657
0.0778587597974119
0.0762077681487173
0.0940128103470504
0.0777926162253001
0.0778172472343302
0.0797506556261296
0.0749732161354055
0.0810631125220024
0.0765469871059101
0.0780523051257718
0.0755210958963751
0.079849933527548
0.0752474761506898
0.0778793444386016
0.075154576780342
0.0783801755461462
0.0772048268111449
0.0782044434673931
0.0751862044237374
0.0796828030446554
0.0738217479191384
0.0779292199235461
0.075665860474159
0.0848807912126214
0.0821435148559737
0.0750803923512573
0.0794867182038878
0.0729925486269318
0.0788868313114237
0.0909565128142808
0.0708263988305441
0.0814106697086913
0.0701745950904209
0.0808084675299437
0.0709986526467085
0.0819584349277961
0.0694397816805489
0.0836954675271271
0.072580059412406
0.0813973028206167
0.0749924110156672
0.0771794702676994
0.075377761799293
0.0803280881168573
0.0721607524567906
0.0779962021618838
0.0717401847897251
0.0770070173937254
0.0716297774251736
0.0771914822240793
0.0754526379577665
0.0813998545721928
0.0713091181986449
0.0834178640294022
0.0737893774941357
0.0777609877039413
0.0700524782229895
0.078680340757413
0.0700232149776171
0.0893292358670648
0.0724772289021612
0.0794319244181147
0.0731970730225036
0.0752469986227389
0.0747096215796492
0.0788616046899775
0.0736965315690438
0.0763014502534753
0.0751601228402391
0.0773281969419965
0.0752340252060445
0.0770117998222296
0.0737584591806767
0.0757437665769138
0.0744085634847774
0.0753990296968084
0.0767970837471927
0.0765794704225151
0.075755397265424
0.0770404672076607
0.0726423426323151
0.0991435495572903
0.0710613434169057
0.0874672779008798
0.0724311339113562
0.0816263111545606
0.0745039196764253
0.0799651567712524
0.0689779244573975
0.0822253179066087
0.0732243913758771
0.0785624449226428
0.070975997682801
0.0782393697562006
0.0703321421855995
0.0796914627967845
0.0709389873466671
0.0803050265806727
0.0701222273212531
0.0790258944885737
0.0703003827422209
0.0801461109979266
0.0727652865293998
0.0813168788048009
0.0764726869115322
0.0783020728859948
0.075558889636598
0.075252169915388
0.10643720475775
0.0720067450794535
0.0842908648499879
0.0754380534834152
0.0783668123864329
0.0760922536437317
0.0771939290497918
0.0814607377911779
0.0787814214481281
0.0762128235265485
0.0794578888268985
0.0814903600296818
0.0794631068846003
0.0788026963692204
0.0720321326140053
0.0971634832235948
0.0875669060635049
0.078430367687339
0.081735033768444
0.0692985637318872
0.0944565376504035
0.084930326154075
0.0762670078807151
0.0879243503379424
0.0758756693093809
0.0833249158082923
0.0770224513460002
0.0806539300291204
0.0779072216513619
0.0870589776330485
0.0771145533583819
0.0838854880113946
0.0769736134358637
0.083940197744713
0.0817751756570153
0.0862919136061604
0.0884147415508738
0.085162894968594
0.0815084492731859
0.0877003501007163
0.0788744777060294
0.0855992992863851
0.0793654506114842
0.0846139658968807
0.0828841412896364
0.0963091321645752
0.0815680751743838
0.0904461863373688
0.0898479279412153
0.0849571331175139
0.0827290064839037
0.0955902349208119
0.0819613495111933
0.0950745035242975
0.0629408647800482
0.121806003883808
0.078760713211539
0.106545123027323
0.0860069412786964
0.0914104922011883
0.0846599225604073
0.0910610974039316
0.083501791152544
0.0932661804686158
0.0988728681229032
0.0837348453093177
0.0946227643455697
0.0848278772345162
0.105024395808143
0.0874256663317443
0.0948575705322737
0.0908772059899932
0.0957048932503872
0.0861210159731171
0.106295064022421
0.0794320768190016
0.104678785213894
0.11606904420748
0.0960205054856015
0.111892393532674
0.0830797564874909
0.122138623279587
0.10251085297829
0.0938596514331832
0.10038889167967
0.0915964410643564
0.103291349493738
0.0828777202286269
0.110715341990592
0.11123481777291
0.0905755916015202
0.110012156727109
0.0947580267957706
0.11184042660922
0.115202314814188
0.100498018520425
0.10257469761412
0.106481954588256
0.102752631400445
0.104166057419002
0.139572521726925
0.0931933145656699
0.138833642629194
0.110652018508186
0.123329561050147
0.114040622059237
0.120406397886027
0.112739035512395
0.129268051381873
0.117291856569975
0.119866650842639
0.109540957700581
0.147346523347741
0.121364452655558
0.126128221784296
0.127947114896859
0.114252909569421
0.137012090620293
0.173458337396749
0.150130326223976
0.138494082069874
0.131849290648953
0.150329321717873
0.144653071098383
0.136750921487786
0.141942990092354
0.138593907974927
0.140926696785121
0.145410355090436
0.151182185606415
0.150669419365797
0.142710526222716
0.157513717238566
0.140186629106859
0.169527336101258
0.17271509975201
0.194920384154237
0.167147590736885
0.179860543332082
0.187941909309679
0.164259432497135
0.175845929835339
0.16451287876109
0.185894695484853
0.175287373468298
0.180888174563491
0.176802587230192
0.185131670986338
0.206001520493015
0.17410820168068
0.219505486973372
0.188609304512574
0.202748110733712
0.176669544817846
0.267552476434551
0.256644534379483
0.201711136571687
0.247738130736585
0.187040357710231
0.31857842776351
0.252831438191318
0.248734116588474
0.249743163564756
0.264012883586954
0.259463879480742
0.286604465984892
0.280193192943156
0.299979381099387
0.297675324897172
0.304392888726818
0.272807009989147
0.386672295020095
0.341254589047285
0.365636791530786
0.333319776671208
0.36092114237964
0.361328860800678
0.374242038575673
0.365683029582728
0.397290520989191
0.357094306323408
0.463668511415851
0.413521888904291
0.423884402570924
0.426910003746694
0.462248572048537
0.447133819431551
0.450051746877362
0.509123525231819
0.460262904368563
0.492352498145525
0.475931567169795
0.511346372971964
0.492626127761542
0.535075934474681
0.54436092790327
0.521753014544234
0.548000231396415
0.540138826960411
0.558988288007246
0.555557752626971
0.571984305536344
0.569861579314716
0.589573146126733
0.579715561321075
0.653583563137857
0.646708009716389
0.568596732470223
0.608625567480135
0.584532533156775
0.620990409530193
0.621927044486352
0.602830928419214
0.650748530895499
0.596898545860858
0.615980314300461
0.598320199827873
0.611705908506808
0.610474758622935
0.614053730942246
0.61711090423991
0.627974935852398
0.633530838374745
0.553875579961236
0.690803192040302
0.611275895538487
0.606017212203399
0.607512562322539
0.605494133981162
0.590864475180913
0.603406950127291
0.585202189738623
0.61668690640341
0.595082826919713
0.588637625385921
0.588823648091598
0.582789930627371
0.624778113850187
0.581017604410763
0.568479007385842
0.561665565565749
0.557761223156401
0.560411261947356
0.534435801398688
0.617533083411657
0.545912013008943
0.535758621056268
0.537551233054335
0.522672479653861
0.537442300827561
0.532041278693739
0.53262101226033
0.529576264789006
0.505583849021225
0.511270320425845
0.519837186267989
0.50972860268657
0.509116521241905
0.498338270881484
0.517814892221335
0.497652963285097
0.506084221845969
0.490567281538489
0.498851891587886
0.497378875564348
0.496777732098168
0.49421362029934
0.494160376237223
0.500953220807603
0.491159658809541
0.484390286162577
0.495423466673314
0.487034394375406
0.494741882701358
0.483039861778156
0.487687959227257
0.482968566106912
0.489698236233277
0.472857567573364
0.486854579516899
0.480913003537171
0.481488898358977
0.475346678238828
0.48305411729157
0.466192886455341
0.485217886575335
0.475587328525771
0.477693193486676
0.522030783082724
0.45538038494096
0.479287751885151
0.459741927338734
0.468635266458355
0.451395425539327
0.472012454589172
0.497315289629708
0.448989185052084
0.453184720931748
0.454057109620404
0.454145624638095
0.457699634312361
0.44438291836221
0.443714106186227
0.43930645101584
0.395155589115091
0.538064139710561
0.41251043113873
0.525702551787272
0.437274563567354
0.433585875721581
0.393536762359846
0.476356206106585
0.425424888392038
0.415685093932613
0.427293603395276
0.425168169925991
0.437849091565696
0.403005397700684
0.40632972633644
0.401912500396503
0.398881077756292
0.423433670694618
0.399987278677812
0.387599500872676
0.431059131464598
0.402412264911884
0.409118768357042
0.442602156780509
0.413904412666174
0.384414682467093
0.371606829792529
0.38070588234585
0.3636281244429
0.407100240350017
0.381205811676211
0.365065415535052
0.372447293951524
0.344603299890581
0.35930824687391
0.349358910710559
0.369660542527327
0.335991240431322
0.370269564607269
0.349886364848173
0.331849905014742
0.370752293738717
0.326580625144185
0.392180010368332
0.33191765545226
0.338269006130811
0.330595255021034
0.381846813176301
0.331652201858205
0.334689341928992
0.32303872303902
0.314641576655478
0.329223773354614
0.319651518397095
0.298743100377258
0.32588684691491
0.303836772983476
0.340122829780792
0.344883066467682
0.341522604448592
0.315562967150518
0.295459277351262
0.295913499969035
0.303813584082644
0.293857907818884
0.305457024024202
0.281505195624725
0.326448719793894
0.27450984192426
0.33779406354227
0.315781877006974
0.301851771895195
0.306909203372385
0.308364341882999
0.304270265265753
0.33405120635496
0.330140270861149
0.343104525097258
0.305134171182015
0.346226068872567
0.320404506183203
0.337241622156264
0.331460095185074
0.341180541626661
0.339934230464341
0.357079144599483
0.357124895089657
0.364596040737022
0.362844748799863
0.38998250688709
0.36838058864914
0.419805638478892
0.389114200511826
0.399922646917496
0.441503184392789
0.427656822273314
0.453246496517348
0.431358849967964
0.449594246724364
0.449031385582258
0.448608324963884
0.462950418673701
0.451661659612959
0.496391741693758
0.479543454723482
0.479814711619964
0.491533749022482
0.488285665696373
0.503476286800085
0.494490677357247
0.530718345646643
0.511570684947995
0.581575394930104
0.511189299493858
0.537605077566573
0.519184247203729
0.52475827158989
0.539846042551531
0.520733572318327
0.537779642199079
0.520672958831832
0.555015699988241
0.554252545414635
0.539788370424471
0.55195395223677
0.53899046182592
0.550791422691039
0.559479846500403
0.558004462158746
0.565797652788025
0.559819718857607
0.572128582985777
0.55535106802005
0.621839990108169
0.614958098228361
0.574743909205298
0.605659033453382
0.588599355770788
0.605843261487385
0.597372766602237
0.615900051824146
0.619306932350231
0.614087373324468
0.620544928865519
0.621630968804213
0.62870149702227
0.634569962574688
0.641291436677515
0.643599020098154
0.627905874465767
0.655127712021408
0.614480666485477
0.72211935277876
0.655227588501309
0.668262120640158
0.661697003483336
0.66770612229829
0.663462459327172
0.665811154714173
0.670512101655468
0.674456084160243
0.674586102776645
0.673655725949868
0.670924572721706
0.672081676145639
0.67944247385655
0.666479484024184
0.684888778179079
0.678871588257488
0.669506661553189
0.682640025974838
0.669445782835049
0.672874590368104
0.673773283398666
0.690233132336875
0.663096090619964
0.675472174441508
0.666017326993548
0.684032974253208
0.690989608838414
0.680518158144333
0.668431061681981
0.678710979242712
0.668266706525096
0.677924102841882
0.661824097338677
0.703505875226799
0.689274350422007
0.681233196817205
0.689682093619886
0.689723647677287
0.689224504049565
0.699922385730993
0.700031118566996
0.705006054954033
0.703953671029818
0.709854095821502
0.713536005216209
0.703081972914086
0.70871234739388
0.709367067509687
0.724021289341053
0.719053051054199
0.706912024933855
0.716200763877182
0.700825565707284
0.708076596824423
0.702459034006012
0.694832585100161
0.677787629785549
0.686705986208486
0.680538528061109
0.683623240971558
0.676469069463214
0.66078956422809
0.674698885053896
0.650928065303909
0.653026855089278
0.640201500794427
0.646573504901102
0.640682279105385
0.641848202255587
0.634156880386936
0.633609876821949
0.625211139155709
0.628250247634551
0.623586837884274
0.618563994400981
0.619402000545509
0.623739204248687
0.618466496283448
0.613676856161677
0.616770607437859
0.619209443587517
0.614696934993223
0.617387377307977
0.615661953592351
0.629345537315895
0.614058720833852
0.624501120081081
0.609707219974124
0.613940878672901
0.608909021386371
0.613765964235469
0.609930828930469
0.613628729600107
0.609930348395193
0.608698956018846
0.609712870925835
0.608101817609476
0.607797682768957
0.609838626051896
0.606854786007553
0.607904541531739
0.60884368847778
0.606654708108776
0.602347470205792
0.600510062234431
0.607940359626269
0.60621561025693
0.611790204841424
0.605457244397874
0.610051333370251
0.60042289311873
0.60446962942191
0.601544816261312
0.607699831567451
0.612840089695279
0.603372285584983
0.609271800631434
0.604891467176241
0.60269666382339
0.601267225127909
0.603913659159363
0.602354782365486
0.59704669706262
0.591432605707336
0.593115341522106
0.588931110748221
0.586677139762933
0.58148866241644
0.578540364951206
0.575769998973666
0.571752490510137
0.564584399966117
0.560440073875473
0.559144916831376
0.552864654823867
0.550610940449587
0.547400608282476
0.545411673834903
0.54132113788057
0.537534971720778
0.534649878782991
0.531539995911958
0.531758639697745
0.534791998476187
0.532173105394393
0.531416922057826
0.527723960536523
0.52351520458421
0.525860971691234
0.525753172371842
0.531284055091382
0.53152477083857
0.529661757996543
0.532477427961025
0.531235140079492
0.535355513044678
0.537766947909169
0.538254861628755
0.538109576273036
0.537573653143856
0.544744679399235
0.542275046512341
0.549973832794627
0.552991610504444
0.548914908713959
0.553563097032111
0.556754990663853
0.5578368536931
0.558263546722613
0.558638886624572
0.561869001073234
0.563356535256201
0.565224215058735
0.55786217787754
0.560438327122127
0.558717049370442
0.557099438845258
0.562523286172227
0.561622361339124
0.557187776123599
0.555728648442091
0.550462615889502
0.549732115229595
0.551476454653916
0.547413688179731
0.547891540139328
0.545163195923951
0.540520764331813
0.54136888328503
0.540176737938433
0.539088937588205
0.535453717278426
0.531411945961828
0.527700033013899
0.529095100456653
0.526902981735144
0.525747463382353
0.523618513963459
0.523197381476765
0.522108245068772
0.514332147156587
0.513766900976767
0.514668592366202
0.51220419010304
0.509220478931231
0.510737405569932
0.510873311829376
0.507484781527117
0.505472332575216
0.506250421435541
0.503016399598804
0.501312144885659
0.501057648086758
0.496487150419772
0.490444493612275
0.489047470481303
0.488172618592655
0.481826715614922
0.47780904873919
0.474860761709055
0.472233596264706
0.469343561819139
0.467073654398894
0.463062680191512
0.458234964319643
0.455733696273874
0.452780964085903
0.453630284479369
0.452025096890332
0.447436396571805
0.445796957554655
0.445558459548998
0.447409569420157
0.444770374225058
0.441187054169347
0.441101495974278
0.440324802108936
0.43349884909725
0.434765441042264
0.429196423689255
0.422450748837764
0.420507423654274
0.413770849541004
0.407675262146107
0.40205698438619
0.396967847973667
0.393165997438551
0.390718667289314
0.387836330062532
0.384938603616326
0.388690796869344
0.390978611243006
0.392314659537621
0.399950213126468
0.409397041694114
0.411833285735574
0.423459029785398
0.436498952981959
0.452219401461489
0.466526246791125
0.481498961356131
0.500337825798434
0.517393631023821
0.531276760541473
0.555023324921645
0.573319026797566
0.589897383587258
0.606964818366577
0.625476249550361
0.646290872479473
0.660684846859999
0.679709642736462
0.695032847727741
0.705655107085495
0.727985261156731
0.746436128151626
0.761836219619815
0.77109781497829
0.788226569760569
0.793095641127634
0.806162642040729
0.812821288345385
0.815130829418828
0.835294642209248
0.844902278561909
0.849416018100747
0.857008815695043
0.855589295124983
0.861196623083849
0.864582324312602
0.864903326654063
0.860134392087165
0.858466745866534
0.860963143416851
0.863948940015604
0.873888232435597
0.871925585367491
0.868198474662345
0.864586898444098
0.866366838270354
0.884649788608087
0.888536582034809
0.887329327484992
0.890007854161441
0.903334633446675
0.906018779084256
0.906061846327411
0.920085717099766
0.92395084999328
0.926749871601647
0.943614037947645
0.946710524121324
0.95889480617938
0.97850731849066
0.988001277739121
0.990693529140715
1.02306271094094
1.02660828130857
1.03172573059656
1.05601470052844
1.07405626843313
1.08605886134185
1.08657228917751
1.08597870708186
1.10715744760207
1.1096800494396
1.09562600323509
1.12437131796092
1.1079985494134
1.07589727286593
1.100879157583
1.0876269331319
1.08271035573267
1.10205113880211
1.08066798531251
1.07485787874759
1.09613118064542
1.08994042138575
1.10780029283816
1.11790673744959
1.14130612171767
1.13585700435513
1.14477557243364
1.15656693666577
1.18191093121611
1.20568890267787
1.21558810378985
1.246506145666
1.26369215120739
1.26615681428529
1.28599199429274
1.28270049247226
1.29620493339637
1.32516853618532
1.35123518627185
1.33828712203281
1.38515507621584
1.41564930577817
1.44705815194968
1.46683602107362
1.48394204750964
1.50512303734153
1.53817574335799
1.56627740958639
1.61499017611736
1.62302607336334
1.67058328074562
1.69855140900246
1.68784282665932
1.69550475854529
1.71644441772175
1.70140749085739
1.75133540903663
1.81468564595608
1.84088072930403
1.88321676589077
1.77015984129191
1.77351206575085
1.83697035902845
1.77983765060144
1.80540160118401
1.8396634242769
1.85610976884066
1.82047393847317
1.76211486447405
1.8102214205354
1.89426914452728
1.8496644266258
1.84117328645167
1.81416649038993
1.80403112392242
1.88740213184453
1.98087457977897
1.77268625869534
1.91783522155758
1.85940936278644
1.82558986716239
1.86744874625247
1.90365890887247
1.91614105907856
2.07773075352878
1.97477025576413
1.81956688491587
1.94413533005006
2.15537623985913
1.97469776494254
2.13701508720606
2.21728198411365
2.28510293270707
2.0813020964557
2.17986430397166
2.35151013094004
2.29332017428435
2.11772251026509
2.23402199552596
2.15181494836932
2.10836262464346
2.17124804950015
2.22609742102557
2.01239156791873
2.03136217853997
2.30782289951916
2.40753752552644
2.27670157694863
2.27920890951198
2.13019802545035
2.37865712018666
2.22221329282771
2.33586154475812
2.35236752694281
2.63697115116924
2.01420928769551
2.05219576832214
2.2828633751982
1.95252991570707
1.9682989682163
2.07790110807571
2.15023982947337
1.97748801897141
1.82799612717857
1.90113474652873
1.88001985429818
1.7723284090308
1.76730470277744
1.72167868822024
1.60564035242008
1.59919051465562
1.58079105777836
1.5409719383874
1.53874433596876
1.53959962425671
1.50815062735773
1.5506318000918
1.4755607210909
1.48631004703948
1.46376594177809
1.43072472318182
1.43647273984703
1.46569642231906
1.42423075241801
1.40773523933257
1.3988353617472
1.36941919487587
1.3385573195441
1.36430879318423
1.30132899736082
1.25695730153198
1.22046095977484
1.19177816715369
1.13741281967577
1.11693209025912
1.06914108863099
1.01438519114576
0.996582745244854
0.957014370453425
0.919300545429089
0.882141721047755
0.828906868219949
0.801221350643001
0.775184110220378
0.733284317703812
0.699518098025969
0.681125808622167
0.646922774207178
0.632644446361469
0.610675192590962
0.601646330876957
0.588971537723161
0.572682053597924
0.560424347726859
0.555019303382634
0.538687878853398
0.527915117767817
0.528315518463807
0.525900259945561
0.51850936312712
0.517978176529917
0.519261711013709
0.520562836787671
0.522771460397903
0.522178156015642
0.524686075305525
0.527743866873271
0.523021961213228
0.527527778675163
0.530403007331098
0.53262381872611
0.52811075046635
0.527832138158592
0.531617772723888
0.521778011362081
0.513763904910685
0.517309840153608
0.513072972004132
0.502779793084459
0.501226948124493
0.496965225573317
0.488726071897062
0.488333499364785
0.494612308812843
0.485481553291093
0.483552500162207
0.493035079365257
0.490196003840494
0.494218104169783
0.493194609564245
0.503792547676803
0.503246645686787
0.502852124686787
0.509988243738241
0.518002140352247
0.517388066918563
0.518911405512068
0.526269087838551
0.533210745487411
0.528229447858789
0.533527960057812
0.538367158745576
0.541720286945589
0.542148649227751
0.545753266296257
0.536358650835327
0.542566343071487
0.542228731782352
0.542619278744637
0.544984154844201
0.554440228006246
0.554590648534639
0.565204586295084
0.558765423216945
0.569345992617206
0.570140584505207
0.589663544230637
0.602733223906886
0.613167143405496
0.626485740499597
0.641515140510941
0.655109829143987
0.67770327820061
0.693252875553111
0.710581507023001
0.721847158047884
0.732185654910612
0.738617615225015
0.728358833688982
0.727620952409961
0.74007984205803
0.730297380536991
0.714899572278287
0.695739793304727
0.699508570217883
0.676689844932262
0.681563079587493
0.67477750066834
0.668908637632635
0.66559854161861
0.670940578637982
0.668984481591189
0.662756002337216
0.663071221556566
0.675354280599284
0.660880179837296
0.659094436138126
0.668721785173345
0.663414142110402
0.662878507629007
0.662917110510144
0.643512671812835
0.646241095978631
0.62701565794771
0.631791012898188
0.633928858410081
0.62681079997059
0.613505274478328
0.60936031721977
0.592829474208852
0.59782895597065
0.603091097590106
0.602038259785064
0.595182548053224
0.603444959570894
0.60543800681784
0.590722828988892
0.572850148477655
0.590193370632314
0.582202465442276
0.567845222094202
0.585773436478573
0.583498777002484
0.570147548641546
0.579748855218821
0.572435200297321
0.559838612744697
0.575937388724107
0.572990891396261
0.560445420735479
0.570871140339873
0.564099437168085
0.57183511383247
0.559932971623711
0.561141564835194
0.554307831028791
0.559817483035508
0.560790189353749
0.54783680574182
0.555809855680248
0.560967984882815
0.526374988563401
0.548969047566575
0.540594590960338
0.542227692947953
0.566686804229632
0.559998418098495
0.525570146788893
0.557580295388271
0.550967349145699
0.55598177301672
0.558524057084911
0.540031851018087
0.540220777487078
0.55286586347676
0.564709769671804
0.554330510569717
0.54701097059604
0.571612459927629
0.575073555961614
0.577647786006968
0.567755985946485
0.592019736861227
0.578639713677266
0.581594442023593
0.586952104479769
0.597689688710552
0.58644113215766
0.594761588574076
0.616948354952055
0.623401864410106
0.603655785710804
0.644467389155097
0.634287022549703
0.634527176792682
0.629222352004215
0.671615366997746
0.649484702246916
0.669265485907845
0.661112347740717
0.69503031759526
0.69650512602161
0.749132451779018
0.751579315386534
0.761096029054465
0.764123443407431
0.779688630223899
0.81836035437767
0.823871292406479
0.854159688285605
0.914079791157381
0.861946331572742
0.894669634095632
0.87532251091128
0.935529548291179
0.965468744509592
0.935890522910283
0.90629125086407
0.967896000931005
0.865391960691589
0.890991566694263
0.913745887647557
0.945987562996104
0.91538607882346
0.899066616026343
0.890541666523287
0.970941360982165
0.905011424864881
0.919226399751366
0.863362612066443
0.929993724846982
0.872972246584791
0.83892987509008
0.866445658768322
0.948252825640408
0.862524635837431
0.858851254888528
0.851612874140052
0.86178205322206
0.781963609643405
0.845767449179272
0.824971902837594
0.881795120931152
0.83602841913131
0.869106182468853
0.889809774697364
0.960948160746409
0.798579820007926
0.872134220873867
0.80857265826026
0.821568686863443
0.757922948902986
0.836835891006939
0.781236436718259
0.829727343485839
0.942889361986291
0.850098459856164
0.802097005053272
0.868876054112872
0.789892383181537
0.869015907373226
0.851866255214432
0.942612728881422
0.893214613332852
0.920076877046818
0.891290959784081
0.806205039407105
0.885868723844983
0.839514230733041
0.776490902297399
0.925202308525867
0.885776253912666
0.827594640358776
0.827997658726188
0.896914087510754
0.86289785497412
0.90595160929936
0.808908617422749
0.911595514249964
0.973242639116099
1.02806047418702
0.913446885842178
1.0674452211418
1.01613203720941
0.982936302042659
0.982241382774897
1.07224505284115
0.879295208042494
0.952696650377015
1.08800834577651
1.01200574370741
0.920555136827265
1.06336750848279
1.08570053461845
1.1207986794703
1.3151959345232
1.4848794119067
1.07630157589337
1.20528096508497
1.09983406719568
1.27850559308092
1.16328675428345
1.54266626612864
1.57893303898629
1.42874082798872
1.0406745198276
1.18390986704053
0.951097142673975
1.20364579629694
1.02597496961725
1.01837237585795
0.933781394709235
1.00936798028863
1.05940169663945
1.06841569513206
0.948323675570849
0.823924870220782
1.02682519169951
1.0390021338035
1.08873017416496
1.10598441261541
1.05939650839398
1.00979017201443
1.14384032331454
2.2473234244202
1.47719116503208
1.07720527377983
0.868780516595374
0.981153558667375
1.05341075984464
1.36233725262453
1.12054615620193
5
5
0.966936575968202
0.881061197777014
5
0.708665715381291
1.14578626731013
0.573149247897997
1.15620198543258
1.30572383651551
5
0.654438970902333
5
0.876140860683046
0.927552155323034
0.96917256379776
5
0.94189178574987
1.21413625247653
0.618634517639434
5
1.55928734468795
1.05568470927287
1.42300946686272
5
5
1.39792109262411
