3596
4000.36533379555
650.420452594757
1
2
2
0.0747465638603683
0.0751692843546596
0.0667808527156778
0.0738810652175428
0.077809285763243
0.0750203960945609
0.0743341021500227
0.0758871706274395
0.0701221135449333
0.0786249760728413
0.0714645088893996
0.0786897557287519
0.0741618014895028
0.073521542794172
0.0680000973329231
0.0724952364556694
0.0706729852852536
0.0740780615911961
0.0688598713496048
0.0748707949131379
0.0629255023333113
0.0761487190233735
0.0693456086275467
0.0692086052503514
0.0607885080453551
0.0815185196754847
0.072267190307578
0.0691992173408521
0.0688632559621371
0.0822711423953813
0.0718335239679914
0.0758013595508101
0.0802581606211742
0.0790892209362723
0.0714161706865876
0.079094223870002
0.0725846593839492
0.0679120274668544
0.0674511780046112
0.0734969334529602
0.077397619543696
0.078312535917361
0.0777917088687631
0.0776809648251631
0.0618389511997895
0.0765234179356531
0.0676959339643119
0.0655599939652714
0.0671951311127482
0.0719287639578493
0.0644514559937135
0.0691187959274865
0.0726605287505219
0.0807292561647038
0.0757196199483878
0.0843165223419727
0.0655477526674792
0.0682982180576168
0.0742504776155045
0.0774196825946322
0.0739770972966775
0.0799561816972871
0.0782034974922527
0.0824586619650551
0.0679639090946108
0.0679097032046036
0.0702865500284237
0.0734520689216765
0.0626367923817721
0.0675214096216578
0.0680181644494406
0.0800663444083268
0.0793867896355262
0.0752188974063996
0.0713272028693891
0.0724671044668253
0.0639226163393935
0.0721757095910582
0.0637466147234572
0.0812650641579036
0.0763693536120536
0.0792745056354111
0.070484875445005
0.0659035308353843
0.072138401886803
0.0906549437161946
0.059602855929147
0.0792102888555725
0.0848622980993507
0.0741791767840828
0.0628667554403389
0.0650195428371256
0.0608962776450898
0.0636553124705787
0.0665417010805072
0.074990898224814
0.0673113243744409
0.0662399422526746
0.0610711440734284
0.0704934827904654
0.0744375645524885
0.0849788548816384
0.111912669895216
0.0630920054499283
0.0964876386525686
0.0848728017292592
0.0594402607500154
0.107126324461332
0.0764094709332565
0.0777066218716916
0.0621400390356984
0.0751036945776708
0.067151743960034
0.0823095073331982
0.0506097934718266
0.079499922584219
0.0902107700995895
0.072010165306407
0.0731289413368022
0.0606776496657753
0.0531566900078233
0.0860007853112601
0.0969296276071448
0.0760149814140094
0.0734769949025197
0.0658637532984812
0.053269199304805
0.0937288570921582
0.0955521693856644
0.0770714219258257
0.069005991780031
0.0685484868484375
0.0499918457962987
0.0645273750014013
0.0942923426285178
0.0788842671717375
0.0650550600800702
0.0624392947766171
0.0881877958163086
0.113324907397069
0.0829001100365473
0.069784887576648
0.0460853125225847
0.0734351819171786
0.0968209604489391
0.0730694599969145
0.0679709007799035
0.0902047074788185
0.0747393045967321
0.066601613357001
0.0593563578396612
0.0629702709865289
0.0743971805143168
0.0753888797089163
0.0299750139884711
0.101475117721247
0.113921447017329
0.0745081208783862
0.114725441233735
0.0739367253989576
0.0671930481955388
0.0626958953065799
0.0596787612808249
0.0695949149878719
0.0659041412696383
0.0550219125973389
0.0800753539298348
0.0888496206666335
0.0637887314818904
0.0765971099775022
0.0958422642785572
0.072444967706649
0.0562806032631273
0.116004347477291
0.0782720443059848
0.0662500935326979
0.0902377319923601
0.0771281919310029
0.053310815947374
0.0687952191462676
0.090800412583081
0.0719884332123599
0.0652881926636444
0.0673360667882239
0.0696850088740977
0.0869031376406791
0.0732111255708752
0.0702762195115569
0.071288801959171
0.0502818156201062
0.0669387455083637
0.109559382851502
0.0906714538677923
0.0686737038519872
0.0653430079719185
0.0364770462159269
0.0946572291380661
0.101663682407145
0.0640179006489167
0.068076192045526
0.0608266911831533
0.0670731785636087
0.0608447661893714
0.0691849635753482
0.0555141964626774
0.0471835147174187
0.096789975310423
0.0864621822361357
0.0555065023860486
0.0642072014704948
0.063361923858315
0.0567446976985747
0.106757095317846
0.0978649732500581
0.0754310123924229
0.0594592275520099
0.063862932117874
0.0869854266962456
0.0737664840023458
0.0691725051806538
0.0670018249762678
0.0618827385048445
0.0572772975286757
0.0643033253075068
0.065808919956853
0.069203591464172
0.0665182677932472
0.0647346642341983
0.0550413990672205
0.064371199339213
0.0709703874971645
0.0689213368833762
0.063934550149107
0.0673898769854123
0.0567183555846062
0.0751348452344073
0.0806480854513236
0.0703672770251408
0.0613485809376312
0.0646783075283335
0.0618499859914295
0.0629014853996486
0.0610802449203753
0.0614131384820366
0.0547006424511911
0.0691487701101634
0.0955650410423251
0.0739744075242551
0.0644308899758955
0.0617117795730642
0.0824742581884652
0.084776027862257
0.0688977221579477
0.071819774394005
0.0621845336242018
0.0585246056115889
0.0674985801024816
0.0853293525871031
0.0798775158114835
0.0630637187065441
0.0744848280749997
0.0750207720741279
0.0672167569196497
0.0579938434443048
0.0512613302014568
0.123524634678613
0.0762597830471736
0.0615289854010045
0.126291106243269
0.0866796508191791
0.071361428560466
0.0660505781165859
0.0303377158545931
0.149338055238819
0.135364914658471
0.0760716960576782
0.0706262723270062
0.080591342487387
0.06552730191291
0.0755061962252824
0.0684440396126424
0.0842567767220699
0.0968546070565596
0.105228086651019
0.103194417254889
0.0650886203455639
0.0915445930845732
0.0892338774567781
0.076475520573218
0.07460222638966
0.0767679019242776
0.0616497310830263
0.0828308049905339
0.0821558764102747
0.0876467649895095
0.0762546273544109
0.0789474580478915
0.0997598994906376
0.0826569535668279
0.0705480026945859
0.072454766437627
0.0815643397478505
0.070556885839895
0.0685962721246767
0.0700765215554649
0.0794023931859759
0.0683396141721596
0.0802211231557562
0.121677426090879
0.0840224342699656
0.0810841599060992
0.0929077067324657
0.0790283107519321
0.0718334816377618
0.0726768147143605
0.0766012472033994
0.0723310324445793
0.0686259131448101
0.0701295377327113
0.102086958677292
0.0774290865201122
0.0781175356534069
0.0726636215282974
0.0736408512211389
0.0739860187048831
0.0740137991806085
0.0733880442973939
0.0775374236651337
0.0759130018604463
0.0716271981428495
0.0839295639096452
0.104343065085548
0.0623503694622399
0.110227999841763
0.113645144140042
0.079786403929492
0.0774392939170744
0.0843420364293727
0.0906941448151014
0.0791552460854966
0.0821662925916662
0.0822013254972603
0.0990017478722341
0.0996846779435281
0.0947169662886732
0.0976258469929091
0.0859129113690661
0.128221983149363
0.140554605287702
0.105831217158378
0.0940902969484864
0.0752888295459569
0.119871309824172
0.121515828974466
0.116316501903949
0.120890233190874
0.0957543504647576
0.0966249670320403
0.091833249833172
0.101244628965023
0.103120181911885
0.105917861599738
0.0955365358579446
0.10647140913054
0.101942128471983
0.107383708940995
0.102325310712804
0.109512929150702
0.147433315221431
0.118859003994792
0.10791547268478
0.115414672612581
0.101004603343488
0.147602201099929
0.130776560294029
0.169105511886458
0.147068758693704
0.149972381592481
0.165680752726146
0.128389080043443
0.132559523087235
0.120375572912998
0.135012462236904
0.136769167059974
0.131786618454119
0.139100152985498
0.137590076104359
0.138265329371753
0.146630960753435
0.138888038053782
0.140766118788014
0.14025846813896
0.171116271622955
0.156237931276885
0.15158183897382
0.15046527584073
0.168865312970554
0.21722874026737
0.201899217260896
0.167578916869262
0.175765749585009
0.168218284954309
0.159036820010408
0.16294023306227
0.173522545402221
0.174514111427876
0.181084989583042
0.219272766522248
0.197851245923507
0.20744082251103
0.20496306181978
0.185806272362337
0.211883285574589
0.196272402331399
0.2278653611797
0.219010790885099
0.201443482873563
0.192029407436905
0.228976094686137
0.214261334895301
0.218260127604724
0.224398461518115
0.218987308716462
0.215096160862906
0.213110822971584
0.22708918985002
0.219014679266756
0.233483373295319
0.231647251204998
0.237251808738824
0.248900326651704
0.237849077112392
0.25353333358193
0.268156848456447
0.254777591558043
0.252039827814169
0.257983460398382
0.245293353974611
0.259859696894262
0.248146275961672
0.295048756343296
0.277902358217722
0.292928804094866
0.301120428379416
0.282242388261212
0.290819189502334
0.29170559487014
0.280631219747507
0.288878502823473
0.283462079470732
0.297354773601754
0.296336187806252
0.296582726517072
0.296630676543508
0.295801145446245
0.304536235136125
0.324678456408834
0.315111574927938
0.32137966364779
0.318308781899821
0.333348088914043
0.326424698641819
0.367656422264175
0.372190628857367
0.371775851234693
0.372940973296627
0.365742713124984
0.365122115130901
0.3741173312072
0.347151880707042
0.378122351746
0.375658323740415
0.389606792808638
0.381895992976305
0.382276456350883
0.383284156456777
0.412211992601883
0.420513122311871
0.418180461499579
0.40231761894519
0.430626919528957
0.406917045549845
0.40577474001213
0.401756962613166
0.430037529768833
0.420030109551658
0.429202043363179
0.431016453210137
0.439290583274606
0.435701953834829
0.48333325343352
0.438363477209381
0.468993525835076
0.45714543988915
0.46473336633568
0.456678005529183
0.471340996863063
0.463502307713021
0.478629149466501
0.480939287329106
0.489142703990929
0.475907954878738
0.529479582768897
0.502630074913257
0.548057605688669
0.510952519583892
0.548462647914559
0.502645509230159
0.535121131795838
0.519737063174193
0.534407114107529
0.583276463376607
0.54852900472035
0.584796035814816
0.582958824421187
0.538818531706667
0.588490397802595
0.550741366984743
0.57616818839033
0.567327928940849
0.58781785795506
0.566323341877268
0.623045793978443
0.583902293443528
0.597743752483826
0.587482974922314
0.624691441861785
0.615004922335755
0.656930284555694
0.602633742396069
0.623634655462456
0.622176178889085
0.636473541510195
0.642494381640313
0.70805999593544
0.620465678957539
0.716183065502942
0.625710561974445
0.664641361509607
0.632338249367389
0.705668872433005
0.643200946115334
0.682059914810028
0.668145260279659
0.694914889895305
0.705184763819119
0.740008591823148
0.714902936694747
0.710741693129165
0.714455902083457
0.758371056306548
0.718525878583177
0.77710016179311
0.729965275475741
0.786264407410541
0.717160915893382
0.797714407122148
0.746344504680331
0.774795894790708
0.783343310521621
0.772632810748834
0.771481575937994
0.794548592565363
0.77810173627824
0.799296538301816
0.767711954563246
0.815561487866029
0.783594053989195
0.822934985782753
0.803085504207047
0.827563278114347
0.782053649208717
0.83956190928315
0.843162560435686
0.908252836948517
0.826709098828291
0.912391643601086
0.821115182761483
0.917885949345331
0.884414437483383
0.910231264904842
0.847208831483264
0.963687899312116
0.87923440435195
0.906418564440423
0.824022063416675
0.919037636471656
0.903197544236129
0.925255682800597
0.90582285536493
0.906826047838673
0.882950736588651
0.97479682227674
0.873633416090008
0.925046548924747
0.868525098482852
1.00304681917809
0.947427376206313
0.978280567560577
0.939238569742606
1.00385701086279
0.928804383285418
0.988057736739481
0.921014939949114
1.05572827643613
0.989079425581185
1.00909755079466
0.970203400377923
1.061282306837
0.91336992987692
0.998145496677951
0.999078941640312
1.08668694301042
0.988308763253514
1.14770687994707
0.97697498759406
1.04699037846792
1.01665504085993
1.02441477157935
1.0411654499721
1.08102150803417
1.07112686972657
1.1046239880627
1.04852614379674
1.17341883921535
1.03862465277825
1.08497658245544
1.072311163386
1.13384917263989
1.05851016890843
1.0828041307291
0.969027348573938
1.07817257743537
1.00790572866933
1.1743806777354
1.05076609841781
1.12749827202558
1.03734722061332
1.21143695838992
1.04544734390743
1.07905810444849
1.05069997470203
1.1841113863788
1.05119481488304
1.24965348277137
1.15888317014962
1.25534398345382
1.11168183826001
1.14945138168424
1.13114599833044
1.17441012750977
1.13446198226246
1.30856795823031
1.08786752490127
1.26856838735284
1.11734047852654
1.22574297786643
1.31037534133316
1.21720069618512
1.13741916162113
1.2104365501594
1.12364074458967
1.29184349887926
1.17458557592416
1.31945375882766
1.13888758498615
1.26727814112058
1.15193611726388
1.2109380841852
1.20260400429178
1.37887692567977
1.11629404317923
1.30866459434827
1.21357899303803
1.26940002977537
1.16403751087699
1.25897968068679
1.20203132334099
1.3468044223951
1.20658061128013
1.33608736685157
1.21374497296658
1.30956050489915
1.17062605313295
1.37887508099214
1.19661349047857
1.23292730361177
1.19977282699202
1.35814711479712
1.35472390439229
1.25252826390124
1.29563206099052
1.29239803583123
1.24815062748638
1.35073872207456
1.15476992675696
1.24801260549312
1.29266375087502
1.34763552971838
1.17515226230296
1.3443026291082
1.15361814410778
1.36461860284816
1.20477593204369
1.27213741931618
1.33138990383851
1.36081049982177
1.1689165915508
1.31699884368384
1.31850534278302
1.38346915911327
1.23263132807472
1.34739319555496
1.27635452123247
1.34867821864763
1.2330348150566
1.42204425268667
1.18330412831433
1.32299819323467
1.22646576095457
1.31293685391396
1.21886980659045
1.31229435561
1.25934618411333
1.42976170664927
1.31018619718907
1.31536198224922
1.2005476480838
1.38135463553607
1.34564621358044
1.36042591182613
1.21119375592292
1.31139740194566
1.2530881820337
1.22411055274103
1.2840969335527
1.37555069681601
1.324397886438
1.34615369017918
1.26066923951749
1.30896375828949
1.22742022012035
1.51855102778685
1.22275214022424
1.32341717629737
1.27925354979849
1.39129867326118
1.29214533989652
1.31013956824313
1.28714017274144
1.31168138998373
1.41327374008902
1.34583982306205
1.21313017096917
1.45261848750901
1.31125418959785
1.27621622011056
1.23876953528909
1.32686694280995
1.38363852838539
1.33894758365577
1.22355533212024
1.38274089326977
1.18700509043931
1.33581540679036
1.25497047055962
1.4054578375702
1.22510557201461
1.34375795532656
1.34287119264386
1.39995356220825
1.28287256630766
1.23659480117425
1.27082397467229
1.23911556347576
1.3236724901935
1.39477593752241
1.40165822196211
1.3301503928533
1.27125679373713
1.30860820328717
1.20544567597281
1.35907260058059
1.23221877169162
1.32799428152794
1.22932626953283
1.3514703002882
1.35773920690219
1.32655273830332
1.21796082545536
1.32843319011516
1.20816254806613
1.31187741611561
1.26534392095551
1.26726123952573
1.27619965213626
1.32837492265348
1.28012580958389
1.3496390134227
1.16163402188555
1.36809881434056
1.21747306363185
1.37601512898341
1.18295182409183
1.24177922951459
1.261282313187
1.1996786664308
1.17656380291625
1.31875028969863
1.22307008793286
1.29498526566528
1.23917734876484
1.29934475271307
1.15152888389565
1.21449165978723
1.25875994075479
1.28045361507516
1.22109730598178
1.24709743836796
1.16366173375221
1.19077538837023
1.17048362230383
1.21394848612215
1.16262763143028
1.29414352541364
1.19343145807575
1.18824844776725
1.1889970908658
1.24712205821617
1.14701401983328
1.21577203257505
1.10993975702845
1.21635400084802
1.10512983746417
1.23934818595972
1.15854628785359
1.22533980534522
1.25568089850905
1.18769659049279
1.12554291731069
1.24777715357545
1.109085307299
1.14925034805011
1.14855732180982
1.15419748379907
1.08484565786125
1.14232047741823
1.14175131450449
1.11490384708306
1.15876414759327
1.17475449551075
1.08014494022786
1.14444184014933
1.06483003914474
1.11588000123488
1.10380330694803
1.15656059946472
1.10084421090706
1.08939956660261
1.07420994616809
1.13639041416893
1.06599041728452
1.1053933899823
1.0871180458223
1.06731735557163
1.04358953208816
1.07952180746393
1.08821867267257
1.07316403487202
1.05845720541561
1.05659860785648
1.03808780144793
1.09141300153193
1.04972389609976
1.07168863513255
1.00283279739154
1.01664664588314
1.00980933146968
1.0274209521493
1.01845653019651
1.00828295470438
1.02020456938748
1.01101469830264
0.986532992473024
1.04171452051011
0.987125670063919
0.949322263617024
0.978658196048181
0.999751256273682
0.960780700470588
1.00463734824935
0.93917368614769
0.969540899793338
0.94934326108965
0.963628241110437
0.915010596944172
0.977521366935639
0.951149248681664
0.953883006662551
0.907501512655125
0.947472960055181
0.901811760548077
0.937908797261165
0.913200077106243
0.921238446271194
0.924236053984067
0.915949809601676
0.868844715352016
0.908659068765721
0.857356605766656
0.904332035388849
0.871207455649228
0.906455693805101
0.890756301888834
0.881312918765966
0.877761570863541
0.895944498498209
0.854751522874578
0.857193143156275
0.863111802582941
0.842153281094464
0.856369506365994
0.858206690062129
0.822056924777176
0.83508245559043
0.811295287677257
0.860895888560722
0.818978014040196
0.80521810515033
0.799950602436478
0.806953975065223
0.802336385631306
0.810523764101206
0.786315306954453
0.789219551967596
0.785629974929804
0.801048179712799
0.765645108617044
0.764767973472402
0.756821588801746
0.7703851568657
0.764518629084899
0.767736654198942
0.748710649979299
0.7739380338528
0.756672582226981
0.746883545836026
0.726483372941156
0.756653610899964
0.751154774485139
0.739677612334984
0.712870762539686
0.751073462902483
0.699211023405399
0.718175754506794
0.700491671572742
0.706669194725121
0.692484372585131
0.71503071016193
0.694843668505822
0.674615933447603
0.69182436777926
0.686906844355211
0.687370680885975
0.698114723131284
0.664459116890925
0.680540168688126
0.65184999180052
0.668636389501823
0.669319529529244
0.672284706140422
0.659972520171277
0.650010513644612
0.657658802431077
0.662027231316306
0.627493596660459
0.642191549271338
0.64286770987852
0.634372671327463
0.63155626861823
0.629405827858265
0.612443824594317
0.610812468295023
0.617872752932666
0.619749543225226
0.621363928507056
0.616604810212745
0.609161648944645
0.605911285132358
0.598529904497704
0.612763310351229
0.591572166785816
0.584594257907485
0.588987751122512
0.593772779711636
0.577101828279877
0.578779757347726
0.572664331670211
0.591232126815588
0.576247855494655
0.575049665443179
0.555730233803611
0.576506660596132
0.565203471878138
0.56401711316609
0.559074149321284
0.560397738894532
0.545283389458434
0.544050987500523
0.557106634038448
0.547862798131026
0.53497550872896
0.553998198585589
0.532779109688757
0.532000701620187
0.523905964774913
0.534679329253026
0.521903481310598
0.515634701816101
0.520513514918433
0.520215809053582
0.510026615600004
0.521466814016737
0.506229511623508
0.511507322583479
0.501386701682199
0.502679976118984
0.49392176828441
0.489811879341686
0.499699769703765
0.501445528049403
0.485056740928209
0.495344942172606
0.486533612465655
0.484568368000203
0.478051390132824
0.472033538703333
0.468727646055638
0.477795289092569
0.457847288875417
0.461060219391886
0.459234129968184
0.470418856076134
0.467640147852384
0.468680313707336
0.452535058890774
0.452932374932529
0.451207256577392
0.460473736515102
0.443246626218194
0.444835023725463
0.437097740028603
0.44605275716624
0.434106956433681
0.445231618830175
0.432574522916817
0.436370590658593
0.42539589631957
0.422827509032029
0.414563982212509
0.427301902986052
0.423164369467594
0.421147564566376
0.423443172317413
0.422671452534207
0.419649218049414
0.421161994378678
0.409829106940764
0.409554701500955
0.402835982443655
0.406285287840025
0.410214032739041
0.419882771871399
0.40778149166629
0.407697026376983
0.399439113016437
0.40463939099872
0.414125382834319
0.401573848048195
0.405335874410045
0.407880858705717
0.407243765816769
0.403964346710225
0.404276087844848
0.414097036436955
0.407463490954603
0.408045309451355
0.404020586146985
0.4042861920187
0.414129429342388
0.409315532794872
0.407130851765203
0.420600716015727
0.413833690546025
0.416295182947036
0.417537524005727
0.413453434614788
0.428509130740608
0.423708938135001
0.423162518949336
0.430719972800963
0.42593660506033
0.431638975107189
0.44223633856217
0.432769154648259
0.437475508918387
0.445572170967291
0.443254732755425
0.443180691793917
0.443992143873571
0.444059818930549
0.448120791738332
0.450891247419998
0.441368766424693
0.453332739969403
0.460463905090363
0.463064377724404
0.466194886644581
0.462468617200229
0.462587106646148
0.471614950663803
0.470111873565565
0.482868077140969
0.478982460355326
0.488326205508641
0.480253477584314
0.477478506414005
0.490116057279297
0.493288350565359
0.500202723883635
0.505365254650793
0.498109635291721
0.50187461758544
0.504759901874755
0.511255960089863
0.52149868228102
0.530941217767816
0.523858307449334
0.539093624176552
0.520576872175346
0.538876718081674
0.540520754029856
0.542388574498724
0.538278852658377
0.542982627206196
0.550300426441448
0.558651788931259
0.541668368806149
0.546183488491242
0.555553213167951
0.553626574713601
0.550950317845494
0.552334857545524
0.555777965822031
0.569325044432749
0.559073037757078
0.560326904079734
0.56026898676635
0.551973285442447
0.551411975965631
0.555914319009166
0.56041409794266
0.56215838593774
0.551568154151399
0.550460758239903
0.555285525692463
0.561480588224278
0.55169075180202
0.544963001506188
0.53708016051823
0.558000733846488
0.56120789935793
0.561468442210778
0.540803355759874
0.543302525886348
0.54236786103497
0.543419391571855
0.550819830864684
0.553316192304088
0.552916082252879
0.549251687624664
0.555837734584075
0.5625759354823
0.551081036092345
0.541342735769348
0.555599634404865
0.556770331582653
0.554624081350916
0.556345435234819
0.556678365006405
0.559449687796531
0.560445078074739
0.558980492811213
0.550073482644913
0.557626983895074
0.553877119478184
0.544629142529846
0.545639312731338
0.556292576168835
0.546589193489384
0.553677650294396
0.554011431997794
0.547727873445879
0.54198002987566
0.553124434472698
0.544450045163344
0.538090533305097
0.537211991890402
0.531895461444929
0.539050717780283
0.529692494252375
0.524194769566055
0.525821508953283
0.527190488075776
0.523188827969377
0.525620114138203
0.525588646260668
0.511822224720434
0.505971391653475
0.51013880038548
0.506320331037755
0.488626656717568
0.485054490649313
0.488321895543055
0.482299225674312
0.474015312034416
0.477973759331193
0.483171878339173
0.470624672067192
0.468258192247985
0.467999521305512
0.461024579164755
0.464054096955531
0.456087469879627
0.446926296120757
0.447211856647437
0.438426685864943
0.435879776944125
0.449653178772629
0.43273066275966
0.431882377159253
0.424994027453363
0.427685739378722
0.418005501898731
0.422774309121829
0.413286267914766
0.417998965121286
0.414157493247605
0.418475509587947
0.404620506582119
0.404033268326034
0.402679766662909
0.395107499457498
0.398582197742687
0.39185151482774
0.387669530996103
0.391218878107131
0.384795560919702
0.382878428112217
0.374441918069984
0.378594696150681
0.381919908390652
0.37554123427552
0.370189245371011
0.369643517515827
0.374895475944179
0.369146647900023
0.370764372763503
0.36372227627568
0.366425962225226
0.367715090308754
0.36172121736897
0.357004971186517
0.358506448819713
0.35336312641508
0.350217334859705
0.34951045124993
0.346844073892477
0.350878610621877
0.347893211944882
0.346188678383782
0.349541476818533
0.340706211891882
0.34431941877809
0.344633959187865
0.335535555016625
0.334426025008279
0.339161449472468
0.3340892253289
0.33827567948453
0.329860234974493
0.331901278320798
0.32565342743134
0.325527818684712
0.329038840987521
0.325685589385073
0.323708712147475
0.325589343420705
0.321796081486891
0.320853774458417
0.322084901652148
0.318493958354432
0.315715929346906
0.318875355488784
0.31399930895803
0.309554169982502
0.314292705037441
0.311667486561928
0.308612050541803
0.308894384798947
0.306748671218546
0.308503137459748
0.302221899922999
0.305851088131055
0.309414422194782
0.304665515501379
0.302859731341354
0.302798854000258
0.299714536361276
0.303408293748521
0.305151887250852
0.30051725559992
0.300473301531064
0.298108563083375
0.298402325980175
0.300059705759054
0.29837852521392
0.29527375990655
0.297872766266787
0.298552245120977
0.290366227275953
0.295686165425422
0.291327935149143
0.288734339857204
0.28801750770141
0.286281825819096
0.285410249373045
0.288702735830505
0.282401294704787
0.284801979890424
0.281914051149438
0.283564237344037
0.28213976463719
0.282415738678616
0.283149721874448
0.284676516201468
0.279214536966043
0.280792665851492
0.279971932426918
0.28003204323084
0.277341419414896
0.277746602118596
0.278866212430243
0.279102729229269
0.276800850626291
0.27682988557608
0.27751650104933
0.274319566125643
0.277036120325994
0.271480748749281
0.272204211491273
0.277215934895047
0.276315350454453
0.275382362601343
0.269678272716811
0.273175777268711
0.274157294452455
0.273665307090912
0.269138759399264
0.273494045430466
0.272477139876249
0.272443791451537
0.267319409611293
0.26992206615041
0.266639111962529
0.264859282575493
0.266073338291595
0.262393068530644
0.265600148563021
0.263484650071571
0.263531119390644
0.263687998963281
0.263659202736765
0.264508676570164
0.262215975323655
0.264325971565601
0.259272774279998
0.263915053558002
0.259665800043712
0.263229582350697
0.258537581422125
0.256210403065936
0.25520516323318
0.25778894421421
0.255326960702415
0.2560657673578
0.255145014036413
0.26085380574658
0.253917593250251
0.250638984430566
0.250028781467768
0.253273288839088
0.248000776749547
0.250314761392331
0.248524866121199
0.247607156667103
0.243040076025586
0.246833299229404
0.248247398737111
0.248330221311886
0.248585245247268
0.244628020953784
0.243625420139254
0.245225801602052
0.240235523924729
0.241734528716337
0.240200987605482
0.24091913871934
0.237573481664482
0.239402559549786
0.235649339988632
0.240246014170473
0.235041455013766
0.233096901586578
0.235684247622985
0.237451972144302
0.233879584209004
0.237211613200442
0.23141524528847
0.23178876794456
0.227467878663384
0.231832281023217
0.227433915330951
0.229716682650053
0.223095811794305
0.227169371785499
0.223577874355517
0.222020659094757
0.224504983161639
0.224691140077349
0.22201506951133
0.222266024610332
0.221097792034737
0.220286294596835
0.216820743567031
0.222276500198143
0.213859040719942
0.213842531471301
0.213838307067347
0.213910866674877
0.21169531745234
0.212365028987712
0.210215367348511
0.216282418691845
0.211395257591315
0.208308104611594
0.206757079415188
0.208595667971737
0.206822755760183
0.212683940335347
0.202333977058273
0.202739030855397
0.202789191128228
0.199229178564819
0.197721859899977
0.201965921990567
0.194258216257174
0.197447880063663
0.198316905850309
0.19856252882035
0.196816053364884
0.199169479017257
0.194470426248174
0.193145748744118
0.189408970688818
0.193007743562444
0.188875486076775
0.189761223015033
0.192203154799334
0.188385323553656
0.187826786469227
0.190009709726186
0.187323666338385
0.187276598370258
0.182857099043862
0.185650977535197
0.183779810329436
0.185036796320361
0.184935655572893
0.183659770813042
0.180554319699075
0.183539049249049
0.181816385361325
0.179690026922884
0.17834438236189
0.178000928968592
0.176720678918351
0.178854594498414
0.175681291358161
0.177132849930979
0.171713930697021
0.174108711634502
0.176399506491486
0.17498262906313
0.170470817049507
0.173467924679323
0.172698768955403
0.175539620703972
0.173843382701693
0.173873620343949
0.171099846237575
0.171744526437925
0.169465203420343
0.170812064580054
0.164933643197655
0.169066459349587
0.169198501789148
0.170091666729261
0.165802276124669
0.167542278970498
0.162690807125663
0.165545006120486
0.163972285082666
0.164040698625616
0.163625163317271
0.169628540743134
0.162760844487813
0.161759623279756
0.163063232682175
0.163086412433397
0.161291634447636
0.161280464130555
0.159766511282643
0.163682249678117
0.161153192633231
0.158832436904495
0.156904335605935
0.160061212069479
0.160582384323739
0.161832872887222
0.156377108216866
0.160549816074165
0.157399860288668
0.156652310524982
0.157015856672144
0.160461339016042
0.159330495517568
0.158334370761144
0.153441594485148
0.155315282824833
0.155725442404712
0.156733439718354
0.152727474958491
0.155910778210328
0.154437022501153
0.15791455729009
0.150389130583003
0.154447282437231
0.150583633509419
0.155481215023147
0.153122269851699
0.154439571041696
0.151308341456247
0.150117592691387
0.149537493708888
0.152593236856342
0.149116767751718
0.150592594878638
0.147215368446303
0.148310350222242
0.147780228422734
0.148623329769323
0.145687709769212
0.148353916837406
0.148538513878513
0.149676083559306
0.144867718600915
0.148005339034104
0.145648575189962
0.148884695960588
0.143431268997594
0.146580867326736
0.144407477579305
0.144797812255393
0.143963836152833
0.143266478799127
0.139393968836629
0.142506251422855
0.139535739080775
0.143100684538431
0.141228936663791
0.143250920673621
0.142727044899996
0.141580933216452
0.137589676882414
0.138398768984387
0.137977521535733
0.141572436900775
0.140421419938206
0.13895209670206
0.13748999588792
0.139913084975303
0.135882450625617
0.141604088635575
0.138101220209548
0.141041542639275
0.139664903123692
0.13989716027759
0.133600027339896
0.135514909302366
0.136170486436962
0.133731884486743
0.135298676994383
0.137143524547465
0.13331196259522
0.137364434938465
0.132320705980816
0.133537319559154
0.134225409342802
0.133071332861213
0.132308209536654
0.133948887450619
0.132305699630524
0.131077402212695
0.130369240388472
0.134900869903955
0.127222772760393
0.130868266106267
0.128325693237787
0.129082773747488
0.125375127610887
0.126613541507512
0.125596259298495
0.130481761252233
0.127804370331033
0.127306484371577
0.125254323911206
0.125483897766762
0.124047706440562
0.12729013483276
0.123400218205068
0.124888150138749
0.118512332601103
0.121609512152831
0.121202615433747
0.119542151952314
0.115590359440318
0.12170548797177
0.117613521851912
0.120204984119786
0.116189211043417
0.120463203719988
0.120002706956344
0.118658728941998
0.113664010534992
0.117601986931259
0.114131417597169
0.117118616257716
0.114007681181155
0.115536661237916
0.115957163006191
0.116571920402125
0.112964413377139
0.113599003556437
0.111240652494449
0.116579892844091
0.113016365969506
0.113478837570541
0.110817381658579
0.10986194581939
0.110782273782753
0.114613543754597
0.109996905418298
0.108954826461201
0.104644114662103
0.110003868020105
0.109417869547509
0.111596385626681
0.106582576855533
0.110766470549271
0.10572924472694
0.10931794018549
0.104861566306954
0.107523356060364
0.106688797804375
0.107020861734808
0.103346216573377
0.107577921617665
0.102545380076602
0.10287245909635
0.10376413603736
0.105002956694488
0.100811722128986
0.105686562753134
0.102546936505505
0.105304898381594
0.0998993226867747
0.102789099037305
0.0965584839077896
0.102308904554935
0.0994096996045133
0.101673761652119
0.0982796670620967
0.0987739709046997
0.0920739756828504
0.100389877589429
0.094594931514154
0.0964993076215939
0.0954362783669778
0.0972337626170438
0.0951614825744792
0.097607974469981
0.0944215963785488
0.0957704270330968
0.0946312592870081
0.096110807194167
0.0951433825604348
0.0955955793948976
0.0945362468930369
0.0942558646831938
0.0909313776476569
0.0932128710949305
0.0921767793724928
0.093888717404734
0.0900573013633381
0.09322384241626
0.091503853491345
0.0951973616609321
0.0908970325761631
0.0918339414890879
0.0933839653646849
0.0933640956952493
0.0897887022891477
0.0962507054219559
0.089175283865487
0.0927861315114135
0.090628645335235
0.0945011926538678
0.0910436885934806
0.0950454280051455
0.0940705536824493
0.0930387985592355
0.090972816275517
0.0919868851301908
0.0917244058752812
0.0963552716911123
0.0929335454998917
0.0933248861067978
0.0889284949293881
0.0953796785929105
0.0877569184560703
0.0906365288364699
0.0851568747644883
0.0913290914663871
0.089211178848105
0.0884726213530624
0.0827631232499772
0.0893647576325503
0.0873450523739121
0.0841692740287111
0.082927374889724
0.0945694973205833
0.0849106011498865
0.0929421634010093
0.0841533543572035
0.0886739523152319
0.080439008985322
0.0875976733814122
0.0855591628641854
0.0911913004565301
0.0881207276394838
0.0931330816781634
0.0809763722678161
0.0828837212595977
0.0831173256882565
0.0855061425946701
0.086496344635903
0.0859597382867902
0.0852273802434118
0.0812306789938937
0.0850138012431752
0.0825432120155544
0.0848947271873693
0.0831434087732844
0.0875530848448345
0.0857618234401534
0.08911370183136
0.0835414074116299
0.0925686390949576
0.079637396502338
0.0898039367785973
0.0767566643657106
0.097953860091946
0.0744307637178695
0.0983647342858775
0.068162500545662
0.0993087214455883
0.06405286757138
0.100464050978598
0.0653439581867484
0.103113631918744
0.0699326756855738
0.102845523607009
0.0667803486815537
0.0986805492179742
0.0714556132213486
0.0922818328166803
0.0790491263940775
0.0894980200947451
0.0832735851467921
0.0833376670632631
0.0888268611807317
0.0785834438441573
0.0920825913541425
0.0756069647526829
0.0893593886513154
0.0740134349871005
0.0870284720836456
0.0761332842008036
0.0853173832320289
0.0802341293818551
0.0826515147332412
0.0793079447496608
0.0801400487825502
0.0791705955049252
0.0778311540682065
0.0791765077036075
0.0843461999096095
0.0759499781428768
0.0807426594355631
0.0770311979547717
0.0827149509142678
0.075650168752956
0.0772361759957827
0.0763957582850471
0.079374328003394
0.0775099117351676
0.07884535080806
0.0759444895323782
0.0798825859207671
0.075348100147473
0.077955464760309
0.0769896851097362
0.0798263391047726
0.0784721119818149
0.0802470582562633
0.07759154013865
0.0784573587802936
0.073438444281586
0.0786684984597527
0.0738225677570156
0.0785798528348735
0.0759991270063224
0.0795669424692693
0.0741219257848996
0.0805158819352394
0.0754111650274072
0.0780000630490489
0.0748838910207067
0.0789703106443902
0.0767697295758961
0.0788556013264708
0.0759385193811408
0.0768536329215797
0.0777778954073889
0.0787428147953922
0.0773970571980912
0.0777218420494222
0.0768413117098227
0.0807855963562052
0.077081104049992
0.0798613658815434
0.0745557826658644
0.0791230174442311
0.07541221455663
0.0771007526108484
0.0727158874324706
0.0784581973461877
0.0751470399363377
0.0791261435054873
0.0764885999033825
0.0781779021186792
0.0750744098922791
0.0791312376463498
0.0756404779098568
0.0777093663331861
0.075624376916938
0.0776405579987551
0.0758189638620855
0.0794481265463964
0.072904344029236
0.080220645726432
0.0760089079901149
0.0759718295254798
0.0737319447363682
0.077359028100462
0.0742093324054089
0.0800560760100485
0.0766041525777659
0.0800829104860658
0.0781108433485429
0.0778125180286932
0.0760197358148532
0.0830890579302929
0.0760150643375171
0.0796477909553889
0.078443074538825
0.0791765785648627
0.0735654099328463
0.0806647160969694
0.0756856029290813
0.0771670146278586
0.0765173355956171
0.0815169256447956
0.0768530354347968
0.0817129124336619
0.0759474596191384
0.0780383815262703
0.0755658759836031
0.0813833679319919
0.0781774507048719
0.0814872411230451
0.0775750221173051
0.0820771797614545
0.0757451680002311
0.0794582068713624
0.0752645450878798
0.084720035706525
0.0768357858856724
0.0809517341885258
0.0771750323938348
0.0839750560298665
0.079248407183299
0.0791663813867921
0.0804501900979786
0.0822923163523953
0.0778068583573754
0.0806025084050375
0.0770568153402625
0.0817814825310455
0.0760583668867709
0.0792634664630758
0.0772350110680898
0.0827257484992178
0.0808970852657664
0.0791440704475783
0.0793825480685859
0.0817657340304639
0.0780869568717041
0.0843563115999732
0.080462278119073
0.0815149695130643
0.0796770095555613
0.0827480053941934
0.0792867631292348
0.0802675058348364
0.0799609649573084
0.0808907549639569
0.0768760441520639
0.083689636753248
0.0803297748096142
0.0819546464407464
0.0784340300129948
0.0838379260436561
0.0807999930555356
0.0842804661421178
0.0789460506851052
0.0823582955622333
0.081377026136727
0.0868523261567351
0.0817943524980007
0.0827029956498773
0.0795643968864029
0.0856047432689879
0.0780056153792575
0.086858077005217
0.0826124704080453
0.084384387503103
0.0829984744422562
0.0843724172985073
0.0803798438944997
0.0850774400538319
0.0803237910710811
0.086778656848808
0.0814080080170445
0.0867571248672046
0.0815744906233092
0.0854806515817913
0.0813627499895283
0.0828134224273315
0.0823244204108688
0.0865877369388781
0.0805870640493529
0.0824079007898562
0.0802396341829307
0.0829100318885593
0.0793273719429543
0.0824984534386444
0.0800451443849367
0.0819469662172026
0.0777050181873648
0.0845473893658657
0.0795801466003358
0.0820564765705316
0.0793991383442249
0.0778973398881338
0.0756492349622102
0.0836345404478934
0.0770948733261094
0.0828553760230984
0.0777850053895019
0.0838638381997951
0.0757753533519883
0.0809277449994541
0.0771678827291983
0.0819421106793921
0.0788158236491165
0.0791507738029575
0.0764827438021252
0.0816006518902039
0.0742844903835852
0.0798683703763963
0.0786455425218957
0.0825197318797379
0.0764391744214204
0.0787068110514942
0.0758621706139671
0.0801244619634755
0.074473776834878
0.0771699985546921
0.0770057310317074
0.0797209569125362
0.0782827213766576
0.079930392878175
0.0770577179488541
0.0809993041593774
0.0730442655891609
0.079244071286972
0.07572547510184
0.0782817061101977
0.0746003196162321
0.0780745143025846
0.0757410148438795
0.0793408858730592
0.0757592852556915
0.0804265050897686
0.0737168667296325
0.0769150687352915
0.0754175993588988
0.0785613576156208
0.0744009804937891
0.0780566672989916
0.0746149926873791
0.0815825133402752
0.073359015185677
0.0789260339505684
0.0730244297089176
0.0760008701433679
0.0739271057808343
0.0790456967487238
0.0714626601082338
0.0779890156143044
0.0754950489980939
0.0753258784485974
0.0745480593964532
0.0752850496950057
0.0740711901611737
0.0784987533626924
0.0749896851531063
0.0758003628442114
0.0740487472451742
0.0768069203507408
0.0714476831516732
0.0780808182552069
0.0731593982239325
0.0758847966054005
0.0771189802408024
0.0800716352637482
0.0716185092096332
0.0743642148130397
0.0722817565522821
0.0761448837090557
0.0737867485023821
0.0751556453975126
0.0743959360595425
0.0771233066608767
0.0735650317587649
0.0764391025642562
0.0718862502265824
0.075823173445989
0.0734536282266894
0.0756672800638565
0.0700926250983214
0.0734851118152996
0.0699447085474063
0.0726083107174977
0.0708975268664139
0.0753806409785337
0.0701152411940186
0.0769734684427235
0.0712607494029377
0.0742774343661365
0.0728133787387698
0.0739992589589979
0.0704999392850507
0.0731760683425953
0.070821874851147
0.0745927354249546
0.0686822773698283
0.073275186956129
0.0709044890674534
0.070885492452556
0.0689504001327766
0.070966792988798
0.0684882645535521
0.0693468417384531
0.0681626074566574
0.0690852500582871
0.0674248652248391
0.0714692346895576
0.0671122969112996
0.0711733262320257
0.0688241629508689
0.0680324312724709
0.0667924771020144
0.0678401845198658
0.0657098756007111
0.0709399339980098
0.0698077611036605
0.0685789342619747
0.0649625442858121
0.0696123066713716
0.0633690269628067
0.0666278026336442
0.0638302418961398
0.0669448965663345
0.063455155851906
0.0691746526317078
0.0638354296095437
0.0678575796942467
0.0623024373318732
0.065469234556224
0.0623647148139057
0.0650803839593291
0.0629951031431385
0.0680758714014025
0.0617008646748421
0.0634921746012047
0.062135884051956
0.066154290215866
0.0633910571178225
0.0640776264389377
0.063560290085672
0.0616033540332434
0.0639936243901679
0.0703338998818455
0.0632440306529138
0.0629378779571571
0.0606064016477859
0.0651987780934307
0.0596291413810604
0.0637741153039175
0.0579462828555407
0.0648370772810847
0.0597940575647216
0.0635575451306646
0.0604948782850688
0.0644831191711543
0.0597129178958715
0.0627323235668338
0.0591766123267508
0.0601954830999186
0.0561625166467908
0.0609569024271024
0.0623520489815566
0.0622636963525926
0.0571317078980221
0.0617294783300366
0.0588493056321886
0.0594897082680294
0.0573181814199937
0.0665926237246524
0.0623987554033874
0.061258032657643
0.0588688977280771
0.0611250694220071
0.0565040523650533
0.0579749317850371
0.0576636190397893
0.0624033515942697
0.0579693669532666
0.0600629703821644
0.0562790771633814
0.0600932333626564
0.0569090160340125
0.0599057623834839
0.0553688890746698
0.0587918284018678
0.0549992511586328
0.0602279338891499
0.0565930615090791
0.0604599478085073
0.0523901283195723
0.059456583960714
0.0569114049103732
0.0599190294100076
0.0535452836589399
0.0620123245932633
0.0687987274005425
0.0624026139524331
0.0554030833603789
0.0595687521170839
0.0533632401310615
0.0588348988093387
0.0547924491161717
0.0562268185881492
0.0544402793658059
0.0582777812859091
0.0546415775925563
0.0580219106002794
0.0543492473149518
0.0581367856785289
0.0546634381007059
0.0568484528588365
0.0531233712654597
0.0558317072429221
0.0531794717450566
0.0569200293371583
0.0580141718228383
0.0680081287754567
0.0593453463817349
0.0581227429932004
0.0562199854154302
0.0549822235097696
0.0650288860112389
0.065669207417244
0.0522023618443857
0.0581264403863483
0.0544907901899995
0.0580912031251874
0.0530543372562202
0.056717968516427
0.0538582085287693
0.0603600562526306
0.0524715227415679
0.0579814696643774
0.0541475239142974
0.0547674164183133
0.0546180585391815
0.0590457458979274
0.0518626601679156
0.0567239362208468
0.0519624831094282
0.0565830519819372
0.0524239687215829
0.0572170464066046
0.0537230799497898
0.0559983747849339
0.0555949345605432
0.0604234396953272
0.0544510066428401
0.0557950566729146
0.0553723187697258
0.0558643934161277
0.0567002572160516
0.0683959933842769
0.0550222571938
0.0576999289608602
0.0531249264958389
0.0561105077886404
0.0532354830668446
0.0569904339172266
0.0519303699440949
0.0589989159336497
0.0536912932523995
0.0588179995017763
0.0539390903745562
0.0571868761439656
0.0518395071640751
0.0542342955039564
0.052020977985105
0.057191829364239
0.0529076936758278
0.055951232722185
0.0512375422342083
0.0567538849452542
0.0604207402616912
0.0774145997932392
0.0621565648659899
0.0657286430267374
0.0567039103291041
0.0591829529887632
0.0510930297331337
0.0561882085122904
0.0529462110234769
0.0590009870770539
0.0507849222581818
0.0586922015796231
0.0523599370142553
0.0555791108327036
0.050545949551314
0.0555522026510872
0.0496110709857847
0.0562482712654579
0.0518635716081929
0.0562974905789423
0.0488712852030526
0.0584020227178533
0.0497061622901155
0.0645363898250065
0.0548094725228619
0.0626279068047193
0.0498496524789826
0.0789449739577076
0.0747559250279157
0.0608557225179758
0.0590279482124282
0.0549085129641552
0.0568408445486877
0.0567580769566066
0.0551940385999023
0.0614168918278848
0.055298262352101
0.0584279055672119
0.0556059162261594
0.0574414313608724
0.0544954989123758
0.0554853052745348
0.055330379698303
0.0786841249632212
0.062236772095107
0.062116291209237
0.0544522948583497
0.0629465812987863
0.0737487388059618
0.0638704273773113
0.0589408754242101
0.0626949509837959
0.0560863395447603
0.0576029093779573
0.0566346580174483
0.0576111406208849
0.057625064794551
0.0611697913884178
0.0538794719483998
0.0613958817497841
0.0543253739043
0.0615748568674225
0.0586722611020102
0.0714193079515729
0.0688341146500326
0.0616251420913747
0.0609748692950689
0.0642753847028369
0.057715542779193
0.0599770099435119
0.0572430527618857
0.0592702033527974
0.066247021850126
0.074997477773826
0.06142185530904
0.0748771226893837
0.0650415377702433
0.0601696388456174
0.057952012446364
0.0706882062356728
0.069715316053552
0.0598150713292495
0.0636558451078747
0.0890115430773743
0.0710296530028527
0.0821748520174474
0.0613656016321344
0.069393265500152
0.0599773078930097
0.0675550668000714
0.0597114961960356
0.0804482691170098
0.0621676615331838
0.0693094903047784
0.0596181399237427
0.0782695221141793
0.072135481845866
0.0716662176298139
0.0661778701532725
0.0676625705612484
0.0660753888921858
0.07670656043328
0.0697923422884999
0.0644793946538856
0.0861713671919232
0.0966564406439182
0.0864130016803618
0.0747253366670913
0.0628531387840825
0.103786486273086
0.072664488766836
0.0750549574686609
0.0685492575885535
0.0708553608356456
0.0690845646829307
0.0709912358620032
0.0887173314069278
0.076402425921994
0.0693305461260603
0.0803559630117662
0.0653451318575982
0.092940305236998
0.0805491180271211
0.0762116970987608
0.0720526837501429
0.0839020204804413
0.0683355734166464
0.116406763941858
0.0913602542932386
0.0902463856626634
0.103405444181807
0.0937630163246071
0.090357360734251
0.090987289764409
0.0823080645483214
0.0966841432874267
0.102210237212264
0.0898080905089088
0.0784582210047204
0.101405154814374
0.11122688255212
0.0916689227307115
0.0963254443858947
0.0927142273560797
0.0852598343733594
0.127957463157283
0.146344557348672
0.124279304630542
0.101981902058733
0.101797608360503
0.124284303488663
0.107028608423889
0.101246254021532
0.100633982737022
0.101963680422993
0.10306111619166
0.103414634213325
0.118017209916262
0.10632296909651
0.114095630899621
0.108727651447653
0.111007155491946
0.126935335217036
0.160528128748208
0.153764858430967
0.125471846963147
0.157796518972221
0.14686147503835
0.132404174263607
0.126398317136141
0.12301496676757
0.137104695589038
0.130674735280172
0.132587967336661
0.127160103413195
0.161448176016987
0.151343755176205
0.143435845180507
0.164395022813387
0.141363748946021
0.150316359555173
0.142789379124969
0.297184553700833
0.183472371106453
0.174506455118163
0.176935058224939
0.170934012844601
0.259632717319412
0.191915638306643
0.19026790103631
0.192085404850344
0.199229199955708
0.202352499911346
0.220395253911254
0.218598871682272
0.23823875502929
0.232227561698108
0.234234922358642
0.242875198874781
0.32584220712133
0.292900699868183
0.284995055209068
0.26429265120685
0.291100449180656
0.294113334350289
0.2904947844977
0.298142983890818
0.300049018025782
0.303009223303499
0.375457026494707
0.323693884919563
0.344749821788823
0.335078868209924
0.397087464576566
0.342730072799988
0.410764627488306
0.39636119321344
0.382483706392378
0.384114515791012
0.38888895669865
0.403147800935593
0.402161098711802
0.453158041517442
0.44319401470666
0.4267343878268
0.443066958249411
0.437109921601232
0.4428688995561
0.446845526675513
0.462355661484153
0.455216534419787
0.515195739240461
0.480689846297646
0.622579163041585
0.505009560130731
0.465576748503181
0.477854854820447
0.473293032457031
0.520937756350211
0.498008574326342
0.511012181304753
0.50208321527144
0.471295750267138
0.494516764402459
0.472389323491602
0.487690516035739
0.478148648048374
0.497320561286561
0.475135986205388
0.526706531538789
0.484470554382628
0.505271594861934
0.555732618249859
0.488971521873162
0.487742134891331
0.484323342719415
0.47047823851366
0.479252695335567
0.464122362022245
0.48197264918479
0.498167606213135
0.469340160251237
0.469737668352528
0.468990737011629
0.487749701707115
0.496180632836511
0.443423554311671
0.459917517471078
0.433894674245675
0.450755659319163
0.435189570457452
0.460318245898808
0.484499668573788
0.437791141856398
0.430112293440235
0.436032258272196
0.423153648320125
0.430712210972728
0.406610214175199
0.41762793847137
0.425391496778358
0.419025371444653
0.415807636745932
0.414092560378626
0.410741435344873
0.41070832079361
0.413105481730363
0.414328640254316
0.406465542708858
0.409548836061045
0.398527636543778
0.409269010747621
0.397445416328045
0.406302088505185
0.407885800943036
0.408741402859577
0.400937498149618
0.403892857667981
0.401285364576277
0.399985828477055
0.397543135942393
0.408503946142588
0.397303043263757
0.407291330411189
0.393669460413586
0.40209343009231
0.398848927785153
0.402038865442927
0.390069635614782
0.405441105333835
0.386780127092348
0.398372364475651
0.382237757353953
0.401130314740083
0.384155991347273
0.445655973349599
0.422838942250879
0.391735033775944
0.389770706243868
0.380493817122808
0.386867796672016
0.368232231263017
0.427296884766041
0.396011332692191
0.372565428601612
0.37266017339053
0.360932863041264
0.380576034419318
0.373804587674835
0.356145570373239
0.374929078026262
0.345403638842939
0.385355294403797
0.426878825530192
0.384640261744894
0.442757502472733
0.359383113744822
0.35482365710362
0.33716875426885
0.391972514985855
0.334261777916911
0.350366558797507
0.333055499911299
0.385841479483825
0.352148090412293
0.332725597996415
0.339091167677827
0.326631210157086
0.346484702576337
0.356747007364723
0.333098310695553
0.350135853027141
0.365089323808323
0.337440783519092
0.378576720611842
0.382748769715297
0.348790831893971
0.316241652614702
0.314692382771804
0.311299043528801
0.300049627211091
0.365499974566098
0.310012763653698
0.313429901676197
0.294026609357107
0.284044850160317
0.294535729698245
0.305471857164306
0.303578747299444
0.282026251315699
0.328838201950961
0.272234523051773
0.28991827066441
0.293518784832929
0.303419583164284
0.325000363411691
0.283033122116972
0.27019530155258
0.285229368917861
0.322282709614252
0.268152906455043
0.285041367923419
0.254610608352332
0.259399666540275
0.282285635567791
0.252931201252625
0.261330579772831
0.27353886228329
0.256581007396338
0.31204449032009
0.303712852859981
0.289740214628992
0.251571663119488
0.23457484459994
0.237368536469809
0.238337740134664
0.24111878894343
0.231941549173306
0.25271466428022
0.262579058942074
0.220152087597332
0.297971598101505
0.244810038746109
0.24322488734831
0.242085419081986
0.246880000961771
0.246056648242729
0.279134716949362
0.284045184575484
0.272189137282613
0.254839587406945
0.29053679931436
0.252643883214659
0.274016147348805
0.261825548274096
0.279828953685086
0.271662167151256
0.298052159671399
0.286819511383259
0.29809336225016
0.295068571408762
0.312617626464563
0.311494031498436
0.364256639740363
0.307030193712294
0.366673195541572
0.34512099538841
0.398444693955941
0.364129052472925
0.357665023826897
0.368304405279615
0.371101546749934
0.374300758754541
0.38275813134459
0.377685765178947
0.437945049264984
0.389456322847761
0.409377465607682
0.39470058639134
0.416119580823206
0.405229790104412
0.454834238768376
0.435207471129672
0.477910463703915
0.482676594462617
0.442969057443229
0.450625703435066
0.436127547303852
0.450292549077546
0.452752332263181
0.441617299772556
0.453380548089977
0.43843297940675
0.483582304900721
0.45041166888905
0.462996108748041
0.466808202378639
0.467154151192196
0.462613630537088
0.475204929625355
0.474930251834474
0.485393693886734
0.476540756505173
0.497924597089795
0.46969309646568
0.58263268386471
0.504473789929645
0.497441534263649
0.503576132340456
0.510682026075873
0.508001674238935
0.509120700474895
0.5261725771363
0.534445238497202
0.518760405073364
0.535307028200639
0.526524203333199
0.5365480770548
0.541654026645715
0.574961993920126
0.536980430284526
0.553094280441742
0.551015821391034
0.562955832404284
0.627051951700567
0.571252215721945
0.596468328245949
0.566466581045516
0.575003658441291
0.568479276092357
0.575843326919887
0.568371894485409
0.581639883150603
0.58034811108021
0.579848074081224
0.574908090022754
0.572348627963688
0.581506795529503
0.579101314526894
0.60816403634279
0.577663656497558
0.57702490638001
0.574164977487367
0.581514108986098
0.576076812151714
0.595625765135262
0.602462922613253
0.581703388759623
0.58532248151312
0.575840976935643
0.594486626852394
0.590634484206143
0.570109230927395
0.574917933914927
0.576882116306777
0.581629514773837
0.57695507046049
0.577557639397031
0.61428974716806
0.584735751730249
0.587584600019792
0.587675123011499
0.595154327605554
0.592684891436646
0.594472598835269
0.600176133729536
0.59940475580946
0.596519930872933
0.600512197051917
0.600907651107393
0.601892559313219
0.616250772057041
0.617664357768307
0.614477882091204
0.600018444671385
0.593966948017918
0.596684047281944
0.593078609019528
0.596233457144557
0.585313754866641
0.585094373624879
0.579978970723692
0.574506288084209
0.565774868198991
0.596423684691322
0.562099330513479
0.560799951265797
0.560113514565002
0.543262530962978
0.545572258713926
0.532195778469964
0.536843208224195
0.529971594245966
0.532880356797604
0.522924989791505
0.528771257041541
0.519623332791205
0.521862795368336
0.521829991977491
0.520391801521661
0.518447151148068
0.509117810476726
0.51466967624494
0.511043920611367
0.513378958556804
0.508256765823559
0.512799794511548
0.510868906943766
0.51236612114151
0.522949510226817
0.517221976207981
0.51575743959628
0.506478394754565
0.51333317860328
0.500335330368337
0.513254929433322
0.501677099646938
0.508181061295636
0.503286102167056
0.507476738031484
0.500954574737719
0.508878644706391
0.500287670367129
0.509776953742761
0.50610161242878
0.504928842670278
0.498628494282271
0.501326778607912
0.497180796299427
0.502848233347471
0.506929176753809
0.505835067913968
0.503168527300912
0.498463939369427
0.509061016950291
0.499866666517723
0.502596893591884
0.498654969951611
0.499997949968019
0.503631623006225
0.501006700238644
0.506369535828754
0.503949851604085
0.505163606063761
0.503477880942665
0.503805550510847
0.497394109154936
0.499161212809393
0.489050366523767
0.49425028293397
0.49144433125646
0.487135257705946
0.480014218540369
0.476899418863918
0.468638700917228
0.475865309595419
0.4656500315077
0.464071482554058
0.458944580699922
0.454049547853089
0.450818418557479
0.447210007902113
0.447328933192761
0.44275337602661
0.44143859649421
0.44231716089907
0.435769280872028
0.440363407240441
0.438107678963002
0.435144979304515
0.431807194768349
0.432593088100248
0.4335753516653
0.434253322203123
0.43186353704725
0.430599080991457
0.430075828398492
0.431340908673506
0.433972669357408
0.439694751635713
0.437362906527378
0.438507298916644
0.43762041384193
0.440454647857196
0.444436483542267
0.452176531943832
0.449596430640822
0.451181159756591
0.451505716218718
0.452803237442812
0.45384636216643
0.457960250940126
0.458000930083178
0.461709483950674
0.460377686506795
0.463545105339433
0.460480109252454
0.466345994712369
0.460142092866484
0.462632991542754
0.462153375832487
0.462827932509048
0.459068242924167
0.461894530608896
0.457423885351584
0.456068084854473
0.452323117904911
0.453309749056098
0.456493653506782
0.450626401847437
0.450273950000506
0.451037925674565
0.448036226341205
0.444613355601065
0.441697292138574
0.443965886341501
0.441838898174056
0.44160411198999
0.437355186409486
0.435005233462877
0.436195367556676
0.434714716323531
0.432331779081326
0.432083795884588
0.42954850295814
0.427219628573108
0.424749808154116
0.425010426125669
0.426163729309693
0.419596245104863
0.41876552570867
0.419091868878443
0.4202671722317
0.417550381360091
0.415417525788254
0.412879941931851
0.412034583528647
0.410057530036139
0.407101643045482
0.408025567501732
0.401205470999512
0.397325579092638
0.397288706332617
0.391133792021938
0.390090617033828
0.389114218633861
0.38615551703323
0.383954256035906
0.380056993337305
0.377300306377586
0.375491276655959
0.37143888507558
0.372232696287785
0.372512147270853
0.37005023013598
0.367626225575068
0.365758872126997
0.366585460611723
0.36554051573842
0.362689302806636
0.363308011740646
0.361545240692787
0.359696643053325
0.358580285596368
0.35347139422413
0.34952847154924
0.348081806062216
0.341667242593412
0.336402795213226
0.332679404139076
0.328553415809421
0.32374502567279
0.324283980707861
0.324328019305274
0.320416098509534
0.32306967057621
0.327181772815843
0.328792849274832
0.333259168649306
0.342132734282777
0.348945553219432
0.360022686519799
0.371634962986503
0.382842120513449
0.397195109691396
0.412843970828872
0.426125183115144
0.441208093310313
0.458844357672143
0.478838108007442
0.490651785215356
0.510514241253759
0.526045122495052
0.545478315379788
0.55836683158717
0.574477881298868
0.584253804813445
0.602226145322688
0.619310372294963
0.629331839648241
0.641753553194479
0.659191900355331
0.670280151286965
0.681971328515665
0.68764222685611
0.698483423483287
0.709803047956193
0.721755003106028
0.726979754747
0.731532329869537
0.741591982401833
0.746121854030109
0.744657811336043
0.752586770900252
0.751075213085189
0.752002569136374
0.757902531141882
0.756056187114532
0.757787157081063
0.756984761765213
0.756179041446005
0.762116469465905
0.758427964930541
0.764730583492909
0.775122384976635
0.770695049975844
0.770233670895919
0.780661078627839
0.789345785872036
0.790742504366841
0.788376761189166
0.803669912588232
0.806383754164289
0.809801348661272
0.817861708259796
0.828670285206995
0.841534924771756
0.849068156429808
0.860971000352851
0.871863339210498
0.87847025798828
0.897681420883906
0.91277424862377
0.919891945445529
0.930368302821219
0.941891910187345
0.948744831101048
0.958814854329167
0.964609448086422
0.977010149262472
0.975752168617441
0.966788664033378
0.97424292893511
0.972750341455049
0.974007660280846
0.963571400004492
0.961992236827977
0.962604264112596
0.954392337024768
0.961052789201827
0.96599541025955
0.958461106385633
0.970812701978206
0.979224231611365
0.996637407088347
1.01206175147708
1.02650558190308
1.04306121395823
1.04899588221021
1.06089248690735
1.0894891963382
1.12213863639651
1.11570623801546
1.1323808382693
1.157070208021
1.16223681137066
1.18441816964403
1.20661789103293
1.20106046274756
1.22353552234467
1.26457352056994
1.25377518298666
1.29823977670462
1.30362893524161
1.33245381355796
1.39631226280287
1.38818723206558
1.38804847299794
1.43349020996703
1.46554190752072
1.51747376168423
1.49044295085047
1.51919864217194
1.52720215114862
1.56855371088662
1.56610561504853
1.58044962815539
1.55482552646357
1.65508524829333
1.62122183330749
1.63011085530619
1.63163661404178
1.65426754560853
1.66884971574542
1.71620344104911
1.67590868521814
1.63875643146252
1.66720899998653
1.69138004254577
1.66971723130754
1.63954524280957
1.62009978193539
1.61026558888098
1.65360015300246
1.68819174358462
1.67104541773724
1.68113434174097
1.70118490819297
1.79855633032762
1.80193986211931
1.738596931324
1.72041534786379
1.70091472273318
1.75542631599708
1.78512841880863
1.7843314351116
1.83537721981365
1.81532939438197
1.8553910568014
1.86043183123497
1.89535175391803
1.8668430704033
1.9685831075467
1.87258058235122
1.95234016950565
1.98106767035312
2.03856466555182
2.16368209866978
1.95792173418894
1.90092023947205
1.96411623732456
2.12667912047051
1.98974008808003
1.87499100312235
1.90023306900474
1.93584494161538
2.1705168700703
2.11253445473492
2.08934827273097
2.08454453334449
2.01039444855382
1.92675564349511
2.00190362040147
2.00946309046766
1.94774311964907
1.83763932083111
1.97284499712284
1.87108747601801
1.82887397190695
1.93807244068119
1.82829202487064
1.84274154155533
1.79175555309652
1.7247585825717
1.62051182029867
1.52952140737367
1.49941754069793
1.4325118574108
1.37129197597289
1.36067594459465
1.34415885342429
1.25223887144863
1.25774348289499
1.27150437247997
1.25222303206378
1.22821961688018
1.23082505689503
1.19583058057118
1.1822978990649
1.21098614174758
1.18657242864504
1.14801660108226
1.13256639856417
1.13833166104946
1.1325640916099
1.09224912003953
1.09751613065472
1.06616870975179
1.03904839361888
1.01511331288082
0.982689213426941
0.952976892256911
0.918021699875567
0.893012023169437
0.871424573742929
0.83791722445052
0.803551818337523
0.765977551381973
0.736229781557444
0.703790061534992
0.667611142577869
0.64027336844129
0.608740741629697
0.577849153978229
0.556609072818033
0.52962546793275
0.506091186432969
0.48526637072591
0.470949930257589
0.450534060625538
0.435729620784379
0.424544682685133
0.411289721351687
0.401604726989004
0.398105171614756
0.390382886527551
0.381761796775643
0.37155155635118
0.370349803793583
0.367744733065099
0.365769478042857
0.36314295754277
0.359872769579304
0.360521529356196
0.364027614817622
0.364970440600534
0.365671119763498
0.365386317578756
0.37008287195422
0.368002347149267
0.373632775433488
0.370673590484956
0.371228823657212
0.372092243305081
0.37008253878496
0.367059189771314
0.370090559140493
0.360472191065561
0.354641153951365
0.352531262536801
0.351652207351549
0.34797871464577
0.343871218378643
0.338395092976834
0.345024840667328
0.344136719248309
0.344167087966303
0.338808733460996
0.343809730701133
0.344759723965858
0.345341326236148
0.353311509985687
0.359090114219506
0.358584561928154
0.362732608063089
0.361834724343165
0.373354982899129
0.370075723567805
0.371205087703416
0.370660861108947
0.377272973190578
0.380621111845599
0.381154366482561
0.386314674393565
0.388724144685355
0.38402800646496
0.383942620371291
0.389262747563554
0.390365508912746
0.386885805100329
0.392382840939588
0.393491685920221
0.399678951381554
0.396575662305496
0.405423921747473
0.413314585607673
0.4132795666944
0.425204168005888
0.435464168997102
0.438370744684751
0.457293275310249
0.468234292809897
0.477095608805071
0.487945054737724
0.504084354353433
0.523746996784694
0.530374476898522
0.531844920540856
0.541760621824777
0.536968835975682
0.536913820212389
0.531307735007616
0.526746476435511
0.516212479103293
0.502896393022441
0.48789145421472
0.484694602527499
0.482096569324601
0.482116261315931
0.473702515965954
0.477759180288389
0.478889979343983
0.473020222514618
0.468841939368681
0.47306354737042
0.472304923868
0.47466571079619
0.475507557021824
0.47348055772576
0.457103519216504
0.455866247621164
0.457470581153463
0.456167081488654
0.447617388132038
0.444133983733174
0.43475296044477
0.428563250612229
0.425452129280669
0.425720891718658
0.418186023078249
0.419505789334366
0.417909585137709
0.412840825508223
0.410532575455365
0.413826648743306
0.401361018145764
0.404568892155039
0.402868641712058
0.396910301553881
0.394493120641335
0.397704734382396
0.395476201669899
0.393765073837079
0.394617475918387
0.392717130309879
0.380871145217656
0.387709586606698
0.383632899939691
0.372352325545174
0.375201882304045
0.374018087645517
0.36920468025445
0.365539418951765
0.364892748481876
0.365462960940328
0.359516849803691
0.36108172576661
0.363181387865211
0.354603874231108
0.355332384941793
0.350213635099581
0.347261228032381
0.350540574980164
0.358793728314518
0.360923791619683
0.34556170215155
0.353217085176185
0.350018262408243
0.352692022061182
0.346011154005651
0.351968812076381
0.368400179294712
0.354109405991894
0.346008066377285
0.36537457322663
0.355330945499125
0.364146391461653
0.35803236089367
0.358321319767229
0.358101777706608
0.362080274447823
0.36665531731933
0.352896088595584
0.37139329283921
0.382242458623445
0.360591311154895
0.368768306831509
0.385110109755547
0.398215706267457
0.378646851499689
0.379399333134447
0.402118928840398
0.413115731084263
0.419046440118329
0.426363938601711
0.414373808399781
0.406947191756809
0.432656052641088
0.448147105141328
0.457573157382864
0.457830604366332
0.467000063050081
0.480136761860985
0.478500455057414
0.512170254646272
0.521711416075615
0.557706038414681
0.581733470677723
0.563332434359207
0.585469841847135
0.618724365573073
0.602000934898502
0.609875825854285
0.621749203518412
0.629987054145826
0.638800144006271
0.653195135465879
0.639272081282497
0.666598453049382
0.669147837403178
0.640660501604413
0.620003085549135
0.639440172842758
0.645259645698111
0.608905188576193
0.612255276206929
0.66308720528305
0.633570801406657
0.613968563264798
0.608324716921558
0.606209351517228
0.634804878000324
0.621338418802065
0.606377115067776
0.620799092749185
0.605815586237113
0.597443808874734
0.587595715210597
0.579357608474102
0.587162868826568
0.571177814760976
0.558392546262641
0.576365236211094
0.538922440946124
0.54917463103879
0.54475649324575
0.53305176550279
0.564934891403597
0.533078084820835
0.515208649317616
0.533560928774656
0.536825979537335
0.541129463667874
0.551789067161455
0.562940227261767
0.569872190234069
0.533876430083774
0.579712397448031
0.604541571194357
0.580126511316135
0.557348221506988
0.593248373861379
0.615091749147136
0.584176432638415
0.56741049090903
0.590467885237524
0.561045792892745
0.586062690496083
0.600538866382323
0.538459362614964
0.576951205820898
0.593245891073379
0.559039791217589
0.555760195723168
0.597340238415342
0.639135673513102
0.611009831617329
0.535909817651901
0.555265951962859
0.571327277203277
0.639641836046779
0.682617519063367
0.627046599998508
0.642892296941537
0.605601192009927
0.576879498068231
0.645668677852743
0.675693755605481
0.666830303666983
0.686082699044389
0.682862804603705
0.69921478370235
0.757437594543244
0.69108565585241
0.68346996071088
0.780527657903893
0.814106299579495
0.791519917484209
0.82161391964513
0.8766398945351
0.73729278308615
0.868882261244652
0.855905194751093
0.771969034496171
0.671284416200626
0.800415072936397
0.890209804766168
0.797043702179515
0.782091069102409
0.760196138856673
0.833691860231241
0.820026130471643
0.838686147363753
0.761749204743702
0.74597825220879
0.76288339685219
0.738730402408016
0.816217276390625
0.664760190734845
0.611596497394192
0.672227240444111
0.705894143010985
0.813198666847792
0.775718436618726
0.812795255890354
0.772345976321761
0.686709925467145
0.857113900288399
0.873333306472014
0.782253829607159
0.675594070337912
0.78556106204052
0.791522971873616
0.7954858663532
0.935772720345409
0.695184626901773
0.851905712672491
1.01505763729486
0.802903229625879
1.21263341224202
0.901338241566134
0.586269509402586
0.598812034551346
0.636357763334191
0.707098921701712
0.923548695235863
0.68469315671233
0.992489632848416
1.08096013360055
0.961113560879735
0.57931829633983
0.893676296316875
0.872513488741257
1.32312891219575
1.06284830324665
5
1.08563442903688
1.65975739183863
0.654057102974102
1.16333183424524
