3596
4000.36533379555
650.420452594757
1
2
2
0.0895750557998882
0.0922105023143728
0.0747831913092297
0.0896524479545569
0.0869844352224824
0.0898947823186085
0.0838182421617431
0.0863999410654681
0.0857178742631251
0.0945968403806297
0.079097557614411
0.0856055999722086
0.0843166969067052
0.0894247108628413
0.0837345699974644
0.0851464013702276
0.0817458237881735
0.087248315556116
0.083025121901753
0.0941835666244439
0.0685290472708498
0.088322699934065
0.0845350814187874
0.0838674112009868
0.0735733970354582
0.0946378967681167
0.0830852928458027
0.0815814980635547
0.0815593826308893
0.0902280410929607
0.0774895414541922
0.0890359036384492
0.0799649151488121
0.085598673977503
0.0818899036714501
0.0844343607917906
0.0819070210851059
0.0895251389365097
0.0790803851314711
0.0966373129141489
0.0946446351315161
0.0817537321574934
0.0834276945198084
0.0919258983669591
0.0718528200447974
0.0822140945687393
0.0816313487337489
0.0777801749539783
0.0832123760700079
0.0933505615832458
0.079774140156774
0.0827071444478942
0.0858437830268542
0.100343175681282
0.0835519301484046
0.102746429506198
0.0857767765526235
0.0883882000160551
0.0796217337914682
0.089984080540196
0.0886307898657786
0.088513322756258
0.0811945275221372
0.0924819347657884
0.0776445931041487
0.0818281310432988
0.077494888954072
0.0811270478301797
0.0770265760868612
0.0831913255621039
0.0777689092990503
0.0979936779031496
0.0988452464970892
0.0935650250675438
0.0847323343583814
0.0840748352110979
0.0650578508682907
0.0814287806691401
0.0773196018389992
0.100407521771161
0.0926569020177089
0.0880880588833379
0.0793060701120826
0.0828111414530594
0.0820360557278017
0.0963158546657671
0.0747235890190381
0.0917134033062292
0.100823701544309
0.0841125988841598
0.0765700737931114
0.0757761269307521
0.0717833342805624
0.0813281693751825
0.0735205828529291
0.0823370480213342
0.0832434525504203
0.0797446535345383
0.075621295983889
0.0835098331211684
0.0892042675090056
0.0926708926051626
0.116523930936106
0.0784242518014887
0.110324664355693
0.106441398674812
0.0631931357255848
0.115437152420468
0.0873998388104503
0.0865861299901445
0.0711786567865161
0.0850019497760212
0.0745132305419917
0.084761527904131
0.0659873348888679
0.0985819060965289
0.102450859998133
0.0836952095652034
0.0805107217903615
0.0771050703022934
0.0726033326955722
0.0953219303844116
0.117665221249353
0.0842072100905652
0.07862780006783
0.0715641357434803
0.0660903429322897
0.110889090851713
0.108107161643275
0.0834059220306708
0.0777110924283683
0.0724865506313458
0.0608583784306425
0.0731555523261515
0.112069562459167
0.0875484377028796
0.0730530256116987
0.0675733092089536
0.0937569933231533
0.129108523999051
0.0842429470395296
0.0775573895680004
0.060421285742138
0.0857535179819472
0.115463060223809
0.0874694027449767
0.0712766159156616
0.094838757684285
0.0851616065824012
0.0740884454372378
0.0711723079645992
0.0748052419255559
0.087700378415135
0.0854232198873976
0.0413157843719639
0.105355229633526
0.137981880715263
0.0976370365045351
0.132581416269735
0.0805276236663611
0.0781597970576093
0.0821441488403992
0.0639940462648339
0.0712947699654171
0.0765307691793833
0.0732775046530731
0.0853103473874118
0.0989890923159039
0.0740694070998553
0.0901759517884729
0.10045291693748
0.0792895143223227
0.0738346705941165
0.135799246799922
0.0927232086445652
0.071727088992708
0.101400735134609
0.0822515705701669
0.0616425624382275
0.0782949921361959
0.0959237327275683
0.0752085597903826
0.0792400567162513
0.082275353497296
0.0706550956814274
0.0891737984768968
0.076862883953457
0.0727041861626707
0.0775618890628304
0.0610875507940815
0.0785326120061195
0.124485125285057
0.100709146813991
0.0778009007752888
0.0808176845251352
0.0456181752580838
0.0946388426237021
0.102970582850222
0.0652791828699465
0.084013975934086
0.0696744404923553
0.0706544474740469
0.0721579822008973
0.0801300070335138
0.0670924140814116
0.0500030622859532
0.105021623363644
0.10158871597162
0.0699460635777232
0.0774472553969228
0.0750454870536114
0.0727613303263696
0.117753623252936
0.113757533709552
0.0844434367440315
0.0675421269902279
0.0659884926630845
0.0941459688602429
0.0860774995164085
0.0771894415199137
0.0659559736029273
0.0702439818785204
0.064079526851231
0.0769356673078923
0.0681640497098297
0.0759730884606232
0.0749949180810323
0.0788328717340383
0.066722661291526
0.0732433640062653
0.0776569158700526
0.0808283495477855
0.0731485026744363
0.0724191133347756
0.0729284902022063
0.0881201035354839
0.0921486086450022
0.0758634239285081
0.0684497740653786
0.0715105859521109
0.0688712583604529
0.0726255460980808
0.0770944929906453
0.0772413710741213
0.0625519508402051
0.0714757805726772
0.106522619811105
0.0868081694163772
0.0708641156661311
0.0679859236926296
0.089713213588014
0.0923783665148722
0.0721056679007453
0.0830614499603526
0.0714951293721369
0.0714466499600552
0.0711231414376279
0.103166004592223
0.0832830940363837
0.0738230898036463
0.0861495056458117
0.0910878770508943
0.0759992319780142
0.0696871064162495
0.0653016321940794
0.139034302889807
0.0934269395897266
0.0684671276404263
0.133716706919773
0.0905626852015471
0.0836229984550063
0.0827435474058382
0.0337760287251961
0.139011771474114
0.131720763735557
0.0845727265668778
0.0733463062583577
0.0906591573419063
0.0781574624934514
0.0793881306920105
0.0746724904636952
0.0881933535055833
0.106892654674695
0.11535456490727
0.109140021469622
0.0757843751702457
0.100589713357312
0.108424306502299
0.0797608851603058
0.0900212244093185
0.084977656021401
0.0811509463961024
0.0904577201586054
0.0981572791817411
0.0973494524185753
0.092722034706791
0.0870380199418315
0.110855247362865
0.0932154331573371
0.0761430300397787
0.0766748794716734
0.0918136008073228
0.0815655596729686
0.0808261331720906
0.081682507389435
0.0860905032988068
0.0712063440546757
0.0938611502641002
0.131413700773528
0.0996357075170626
0.0860109294536387
0.104199709993644
0.0860078255844655
0.0857211060441408
0.0807520020975718
0.0947612316776
0.0881155501395074
0.0792914082876821
0.0875521674441162
0.114628662332479
0.0896370837248122
0.0848456051038566
0.0804396702607076
0.0838646801039456
0.0881103625824887
0.0904884837903348
0.0867466710957781
0.0850104593217992
0.0857546880725777
0.0825297585394197
0.0992862262296473
0.117788757444273
0.0788751884491663
0.116926807164782
0.127605412267382
0.0959344434535497
0.0947901383384007
0.0923556649327241
0.098420592766648
0.0865865218543177
0.0956875328219515
0.0921589012935499
0.104655203267135
0.118206120189276
0.106611180644759
0.104304758829117
0.101709315029606
0.156229548939941
0.155658302752577
0.124001555096248
0.105028837902336
0.0916265548854522
0.131664683095223
0.12885750027536
0.124902164886535
0.142006430541525
0.106791753398767
0.115813398753617
0.108808133858186
0.118703200328268
0.120946476831942
0.118094462247454
0.111078591384813
0.116212681270814
0.12377149299988
0.130121830091394
0.119162801741105
0.131115954203997
0.161713419216879
0.137959404720742
0.128082076731369
0.133941957781566
0.122914942274731
0.165440274299397
0.159494820189851
0.180788147217364
0.17269414840822
0.168079835330348
0.180838763015115
0.154945898724791
0.146043192815547
0.146015611312185
0.153951355406152
0.157554404546637
0.152012428679377
0.161107441063342
0.15859756738025
0.163880039420339
0.165779827045763
0.167540203467197
0.164962427185365
0.178397865245774
0.195894168585725
0.171085364738712
0.177001563430332
0.175044258394247
0.179419792502003
0.243597357668091
0.23264511675724
0.200151312958581
0.196515089905702
0.198003572991334
0.189818964800783
0.193402531599407
0.208333156251321
0.210695230380045
0.20815181547707
0.24649034928758
0.230815508807995
0.232579693091741
0.232595861614894
0.214419816878136
0.239915456508132
0.234436631750561
0.26008328443817
0.262062650825435
0.23863329497318
0.231057657074803
0.262680501687867
0.258278154477159
0.263954184368614
0.269836799960905
0.258732758873044
0.257815183040374
0.259698050549824
0.263179557918493
0.26119924118674
0.264301878526201
0.270116331206713
0.281588788702145
0.287490852874094
0.281189991744665
0.281400115213275
0.302812707581007
0.294618259416459
0.294157324900864
0.308339770154756
0.304003719247134
0.305623756339776
0.290001438121659
0.343115115333381
0.334293423188663
0.32584884638788
0.329403716654021
0.322723616914901
0.328275143315956
0.326613860109335
0.31777891207397
0.333574809421731
0.337667396480257
0.353889581975452
0.349386693576376
0.350056908469134
0.344894272240275
0.366160355672105
0.34606520092234
0.374837007376606
0.373168416936051
0.377639644922044
0.373902791794796
0.378090048446577
0.375682362845029
0.422602201941112
0.416516404212775
0.423371731262809
0.406467122404596
0.402413523117886
0.40290355970796
0.402906905285679
0.410468738111963
0.410850864158413
0.412662544847069
0.449338950853651
0.43481168767718
0.44714219073182
0.434762651413968
0.454532662884914
0.447708665901622
0.48056594265381
0.460496670947828
0.474198414169891
0.465399986985915
0.468157352421166
0.457975825121682
0.474135775942841
0.496780224093959
0.480265074111432
0.508777201749664
0.482840147774985
0.485893343378443
0.508308352156041
0.522296624838007
0.530587951604217
0.514566570836331
0.545332086461753
0.509167860373012
0.550001630214574
0.537710343336895
0.556479314644843
0.544955937558091
0.561332665859882
0.551461860907952
0.599150343669088
0.554843781684131
0.598696399467318
0.588701181848662
0.592513298177743
0.585988678654918
0.602983170667472
0.580194964822594
0.594280207774171
0.621742412644883
0.606836260062453
0.599855701789624
0.651006551665687
0.594632749819693
0.648627491706847
0.609677102902247
0.622220677855483
0.635920566625807
0.655560096091976
0.643337799773682
0.661777089468781
0.665919960336498
0.697315231640414
0.674259095081143
0.704895096113041
0.688398200488271
0.681348717312859
0.695393261785161
0.726700784528869
0.690803738957068
0.735344546386311
0.687295548057931
0.711375976102022
0.686766217058732
0.73058246405703
0.708139206012337
0.758644614101697
0.751919019232323
0.786743708375641
0.721524392127609
0.755778632802882
0.764753636348066
0.779466129314033
0.772469200858597
0.800575028528359
0.724010076779037
0.770921812500361
0.766625308965578
0.812022034224629
0.772733756282225
0.84597845523002
0.784424878565325
0.869064087776554
0.7985426535526
0.894177684589558
0.796564891739383
0.903608821172967
0.877663527854667
0.842974487273041
0.834368347494165
0.906144288059477
0.824539752287853
0.924962151110513
0.839436238436278
0.83394547008266
0.82233394796518
0.881947399858682
0.856051308887897
0.952328028370075
0.845183564575683
0.93724454351163
0.897682668120099
0.899191329598079
0.933053776445641
0.962987344560679
0.848254034027806
0.952188341638167
0.933946241335314
1.01303259504769
0.948963604461696
0.964404632863211
0.980542963284197
0.975325911845635
0.943115731835526
1.03620613541405
0.962960735875036
1.03185495332404
0.97990537046775
1.02598171564641
0.988852869874206
1.04464141685964
0.934047200411401
1.00237085599919
0.952033923783788
1.06341237128837
1.02031823325089
1.14037474687778
1.03356628623077
1.07326111047712
0.996907896878384
0.998765114173353
1.07288353602914
1.03658265263009
1.0110339764512
1.12258083118907
1.04083805842542
1.18597571218148
1.00288661307546
1.11952217574814
1.08163744426844
1.2169923409037
1.067262326193
1.07792160561116
1.08591206260235
1.20163866461832
1.01339097583973
1.15345713488068
1.07753869155988
1.12794337165371
1.09525526402434
1.1717136286637
1.08677573674126
1.14570542850845
1.07691168625687
1.23797004546477
1.14758805154317
1.1120598260047
1.13245950434397
1.12206888854321
1.09737724074531
1.27499691961968
1.09895676280681
1.20434581937736
1.23793261199737
1.39861681844296
1.2174200200697
1.26497276488861
1.08206585686552
1.19605902624674
1.15116219063017
1.34251918641681
1.12719861074624
1.35552075748428
1.13409091803828
1.36562965857289
1.14660555222316
1.31614975328411
1.20117828335017
1.27332926992401
1.26510715959177
1.26686852551524
1.2729545036432
1.17927207398946
1.33073969449647
1.32292993095229
1.15443826400214
1.41041030646911
1.19567599528536
1.32255638509115
1.23557753273894
1.34582606011375
1.14308757320166
1.27676255382673
1.25489891014947
1.32688917612976
1.20650243419206
1.29575266120128
1.18242959398636
1.38458597216972
1.34211983101123
1.30974778065554
1.34853586425386
1.37095421441907
1.39842063728841
1.33245192721225
1.26181685441088
1.27755730411161
1.25070978699047
1.44864885310116
1.38833705033966
1.48966444225631
1.22585930270638
1.39176223123491
1.34751740365148
1.51173170949823
1.43146857682168
1.32020137245854
1.43448651697969
1.51102745578683
1.38473364380843
1.53925102271968
1.28565613165978
1.41537810227196
1.40199755254691
1.47685007440652
1.19139612104885
1.47331899148628
1.23838331392318
1.33500056300099
1.33051140582012
1.39730753690373
1.39056785311491
1.37814519515364
1.29236550714829
1.38785684009045
1.34577335942074
1.51225202895707
1.23973894475332
1.48227586009382
1.46480520251611
1.53648974228066
1.29510714229702
1.44825648781141
1.44133655139417
1.48873833027329
1.33011256526704
1.36628784275337
1.43044204607821
1.5808514093913
1.36909454462906
1.46806252076801
1.30708141630484
1.54091010865463
1.44997344733601
1.38574686842404
1.37816476444991
1.65215499522664
1.38444191375276
1.47475402199818
1.39626293658425
1.38101332437911
1.33004572203397
1.63493718471143
1.30272606954634
1.50542872189797
1.46110342815585
1.44874877187707
1.4304907273203
1.52782155482517
1.35611788891336
1.37713883670003
1.410196001482
1.41910596033425
1.40534231662297
1.48957599489262
1.36574608052643
1.72671066191099
1.40614530645149
1.47668777768187
1.42451135376249
1.495964260803
1.32485023187802
1.47820426904487
1.46399906749441
1.43401240343649
1.31840350312046
1.37817060781748
1.3946672071394
1.37573743707934
1.38462952235169
1.57169824243512
1.43032093302457
1.57297006312135
1.38316572368539
1.6166812665629
1.38149702974277
1.40784438166121
1.31118063759826
1.44346914399062
1.42719833198519
1.45116870316866
1.37988157028923
1.51798831231821
1.43321224677133
1.36706784310956
1.35645918894589
1.47921927509584
1.44043681814454
1.40154679845635
1.38060506310557
1.34930302038523
1.4551842181888
1.50849761957375
1.31229962114466
1.54714405948442
1.27769755414729
1.40692591728667
1.43713875545017
1.51634149059434
1.33780995612392
1.40741109254356
1.44240574062142
1.35261492209799
1.32998534405174
1.51671368982873
1.39220025729267
1.48178518245699
1.31975097532716
1.59563451671005
1.38760260330767
1.3352392278093
1.39497613441648
1.34005499850318
1.32622726841625
1.37956702908736
1.36795949170386
1.33313468533132
1.28444569863172
1.39107396654494
1.29338515535121
1.4319381668345
1.28906963388792
1.38368037180011
1.30147036933271
1.37711622809364
1.33549992664638
1.4145116775937
1.32378945117691
1.32254164583401
1.35168634993232
1.39596663859206
1.38678685627499
1.4540526781503
1.36035765411567
1.3614554933394
1.39624979163424
1.32643402129592
1.3095571340247
1.36563860212705
1.34744231155364
1.33951938963616
1.35521094257613
1.3180629240101
1.29638911762019
1.41389460983118
1.2904297085672
1.22107557322559
1.28056387412906
1.2934963002043
1.26755007075875
1.35333612758464
1.26553405144043
1.24793003655706
1.23534355061374
1.26456192236631
1.20898934752579
1.3632407057937
1.2336787948383
1.27834471440825
1.23942964204196
1.31807109258531
1.22811930345904
1.26855273588403
1.22237745622785
1.18618056532369
1.28956089111127
1.26826069171167
1.17650314758223
1.25436189671151
1.2405608070263
1.24217945362856
1.22503711432452
1.17323974653261
1.21106782139815
1.29198689583304
1.11570316411601
1.24101515375725
1.17322896100498
1.13404928898693
1.17897138262668
1.22547752338311
1.17114099016626
1.22247450158799
1.17375624765347
1.15841294122823
1.12364361318025
1.16156989656395
1.13983760023328
1.21329253324793
1.15301155204395
1.16921267401539
1.09273060839368
1.13099240995566
1.10349444593257
1.12243102102604
1.13602411688226
1.09538737877757
1.07927694798719
1.11432592792067
1.0780610614335
1.10189352052084
1.09527344038055
1.14024187642872
1.08709121578861
1.06631496430473
1.07033107428775
1.05155999925872
1.02629016062618
1.0288095901934
1.03457404305968
1.04782924362605
1.02259800445462
1.09844213485871
1.02619370655539
1.03441442367346
1.02995635255263
1.02776642556714
0.995735307100041
1.04929760185987
1.00331625128372
1.02997188189735
0.981454224523523
1.02623997132532
0.975580699650711
0.987730201849264
0.986825488562999
0.974850447212418
0.967005379871844
0.961362400882556
0.945843827871364
0.957696103603312
0.971438426634532
0.968941024779105
0.930195605811779
0.913160327827519
0.91143715354162
0.932218357074031
0.908235659211017
0.924167319832827
0.956692802254048
0.897309897096816
0.882131860517599
0.926273515354563
0.927846478754951
0.898490108612222
0.910028398757022
0.892866866219241
0.887066638366763
0.861104487290888
0.89469084731588
0.879021852724019
0.841433066009209
0.852788913138695
0.841840472094709
0.849351896238335
0.815349731831987
0.851629573071981
0.830676227110419
0.853199029819206
0.817078116381387
0.82463143979961
0.815040704419573
0.825589533525263
0.788138012409356
0.816621174617399
0.792286856959358
0.819332396859769
0.812064564295241
0.79930083998826
0.776344578412176
0.797856399833629
0.775330873733323
0.795786818736769
0.752661975684457
0.782028366527182
0.750170900848698
0.745739862074793
0.752302216994478
0.766164843214107
0.742109944129924
0.757905014603556
0.736907708073385
0.757261862279857
0.722770781662438
0.731387235126908
0.743682154423238
0.759303804236517
0.719414044808588
0.719787729664374
0.70239459514017
0.71069695209406
0.721157490106658
0.696372893389439
0.699705715456103
0.692238220773236
0.717133492953974
0.700792102234432
0.671366660427737
0.708241524803948
0.671889614259712
0.68852342941381
0.690451704519545
0.679722552474666
0.675886726065234
0.664755342538665
0.660625205743711
0.67179040280576
0.654309684669948
0.650695777216743
0.661254981383628
0.655755660531998
0.6467540920031
0.635573089291107
0.62305009866209
0.635397032828046
0.618439369338252
0.641344863681148
0.619008856059775
0.634512539017639
0.610940217045159
0.627742404119308
0.610853781483435
0.621394307331461
0.609206150354613
0.60258358555741
0.593699275407511
0.601750416633369
0.59274299067733
0.610745706293983
0.584553615937241
0.582682050136486
0.572969744242291
0.576507546595249
0.580682388326539
0.582669921070055
0.570222235842559
0.57974468553519
0.566104507393416
0.571598744425908
0.561857790710351
0.568443083165315
0.555243626401472
0.554279003202114
0.542226227365107
0.549937007459897
0.543736961419201
0.547729846468716
0.538839302243988
0.549460685354844
0.526676897440961
0.538823543599507
0.537832461015253
0.534396658409153
0.526636327939032
0.516078483538402
0.533107154901261
0.510443531574142
0.513398662615259
0.526343181943223
0.50748002296432
0.516400269345983
0.514386297286084
0.520482658126087
0.505208421658284
0.511225159848742
0.499730854218898
0.487408799278219
0.491646605510297
0.498390504679222
0.491671648995429
0.502883634167293
0.493222078156588
0.497357222428351
0.479407659002869
0.498691546120426
0.4814678174588
0.480594655645884
0.473892704062206
0.47911205921606
0.482804390361128
0.477679457436906
0.476231431667855
0.480430708683383
0.470154170228086
0.472489172532591
0.474611197697067
0.478814332756878
0.472875484481287
0.472903463577767
0.472663837039967
0.475054916481736
0.470028868938124
0.483091566430468
0.468697086857131
0.468246023928164
0.471049080811869
0.484840109311128
0.482276451389594
0.472808211123087
0.47552819462704
0.479183139147322
0.481025466374594
0.491272845548358
0.485467378836623
0.486662095478394
0.483371487420363
0.495585192559864
0.480855869542601
0.49006026439775
0.487964912910418
0.496985224623781
0.497730090648679
0.504961215645746
0.48815806789354
0.499471245327801
0.503307593410601
0.504932056734329
0.501063109012414
0.51520843654016
0.514253022395246
0.5116519476354
0.504739427030499
0.529773711452712
0.524995406440535
0.518203842215936
0.527130817954392
0.537452160469087
0.527052518119
0.530246517297423
0.539691932341866
0.537165646441968
0.535466107556198
0.542237040075385
0.542315013888328
0.564343188578314
0.555393734574191
0.56680242849064
0.557483265441019
0.56815819250612
0.567457065869455
0.561994546711602
0.575339350415661
0.57746382667445
0.585282215350828
0.586977565293529
0.590631266934591
0.611016435381462
0.585912940654288
0.611478797170887
0.603048248569565
0.616860311284386
0.615292411162634
0.615228408108959
0.613752324156461
0.628673056676116
0.605060868339245
0.626740783279986
0.626798884618411
0.624555450560269
0.62787691530699
0.612416150868571
0.623033807137705
0.638534540078589
0.622148208158997
0.633014457607502
0.619882572734919
0.615532465666556
0.612200115692264
0.620049866691747
0.614434533881866
0.634830206717032
0.615976869667744
0.628004554938531
0.616707671144852
0.623844620812441
0.624513666995154
0.625370263574745
0.618022389857937
0.618306303799933
0.619602520948693
0.626486347052262
0.61592248845248
0.623564421585184
0.62066531380105
0.622430836527389
0.636675549802801
0.613979185679889
0.622558831500954
0.624718778095977
0.612539050214829
0.630608572805128
0.615252417273323
0.625628409554378
0.616764931491329
0.628920755633028
0.63468214523812
0.631642007358622
0.618882810488344
0.631911993396845
0.626620917195577
0.62558271467523
0.618881534212331
0.617325643436747
0.608812162967254
0.629557052718237
0.646610259286228
0.630180247567908
0.619018933793016
0.629074186284395
0.633168795158168
0.631509218206949
0.604717892984906
0.613113912028028
0.616067486416927
0.612043865896893
0.612328635329754
0.619181726644549
0.598782138037996
0.604731787981677
0.610245615377048
0.609584975594317
0.585479613723192
0.595868001203762
0.591684660538183
0.597023984875132
0.576494911183076
0.588724296454932
0.566804610365886
0.578869576243483
0.573437168618469
0.562390366522044
0.56381293035805
0.566899238673617
0.565802485555897
0.552783831598624
0.539230345017319
0.550182473933717
0.53369166263479
0.527016146209325
0.530496977114444
0.536076361697507
0.516747091981343
0.521177840680946
0.518154125387186
0.516832246202858
0.505774212417812
0.518922785991293
0.50494897310342
0.506316687045091
0.496620599021217
0.494185975250848
0.488109582528796
0.493797284443232
0.482217447044925
0.484891308818038
0.478157611554928
0.475178871464006
0.478813546047636
0.474734935619855
0.466586313004348
0.466378796524543
0.475466830629427
0.465941571802163
0.466499337261254
0.456718446769564
0.45348064939092
0.452278874257452
0.448442811354056
0.453882817113278
0.444563263059341
0.445818216304811
0.435394896029942
0.440378141972239
0.437689748829613
0.43628771960143
0.435176941667768
0.442426320713586
0.425619160052761
0.429090660517772
0.434574738253888
0.425687090773913
0.430401224959362
0.425863295802348
0.423109697710698
0.424033602266841
0.419624225513593
0.421275253979159
0.405822101510278
0.410608580845812
0.406848291730702
0.410953667874792
0.405983551197108
0.408564535120754
0.406880407250296
0.40371226423057
0.4039975375977
0.396622636535517
0.401713065907549
0.396899245744215
0.394839653405813
0.395700501337765
0.392615065296365
0.391534977320691
0.391483846131525
0.390266519176857
0.388968097182064
0.392305767647908
0.388397179745601
0.384713028836906
0.385206182602953
0.387260921930994
0.384244451126766
0.385559848061688
0.379113168100791
0.371553693322814
0.380935193234247
0.380362583004984
0.375981623879396
0.381320199152162
0.377714214961148
0.376352938031963
0.372208783743117
0.372048989641045
0.37415921549682
0.371477798639592
0.368315925602348
0.364569407006011
0.367368200910171
0.365045782434394
0.362208743153848
0.366999193015203
0.363356828445402
0.363087980309343
0.366900253881021
0.360896435469125
0.358214249939705
0.363258833491872
0.357197818699661
0.357057438872649
0.360134937612709
0.360343942424056
0.354052664404758
0.354960922038004
0.352118250882734
0.34905231795981
0.348485073372133
0.352820793207718
0.348361131686841
0.341823033938899
0.34803923970148
0.348658578192079
0.347006397065547
0.341191255381621
0.346149775564029
0.345749681590652
0.348868104946629
0.347619422405898
0.339273227085011
0.33948128230111
0.343735881885548
0.347463729423876
0.343415288010761
0.342831674448231
0.345747405707953
0.350537051646854
0.342581966539601
0.341127526677633
0.341247029921111
0.337412527051152
0.336233618817011
0.338503404110739
0.335545084122374
0.336366476368352
0.3367095607037
0.336740171930242
0.340205988700972
0.332559110456181
0.337423879212472
0.341240991534985
0.334424822654002
0.331696839845096
0.335168334796769
0.331364777166921
0.331355872613879
0.334470664946991
0.329756556990134
0.326306733435231
0.327243780304058
0.331724185502295
0.330259529291357
0.327829216868989
0.32658658569273
0.322692664555572
0.328048399500756
0.324120636772965
0.326113387679788
0.324416233162468
0.32631028219036
0.32336524620867
0.320342630585631
0.314628250696828
0.32406414695847
0.313680455459243
0.319365922631761
0.318274011728656
0.320646319957307
0.317699225358757
0.318101309938054
0.31587643867516
0.31338375048597
0.311400133579333
0.312740431641632
0.313617256510031
0.312045227193729
0.305766139200551
0.308818871662547
0.310882636043393
0.303141456600372
0.306876750846669
0.309590129615217
0.311027241812264
0.310625161744265
0.308214732178021
0.307155314741405
0.302392713207276
0.301147617480854
0.302485797906562
0.304094497923695
0.300096432081056
0.301587486833119
0.299906217288612
0.301983497112393
0.296623775577053
0.29596167641129
0.298031262677919
0.298825843289859
0.296557962229411
0.298336652720596
0.292808177416424
0.293941873588876
0.289951983975472
0.288632880571333
0.284439885399793
0.287117383974207
0.287075036037946
0.282555394427132
0.284543465300467
0.286047761097292
0.279786347445654
0.283244699959913
0.283374995279172
0.279584879281238
0.280480762226465
0.280044213966736
0.274661623199146
0.277399953941225
0.278330757877547
0.276971165043744
0.273531956330231
0.2719095816649
0.272900756646975
0.269518296104145
0.268432079336711
0.266469673564079
0.266028648396104
0.270007100162101
0.26194098994688
0.263870639081652
0.262616896908375
0.266374559092417
0.259784545060264
0.259933815883367
0.263403727493938
0.260679711662905
0.254187871090583
0.255035106677859
0.255578717599074
0.25556076907327
0.252714432876516
0.253354036345832
0.255858717927331
0.253736515532108
0.248185278703649
0.252206695169026
0.248180426736233
0.252909847629442
0.249521612205167
0.246927983410808
0.249820279709876
0.248602814895637
0.246768428633147
0.248742738565787
0.24505204453914
0.239214198643147
0.237615380861307
0.240770398260412
0.237968996430218
0.239297483731933
0.241994352555053
0.241528395904628
0.23881304195684
0.237484881365608
0.238868251356749
0.238047541756346
0.23399749712232
0.233756909726298
0.235500527642533
0.237262362102013
0.231019255038305
0.232095109159288
0.230492889527036
0.230666342483319
0.228411201646868
0.22900025541957
0.228680720380463
0.228546919037485
0.224983877027084
0.230305969917715
0.225337038826779
0.225296436443474
0.22644310717025
0.225918342012777
0.22231855439587
0.223966118309686
0.222696391539198
0.226208454793213
0.224723695544262
0.221450816895292
0.21663741799392
0.218019469795734
0.217497610809871
0.218094918477101
0.218353634075126
0.220205056185503
0.215783660537209
0.218394673279555
0.215352912796522
0.213483283119448
0.212381858771686
0.212938023428606
0.214999668599873
0.216414941471641
0.213840326213518
0.214137671717348
0.214347393030565
0.214349445547883
0.209736599110459
0.21411232368145
0.215348077180729
0.212220197527321
0.209178894748133
0.209925780995963
0.210714073345819
0.213227747838969
0.210896626620565
0.209359558035966
0.205154487263028
0.20774896754377
0.210464265091215
0.210964453909418
0.204892300019391
0.210203125961117
0.208931112579288
0.208438575087963
0.20448342010172
0.20763953354812
0.203458518100926
0.206505014630174
0.204666254927096
0.204402096698919
0.203905010352376
0.205100487377723
0.201109441079012
0.203845497277414
0.203622590260309
0.204448787387877
0.201985101995361
0.200744027743782
0.197235198048755
0.200511545586352
0.199425193959981
0.201208189996144
0.199948843645204
0.198321062833379
0.196757119299512
0.197932308533092
0.19495202219196
0.199174008463747
0.192812123785387
0.1951733618814
0.196461167498868
0.194664097619322
0.191598642565428
0.193858983333558
0.188746560278502
0.191113027719168
0.191848443675938
0.192043764162263
0.191443562374407
0.19468777090362
0.190177369243545
0.189011560911123
0.191460361338988
0.189790569738024
0.187861577096354
0.192597154687136
0.191751714079209
0.188178187199919
0.18423214423938
0.188162209716734
0.186666475475792
0.188975593533462
0.186193254908696
0.186934359631736
0.188516839027482
0.191471206022516
0.183759152411294
0.184208099234668
0.183761465725072
0.182419818827792
0.182965844520299
0.187744214376324
0.182585531962937
0.185200675554548
0.185347610791653
0.182891011264219
0.182093238625989
0.180477114265832
0.178670363241107
0.181536718045854
0.18050503958213
0.18001234273159
0.177232937529073
0.183051324331864
0.175132331938933
0.176865961574652
0.176192739083892
0.176525177129922
0.175404440884707
0.177754522087279
0.174553342353169
0.173711906640648
0.174394370689996
0.171018326337476
0.170544515852745
0.172416743480833
0.168226777227006
0.170057728389229
0.16895611281827
0.172508574323587
0.165139539077216
0.170052608719336
0.16646145916041
0.166007812817933
0.166431721105849
0.165787736658948
0.159910463251179
0.162644834960293
0.162096227376173
0.166702493898934
0.163404683368234
0.162068720134454
0.160243677197922
0.162272516304978
0.158909639465542
0.164118882287264
0.159609136079398
0.159335101693093
0.158492914646045
0.158779476561735
0.155960029577872
0.155264368085254
0.153232697888015
0.159879670453954
0.15561761887805
0.156073759364715
0.152021745003852
0.152136811386531
0.152002412391138
0.154411666641327
0.151583341906757
0.152948464874663
0.152472664890121
0.152533508577858
0.147563607795793
0.152024387266009
0.151122765975912
0.151877210966123
0.148481672087422
0.15290016088122
0.145856727679303
0.145909951921018
0.146480720614089
0.146479340421785
0.139690448233278
0.146910676629771
0.144983543382219
0.147201579114316
0.144068891071474
0.141126575097726
0.139241290890307
0.147274324150134
0.1395262284633
0.140953615346229
0.13851333583348
0.142841589200076
0.137617950888147
0.142718928258302
0.139089355691313
0.138749775427125
0.136226551240722
0.137686691495914
0.133540362001069
0.139028889853676
0.133370898978136
0.135840830364201
0.133760930450485
0.136566935394268
0.134412307630528
0.13513498567962
0.133145923787144
0.134451524141905
0.133195856980758
0.136151401285778
0.133241771254645
0.13119518812542
0.128449648203744
0.131621255943363
0.129249810319522
0.131262761109928
0.128864735439524
0.131824625593708
0.127082460608316
0.130308742919055
0.132728395115055
0.133930136555325
0.128385926210323
0.13101444962354
0.128795950124442
0.129309601263904
0.127985644636089
0.131081932284408
0.125867928576155
0.128641137588654
0.126443875379283
0.131199562792161
0.127745181337608
0.13199389087314
0.128098027074604
0.130061090485839
0.126625398321837
0.127864648671829
0.131501079558366
0.131897675354985
0.124994809917156
0.126626236017579
0.123239670803176
0.129506089326827
0.123007152222697
0.125366301997677
0.118511227044176
0.124355004180719
0.121475302457816
0.125681692960081
0.117755313642064
0.122657929293496
0.122326968509835
0.119686313150005
0.117306312613935
0.12938039872301
0.119324928071338
0.126623543112142
0.120681607197632
0.122406467285954
0.114327448756599
0.125352443737497
0.120457951279676
0.12564700248138
0.121312386749571
0.125817533134957
0.11292020283033
0.119811617065619
0.120908944138097
0.121681156494686
0.119406010816331
0.117764595492327
0.117372979067157
0.117522152738285
0.119064514615152
0.114952906695935
0.119670412066478
0.119570234937972
0.117922010354285
0.113191282124577
0.120385452805378
0.115834212330652
0.122617279767736
0.112571972082601
0.125700580903371
0.107599892620528
0.128994658872168
0.105687505395372
0.135691885281929
0.100084641542522
0.139632467127625
0.0934497965417254
0.137250129036727
0.0897923066709386
0.139614845261124
0.09542361162812
0.14044735168801
0.0924459718218934
0.140178431201463
0.100100189663974
0.129585445355357
0.106566747885644
0.126557703096095
0.111842533211698
0.118184741434387
0.118562378626984
0.108948862213481
0.123905657491689
0.106498330619183
0.122558486180023
0.106398118720655
0.121169737592665
0.111105023307165
0.116652193472211
0.110626077497922
0.109678608990769
0.111941156697103
0.110938994100388
0.11121137184572
0.111243492350731
0.108109666485031
0.111466618615153
0.106958091535434
0.112260182713028
0.108963370893918
0.11212808340903
0.109335969866095
0.109388300805702
0.109174454475721
0.111431351264732
0.109214710480491
0.108915487061389
0.106642208270683
0.111416721902881
0.107303487141215
0.109858943560212
0.108007898977266
0.108459225390404
0.107076345845087
0.109694849825151
0.107796004061516
0.111112039495073
0.106603425017624
0.110876770506196
0.106933292859796
0.111296309974583
0.106914695807689
0.109997317526257
0.105656369123555
0.111474892409891
0.107713050609254
0.110675492875263
0.107739704391066
0.108815597058686
0.10873048289575
0.108977243445955
0.10655896890673
0.107729465033502
0.10763038405591
0.109020661646753
0.109327481887986
0.109367289621798
0.107963934237886
0.110577011511957
0.105268802702744
0.111589136447835
0.10758272742646
0.109851703889771
0.108526903161777
0.110661369600956
0.105875695842902
0.108459289684501
0.108284428506731
0.112753186743091
0.107054408382972
0.110439042573454
0.107964484034033
0.111655933415871
0.108352011200416
0.109528793630541
0.106191259262157
0.109199116722932
0.105981352528974
0.109625783242822
0.104361550228967
0.11096206857942
0.10588420954568
0.109305101467478
0.106639876794877
0.110333862539748
0.10614894971205
0.10823468045859
0.106616684081297
0.112019301952984
0.109752920559856
0.108558852077238
0.106689494414095
0.114150867586746
0.109379428176167
0.108959682369755
0.109721282217181
0.112219250096736
0.106674775131743
0.109864639525667
0.105608784419888
0.111435714614302
0.109397642155091
0.112938631926176
0.110464250828289
0.112789662718435
0.107617965056548
0.110589496296784
0.109405772859091
0.114964358790385
0.111258100241766
0.113436165995756
0.111148281123104
0.113874447663424
0.109117927571666
0.112166440040045
0.109001990608189
0.115829536618527
0.109652891905528
0.112657554329684
0.112356374390311
0.118999481648482
0.11146886801092
0.112787647415592
0.112099374089732
0.114619574468057
0.110811546469698
0.113735793089014
0.109821471449111
0.114397475622872
0.111200429327165
0.113961193741984
0.112668955726207
0.117231623036525
0.111825993807695
0.114354822537623
0.114576359916108
0.11477213676351
0.113428469299385
0.11555268833192
0.11363346303254
0.113375945210461
0.11360806652821
0.116979716107325
0.112556444841604
0.117737352680673
0.113406117201777
0.115503785029863
0.112126969446564
0.117420390170982
0.114168020203324
0.114590052212497
0.112713605161093
0.118303183945931
0.116037788506477
0.118855281175743
0.113455328791193
0.118202272620423
0.11619015414636
0.119451146958984
0.115459456003988
0.118333496425302
0.114420200343811
0.120623907664559
0.114155627508513
0.118132078961673
0.118175856795035
0.12041367353826
0.116706946947441
0.119422492416955
0.114403660154252
0.119346984155223
0.115554446010842
0.119088161360755
0.117901422929353
0.120517516829378
0.115631859095629
0.118501580393542
0.116408758617423
0.118576007630957
0.1177169056561
0.12141410196919
0.117696529937498
0.120136111324522
0.118391158456608
0.119497323323946
0.114242779625407
0.117956940241095
0.114582590173233
0.117077557489302
0.113958832029289
0.117610923948715
0.115366511117296
0.114742760277045
0.112848546305136
0.114593159561684
0.110343283853169
0.117559302018423
0.113041815943549
0.116806179963445
0.11168212803413
0.114898113045493
0.110493127863029
0.114674426498045
0.110849817538091
0.115888101252146
0.112503024817374
0.114268345864109
0.10975808534615
0.114843457260125
0.110264336059406
0.112564274808122
0.111130749701151
0.116152563112266
0.108645734711836
0.110921515457294
0.107994578802607
0.114426062920311
0.110819800811689
0.113542667293337
0.10994604623361
0.113136824090894
0.112860072377739
0.113908977975045
0.110817134790562
0.11335328296037
0.10708887897554
0.110291612436524
0.108029513811599
0.112541772204863
0.108725781800357
0.110509652458171
0.107602560484932
0.114135205943684
0.108795362317678
0.110845788832119
0.10739751778813
0.111216699539996
0.108591647868229
0.11164981321429
0.108297140962591
0.112123928236345
0.107883481466341
0.108044307268191
0.103734283204647
0.111071024514779
0.10603333030464
0.107285680103788
0.106248096531359
0.109768577838649
0.106050784896544
0.110381515647266
0.107226390359806
0.110354019030124
0.106863439070626
0.107173709040225
0.105285066587705
0.109993773615757
0.105995249802842
0.110505296477809
0.104654569334932
0.108216447784022
0.105800974644276
0.110183646718986
0.106308327445844
0.109950136781874
0.108436960035571
0.112755246851814
0.106572888946473
0.109071756651925
0.10360625312375
0.107529429090853
0.105680715547734
0.107929964576683
0.10688294581574
0.105240709958303
0.105145725079352
0.108370801296174
0.105786105312235
0.108415944578903
0.105944724509197
0.108201974961553
0.104881577722031
0.106887328130736
0.101574284575145
0.104418779201217
0.101746211780897
0.108385698781179
0.104016180207015
0.109254064397893
0.102101359992597
0.10513628923324
0.101581466381496
0.106092597090656
0.100432236805296
0.103731775590299
0.0992229115860734
0.10286147065513
0.101340850440412
0.105081982641104
0.102319113516384
0.104252608096322
0.0986995163826446
0.103199803718351
0.100934796726621
0.0998280807411869
0.0986016306602608
0.0980283885444506
0.0981886767694774
0.101014940896258
0.0950295062062436
0.100919387900206
0.0966890322063754
0.098297791922346
0.0979508922215065
0.097888391496214
0.0949843708078679
0.102652641671545
0.0994225244170209
0.0991935061216508
0.0918896345867648
0.0974558509428618
0.0939842178653664
0.0964939746156729
0.092283151099573
0.0950286205213338
0.092888060986963
0.0954637296977886
0.0902991563747375
0.0960513790295183
0.0895331058003204
0.0935569104910083
0.0916569155651769
0.0930039025117216
0.0903750502009564
0.0948710369527455
0.0903417296755156
0.0918584698649274
0.088111377467101
0.0935347027888884
0.0916475843476901
0.0917607581233733
0.0878961540392782
0.0872888529944084
0.0928334593931421
0.0978947868238211
0.0906681480030613
0.0906709881217459
0.0893173844226099
0.0931781983679369
0.0884565172649737
0.0905761265152034
0.0866363606085032
0.0907512578331274
0.0878628704840388
0.0893172721601067
0.0849004242187457
0.0893125264276349
0.0869750399507973
0.0907447270007663
0.0871845555347466
0.0864994588345358
0.0849699452614018
0.0901501815114503
0.084870412220638
0.0879465973884049
0.0863569744776923
0.0895206992284315
0.084382236418196
0.0849060236415664
0.0847391168876538
0.0911514112259658
0.0870228582657875
0.0901558564456569
0.0843184435972864
0.0826684493083723
0.0823343934262889
0.0845342420106423
0.0847330391153997
0.0875115499798527
0.0819978980251514
0.0843897168186877
0.0811005246279078
0.0855028514969231
0.0826720690483506
0.0852387866872514
0.0807768516422005
0.0858345790873394
0.0798090633261895
0.0832604717214767
0.0815831338701752
0.0841566578607591
0.0787174744876019
0.0831905678661382
0.0808646395754972
0.0860668925718432
0.0786633008295781
0.0875065777808462
0.0942728154251121
0.0854975458305853
0.0815491502716781
0.0841508470391494
0.0789472194442863
0.0827506979042249
0.0784563073459829
0.080120223696258
0.0789439308509689
0.0834724250609147
0.0802033463899914
0.0826668433887031
0.0804933040487907
0.0830510837242852
0.0787768386343752
0.0821534564775269
0.0776311005214287
0.0835042774706326
0.0776040633616486
0.0812530997498425
0.0811754545005787
0.0910691609723722
0.0828951300739366
0.0856617164660227
0.0798027813551194
0.0796843937317287
0.0876528261019901
0.0910298277498848
0.0798529912484603
0.0820461644551981
0.0777290987966067
0.0795670530440799
0.077836036895575
0.0807206472588892
0.0799289913064303
0.0827978449649963
0.0797654676877256
0.0834607778310005
0.0782989490710646
0.0793628502288103
0.0785619157338553
0.0826897945061125
0.0763850908939848
0.0786361060276735
0.0749439727688223
0.0792032916329739
0.0771133614145611
0.0783136499440731
0.0780250948734982
0.080935690268667
0.0785077764155658
0.0863589626476111
0.0795037681506669
0.0798987458540651
0.0771804956789046
0.0770565912389504
0.0819112310221542
0.0930955058436012
0.0796357368489099
0.0807781630286615
0.0757133424965043
0.0780195600699066
0.0791171575743883
0.08096546882665
0.0774004869568697
0.0821754447067191
0.0763578407004678
0.0798531937780432
0.0747586398804602
0.0789732264666366
0.0749595658944192
0.0810180956061549
0.0779972619823046
0.0802202678073042
0.0775471241284407
0.0827033295531951
0.0798253922608359
0.0798700645629016
0.0835000287395038
0.100808118008685
0.0877811371434857
0.0905458242056
0.0806228321797608
0.0814884931406087
0.0761592772527888
0.0798366424736317
0.0769476399048162
0.0816363241283325
0.0762384966925721
0.0794840588763093
0.0783028107073706
0.0807295511524616
0.0744192416791876
0.0798095983797274
0.074258600389325
0.0798824043942284
0.0744923313630626
0.0803827021598963
0.0733732684180027
0.0801204394535093
0.0750807955766594
0.0882686080635512
0.0813295247909009
0.0838641519701571
0.0761491759381283
0.104788043002389
0.0995290425745548
0.0859811596469486
0.0843377747121543
0.08100485651769
0.0810243225731242
0.0806561183306464
0.0793820284829487
0.0849711640482095
0.0817688054540776
0.0821567596129771
0.0773900327679085
0.0843170634746576
0.0807374533421266
0.08034113199672
0.0818533650211248
0.104561453960618
0.0902038934497781
0.0870530383573046
0.0767856292968043
0.0890830364918783
0.0965699784784155
0.0887728057073697
0.0856205575589196
0.0882202920093606
0.0806389732249338
0.0860151706142773
0.0805143409507121
0.0830348340530365
0.083586946167258
0.0847486502514818
0.0795048118543266
0.0837661049307846
0.0802666672059065
0.0895925346749537
0.0816488104169114
0.0979679827011712
0.0924582212498175
0.0868071969068385
0.086078654191108
0.0882096597037836
0.0832232923872837
0.0874751644001655
0.0853975801471978
0.0832041539107738
0.0963043504367341
0.0987867346998988
0.0871863871144613
0.101004679742008
0.0918979698146256
0.0892439924527054
0.0865868652813977
0.0950508671108722
0.0941578409501088
0.0859520040302018
0.0922659436734991
0.116033484806394
0.10234522897646
0.107539602234982
0.091216190224667
0.0937230541063638
0.086956061020006
0.0929223846409935
0.0872386835550826
0.107098275437144
0.0916911636719031
0.0971838636225012
0.0884394990101355
0.103526592091161
0.099359740270309
0.0991264638883989
0.0948499185799756
0.0949646342883787
0.0947897335379549
0.105611504397857
0.0956741214188975
0.0939585884409519
0.109498884484316
0.122945937228324
0.110212601558621
0.106116062082262
0.0948033728530312
0.132068371821721
0.0997359490220361
0.102736923762293
0.0947802985170639
0.0992434188427327
0.0950790135700521
0.0992691054803088
0.118163515273297
0.107426311586221
0.101066992289705
0.111391719159345
0.095291795957509
0.118956243596585
0.110320178454437
0.108140021160284
0.104627676707114
0.112036172688244
0.0994054148488278
0.144954586769245
0.119739572802802
0.122211809737961
0.132418431136158
0.12691002914679
0.122129629758116
0.122316795762566
0.115423242285686
0.127574227267538
0.132658784714949
0.124900572694421
0.109434107898236
0.135680864471293
0.144875128791192
0.123843483500638
0.128162029787394
0.126580379235116
0.121360195338603
0.15944552372405
0.172225482134568
0.162091719121969
0.135731598187332
0.138525012430948
0.159787975997244
0.144307353084774
0.137809949848799
0.1394137729964
0.137146424478928
0.139182134610945
0.141565727616068
0.156294643126958
0.144244742280687
0.154108470152788
0.150223463896494
0.147460479772085
0.166875925804495
0.199744604174915
0.190380509459374
0.165265814969047
0.195394586452925
0.190209732505368
0.17018026451083
0.170379039860928
0.160586316030776
0.181263957011199
0.172489480555806
0.175486705086448
0.170395683127712
0.19945147563852
0.194306350196759
0.188187015052962
0.206953998158992
0.187923310574378
0.192693825326906
0.187231381996852
0.319410462610265
0.229325093475918
0.215822225527886
0.221783332170752
0.213518206757889
0.294456051953681
0.236013183365779
0.230532316668325
0.234931803969648
0.239445779791292
0.243311252917082
0.258777265037832
0.260220496803457
0.280885222150122
0.275819963681684
0.27507466029813
0.2850296638017
0.360419819880529
0.344178510829563
0.336433097280275
0.309308610097656
0.330796342905568
0.333889211945889
0.33584910946668
0.33974039834861
0.350977347444133
0.342904016858615
0.416737726535603
0.36969243992246
0.387695394019044
0.38462816854812
0.432678545033944
0.386840560985767
0.45447851189847
0.443687583369698
0.426534737340158
0.435784320528047
0.439107093859284
0.443910162169235
0.445418776210725
0.487405742785445
0.493171250681282
0.473486607616633
0.488091855494837
0.488813449328294
0.49886389913066
0.493356193216367
0.515232445190579
0.51199433157316
0.553752158456985
0.526520772314442
0.663208537984915
0.560666538916837
0.529847415662658
0.533937125196119
0.534164383567853
0.56275451205731
0.537917017716016
0.553598801791704
0.572327871345715
0.539038206200794
0.558980227780249
0.537654886645891
0.550567424785716
0.534468339170161
0.555891367733208
0.540391879696142
0.579920915380171
0.543964499592472
0.583128393657088
0.604611098296792
0.56347902140326
0.554478421458527
0.548825265925592
0.540666957173143
0.552230260436299
0.544766935001973
0.54578916457897
0.5634764825409
0.53555761064532
0.539999641083843
0.524526743558245
0.560228621427527
0.563456019648238
0.511808156001726
0.527793504648941
0.522987997688544
0.519852777866632
0.507655674351932
0.514236995362581
0.578318381934705
0.519872089180807
0.510735307330386
0.505693165107512
0.492857879739533
0.503739319598011
0.492845621222941
0.499980586271322
0.501416496636096
0.491583469714801
0.496975814077147
0.498637268451458
0.483514333916132
0.48965643184593
0.489914091716511
0.49043472942368
0.483232623510083
0.489627228509803
0.478461665300865
0.491465886630201
0.476088454125033
0.485133525896158
0.473599097256922
0.483610751568285
0.481535906658245
0.483747389248519
0.472853948112964
0.480667913227923
0.478767452344813
0.486312455681335
0.474779388975348
0.47979536742657
0.471613533438632
0.472010280107388
0.47274612239478
0.475946583076641
0.466498522763901
0.473351957903733
0.456653817496051
0.474258871921365
0.451774288346375
0.480843035107133
0.454204981744087
0.51411725280423
0.4892422640015
0.452555904389196
0.457720070394516
0.446403429178325
0.446798586731908
0.435565505894646
0.484042716075051
0.479264232458304
0.431401550184107
0.437523969168058
0.434543593585067
0.43488465356641
0.437530460438397
0.416539909299899
0.422898310923631
0.407039052470738
0.431324863271043
0.498764873401706
0.443324165476557
0.507947453061287
0.420351908926257
0.409647097694054
0.391455584846375
0.445436352717485
0.392986323798562
0.396387676207096
0.38289248692223
0.429878145904893
0.397143078028223
0.373422404211512
0.380007030657041
0.367814632542842
0.386801992194899
0.401372132265529
0.37666096352701
0.379456934017602
0.413101564987842
0.380514731858134
0.421991636392325
0.421430574427966
0.396515428227244
0.356813451573881
0.35133705846158
0.35085949105941
0.336772308152239
0.408885576825639
0.347958395336867
0.350357887303687
0.333911734332216
0.326113767068115
0.33345498127594
0.342605213533024
0.345303691229299
0.328822815966104
0.364346959411339
0.315158127474537
0.328477630136677
0.337040692325888
0.344582273459984
0.365287956214982
0.322753162546866
0.308171561178529
0.337572387533281
0.359221424390382
0.309719327120053
0.328564702315388
0.300475145912699
0.303568831120728
0.319584941831245
0.297272993857847
0.309399063675854
0.31578860173486
0.298992028787563
0.360769699081039
0.354387635398488
0.345978251303936
0.302122502722201
0.287693728557079
0.289913566711778
0.287861861094222
0.292025204075612
0.283442813477071
0.307913137416354
0.307775081461114
0.272232998676173
0.355867643164238
0.299175735770307
0.298941745975641
0.295595031861017
0.300193125664116
0.303739895985771
0.334057708862844
0.345328217206896
0.337648910329799
0.318024400091189
0.354664878756579
0.316511611733822
0.336277812773998
0.321526358372182
0.343035090445773
0.333472188921209
0.362748125194057
0.352633258498086
0.365925921038603
0.363067009295788
0.382061039882904
0.385660018310214
0.425228743971606
0.373280149707265
0.439173309310261
0.414828681257468
0.484531257220646
0.445970341091142
0.42946414203122
0.441635642431073
0.442235177705048
0.450912693399271
0.461098769433737
0.454382566923509
0.516877234347429
0.476947572162153
0.491414606754659
0.474389987494022
0.497693652408187
0.487979362594358
0.539841368345039
0.518011686848637
0.550694216759515
0.57247346312009
0.531982791524919
0.533794035801903
0.522328582160829
0.529474766476354
0.535683407852623
0.528954742387195
0.540599370203177
0.52457155388377
0.570292147847485
0.543319617367166
0.541258646877237
0.546567525917566
0.558758132283146
0.550270890568064
0.56136522433347
0.560409310357589
0.573376973545038
0.560504200599074
0.589601102575112
0.561925560527711
0.666377022657879
0.596760605225727
0.58932125257772
0.600327502394512
0.602668886420823
0.609134446981409
0.609420629085303
0.635899440852335
0.629485877269938
0.623664440785182
0.625310616397872
0.636670156751947
0.642768617483886
0.642942924411451
0.669031998955854
0.6400235030336
0.658408022702173
0.658997950509388
0.654657167084587
0.72781580074701
0.681268860214692
0.682416769961916
0.674252548996122
0.684429476916049
0.681098847867353
0.682889031496094
0.688148221703513
0.701916369985039
0.698403403919085
0.691540014603918
0.688036709587315
0.688407556787533
0.688878945632766
0.684777928139447
0.721597666363498
0.700211572074794
0.689858431085695
0.678333508798522
0.68827871912801
0.671624176717262
0.707357335992926
0.715429444092839
0.685785425661441
0.702714321558787
0.698297875202915
0.695325898580206
0.707624442490271
0.679529165903799
0.693242411343239
0.68638044894324
0.685883752608396
0.692428677135776
0.69312298381089
0.726687799922206
0.701465316237423
0.704626850801154
0.704384662832204
0.708246189021084
0.707172195477329
0.710443415759985
0.70955054177404
0.724988678575829
0.725178281071437
0.731086054896307
0.723581130956171
0.733042571302044
0.741116100834638
0.743291438512101
0.736028775619576
0.727477376802156
0.722591764504083
0.722537844117333
0.721698402022931
0.7340114412522
0.706988148005459
0.705285436326997
0.708473270716843
0.702555675795133
0.693569139977463
0.718118870209075
0.687813466503964
0.693140292585283
0.692233733287777
0.668490699164276
0.674819852200997
0.661250368993912
0.661501354226352
0.651908982802014
0.668996358044625
0.651251056996066
0.647734661966528
0.642110654712997
0.646076678672912
0.633516716946865
0.647536897716553
0.632921062832442
0.63745688466015
0.630068102929649
0.628076684630373
0.63085817671858
0.632920834523201
0.635103073284592
0.619670279224854
0.630736485754391
0.648431011271411
0.64462640487193
0.644933140344984
0.635426565574961
0.632976893496692
0.620566290319612
0.626637604831693
0.62089096465535
0.633916736026053
0.625384448558221
0.634129728010385
0.620067276027967
0.629043454608353
0.625359346392136
0.631497510577058
0.621790191893102
0.625186959280763
0.626083447954165
0.626101685951455
0.616759130644273
0.622603951623086
0.621753645287543
0.636530716291346
0.628228232655817
0.622621280008114
0.627006010559025
0.629740638934564
0.622514459747792
0.622894784957377
0.627149508606532
0.620257693839524
0.625913978874261
0.620711037436009
0.618061036802722
0.620353890625554
0.630220155282738
0.623641739127251
0.618672566389117
0.617489202124847
0.613248546201311
0.6142929745571
0.61087209843028
0.607605926440072
0.596517123549861
0.595203722054917
0.59026783988417
0.586087716320942
0.582171045144882
0.579031560952148
0.572208706571492
0.569654111910812
0.56428759000971
0.562483773601081
0.559360427349463
0.555356748473303
0.55940903944256
0.551422121334451
0.548594488932863
0.553750970419743
0.545734331020339
0.5441764025477
0.544427663111293
0.547827398776749
0.540149505567396
0.540104494513013
0.540543054756291
0.546213135850886
0.544144097314061
0.54435821359324
0.547263184574872
0.552215999001419
0.54441746813852
0.547985183393009
0.553018581179999
0.550365217666518
0.554240401018138
0.560468964054703
0.556619760044225
0.561668347671871
0.564390015844083
0.569825923712821
0.57034238253824
0.568513926441287
0.572509310357787
0.570661342836243
0.573043522596036
0.578086645249142
0.572264675367008
0.578842513047872
0.574277253641699
0.569683827740779
0.575244245510535
0.572816105908275
0.574167887121105
0.571221454834784
0.568728796760556
0.567825566310434
0.567332146317105
0.571022328449052
0.562218602955525
0.562902920359228
0.567109547907993
0.558945144482181
0.555606955757624
0.555939881456212
0.554399662230592
0.554099554815731
0.554715294759168
0.548751085451723
0.543567918612696
0.541834290186335
0.540644972124779
0.539684538232233
0.535608935856376
0.536909881659526
0.536006088899685
0.53352155901178
0.534026083268903
0.530411852141501
0.528541268813592
0.530581788072851
0.52162159148664
0.524055822911596
0.524745507726098
0.524903620540482
0.524710160980588
0.517590169052726
0.514725317428625
0.513682349659479
0.512250260419908
0.508922887895686
0.505190145922306
0.505560234460862
0.498693772642482
0.494549719691863
0.494709109977834
0.489811599095803
0.487939144908733
0.481526120237047
0.479514797913846
0.475013197882031
0.46976666725575
0.467674854064204
0.469762808965238
0.467627820931525
0.463617168878759
0.466208973953468
0.462283124596862
0.462856257160549
0.460048340907056
0.458177857384662
0.455597654297163
0.456699378617194
0.452649011092928
0.448613607918794
0.442797831771925
0.440537250229597
0.436668715978346
0.428961321653829
0.422463984951794
0.420253120148013
0.412284290752644
0.405223810731578
0.40278511435585
0.404471871832574
0.400641949329196
0.403099982979575
0.406502803439859
0.408310525165392
0.413603096362186
0.419964394283145
0.42929107188152
0.438348010851449
0.451058857439411
0.46201315628429
0.479912551116134
0.500136824608614
0.516189281525155
0.531804033996543
0.551302165839155
0.5713839288956
0.591146766120376
0.608187366569238
0.624488566472323
0.644193286865917
0.656846694847997
0.678526918085496
0.696196512299583
0.714212219162856
0.733898916795878
0.741434369968077
0.757664523114011
0.775747124500707
0.78812672785778
0.798966265378381
0.817077783004867
0.826140132995387
0.836658427304925
0.847297061128323
0.850388840376874
0.865945176357384
0.87236988909082
0.876137474935821
0.883968210050642
0.886373120650513
0.884313725229268
0.888784862510194
0.891718128137526
0.88892704455377
0.89570871361205
0.885149854925175
0.891184922425219
0.892006368778744
0.89268978672197
0.900379732368469
0.913118488883789
0.907928015323916
0.903713186710542
0.912864738016505
0.920750908806412
0.919651566271009
0.934708173561258
0.943410031153522
0.947477938157147
0.946282433039149
0.957760346045944
0.968883709188515
0.975170229839296
0.989699045888474
0.999626717826448
1.00977494139936
1.02262156392978
1.04185752136969
1.07005161361425
1.08111462014198
1.08390764948869
1.09354939244024
1.11446074176322
1.10950112983815
1.11394401395875
1.13118663239758
1.12556887230747
1.13511916323028
1.12759516196109
1.134411506733
1.13022270258695
1.1213445962846
1.13474581198142
1.10873508220306
1.10823858379006
1.1081854902572
1.09687384944904
1.1103871600194
1.14288146295991
1.14405613725141
1.14349288931583
1.15169367133377
1.18396353792388
1.18690015214835
1.20229076540834
1.21318664519338
1.21444606172953
1.26006790680331
1.27467397481612
1.24510246289319
1.29444421607137
1.33442365706316
1.331215092457
1.33640882534329
1.37457060179299
1.42054247133143
1.3879094463547
1.43222593555621
1.45736408464075
1.46025149496905
1.49403901027863
1.4921005734907
1.54268413095166
1.59454509817305
1.57957669425881
1.62964194833738
1.63834708136052
1.64030710981934
1.72183976879559
1.71371477648691
1.74644644055353
1.77303863734857
1.79476322676209
1.81337161692817
1.91464400073685
1.87360068583721
1.79038203818164
1.85571837803453
1.89904001301754
1.87994474146165
1.83662943885771
1.70951914328082
1.87348310058667
1.97018761839355
1.76269868521417
1.79253783966081
1.90918570882007
1.92571193961637
1.92039493125913
1.86978482913766
1.87361290099613
1.92861820560319
1.79275387245053
1.8751359922995
1.9817766361891
1.91762179153042
1.9024785186617
1.96045236933329
1.8762204710997
1.96237642415131
1.99012659605747
2.04551894019322
2.02283321706869
2.07887722308232
2.2625397169987
2.0240651091008
2.11072910265281
2.42822733330113
2.21296223654778
2.18674890102792
2.31016316050934
2.13157369086019
1.93486248749826
2.12920846523563
2.44873593087194
2.44479412683366
2.73932452191137
2.28122043210419
2.27443726377395
2.36739159220212
2.30428189931392
2.25771083010701
2.24872142746027
2.2226231824309
2.40519561391535
2.25131877055604
3.29577181194836
2.37301809609768
2.70182186914575
2.99958161237474
2.4947114374591
2.3169517957707
2.31338183301302
2.32752808468185
2.50850285728126
2.53426757738655
2.36228464677138
2.09122346974356
2.11595856249506
1.95010280524285
1.96690653578271
1.96680463430546
1.97423401486279
1.94246321755812
1.91315066638165
1.84259993847358
1.8443590563283
1.83616595219055
1.80997963366728
1.75707098988266
1.76551798669957
1.66726314488616
1.68855515016752
1.58359196432023
1.67955678742778
1.67388589502452
1.64643663235391
1.56144265559207
1.69738118599016
1.53629777953705
1.4926802625831
1.56304399219693
1.5145204431374
1.5050484836197
1.52388000142057
1.47356332487192
1.43210965821834
1.36869903310206
1.39094784704849
1.35466308254525
1.31977520681347
1.27553753450867
1.23325972455486
1.16239013725732
1.15001356642543
1.0892799715761
1.04553551088993
1.00149385720566
0.967824355828394
0.930338178988639
0.885222681927792
0.849578236461714
0.81228735357661
0.783939895478594
0.752360203600651
0.726888483943552
0.702135131486901
0.688765132319499
0.666102430752226
0.637603781422563
0.629370383891825
0.618713142733948
0.603628064156767
0.591961951949901
0.588910247955407
0.580859389030528
0.5762741424932
0.575840260456648
0.569464008968369
0.570448871372533
0.573895682986879
0.570320735601979
0.571481032952038
0.574825297281863
0.578813924859523
0.575917011984263
0.575625456152715
0.571046108453845
0.576091769245579
0.576767243312875
0.581238547553948
0.565589234778094
0.562583947468971
0.555762077359483
0.550359605026944
0.547754337164759
0.552185218877426
0.542864070986198
0.535356629552445
0.528677477294152
0.523621248207128
0.523423330519611
0.52852081110078
0.531286685654519
0.534207289001834
0.537617449199311
0.53119590385625
0.536165213796867
0.536174099422847
0.534129677839767
0.550719727840118
0.54686622902955
0.556027052692102
0.558773778270014
0.567607012324691
0.562032413162132
0.569393433362992
0.572184994090701
0.567123984503782
0.573609802959487
0.574526886012415
0.576192549828795
0.576096998498872
0.577888043889931
0.586926140082267
0.579622960056202
0.58632119091419
0.586959771940368
0.584768118253836
0.59796581246
0.595913328217365
0.599653638875887
0.612023821283318
0.607439905111425
0.631102893797644
0.649131527908189
0.668586702120732
0.669714248365944
0.693243353731854
0.711600317286323
0.723599303240493
0.738004136911205
0.754791830594002
0.76221368234059
0.773032753254081
0.785667041061297
0.790115829811801
0.771962651567208
0.76199033865958
0.75438660055774
0.751482840396292
0.733629266997773
0.721180690862773
0.705565664662226
0.701681857209344
0.68229046128105
0.68538638578155
0.697531079671936
0.701799823653127
0.691181945891098
0.697939868661242
0.691039151300877
0.696944909753071
0.691568444215177
0.698738716899835
0.699266421121891
0.695711282537282
0.682120144087255
0.670426678906152
0.673514586426214
0.663580956328798
0.651181090302609
0.651658599929944
0.652537064928398
0.65758264762767
0.623847870191205
0.633506431962154
0.62282322148988
0.625440927397187
0.62786265222587
0.619883603614111
0.605320694074515
0.603416450908449
0.607732812071869
0.599231688184633
0.590676948577338
0.595395423171066
0.586269744186304
0.588061899796413
0.583340478243592
0.56890087346063
0.58077346258065
0.586336690363078
0.567463401612003
0.575748727317792
0.582053934108487
0.580873354956565
0.571616046477696
0.555509332263785
0.546979500277192
0.557972536801384
0.546251697495019
0.548908201472126
0.562717842433522
0.552355708376578
0.552754365580365
0.550827637699339
0.537797590206468
0.536748274138872
0.532204160547699
0.533377096781258
0.533001895288989
0.540728308540323
0.5356825795695
0.527447736870668
0.530207981008273
0.538767995590684
0.528457091641374
0.549358185725549
0.545148312957203
0.55369160714812
0.553387488694726
0.545802555196482
0.539258723146294
0.536241723304301
0.553736113275803
0.563753064988596
0.554181696299217
0.538608968833954
0.548255109337974
0.554123646100995
0.563691281189585
0.564176660968477
0.567239733150217
0.57887155685314
0.556733339616894
0.572222530115393
0.596140588136726
0.59995084027029
0.609043538954746
0.620916643785388
0.628484979185506
0.622421472185552
0.622606670624287
0.646572361113217
0.661174966487363
0.6666554325712
0.670627311453683
0.679200604501492
0.707095304812614
0.719741315086359
0.728382083077342
0.765254548004284
0.786611553599001
0.841898632373697
0.799329618045919
0.819161785320577
0.871079804807042
0.855251220535849
0.848967084241316
0.897255170010397
0.932289166920087
0.9253748652292
0.896994214567205
0.951244139294841
0.96783437944582
0.964994798399078
0.95028634517745
0.910607168089774
0.892783337780701
0.941044778964772
0.92053745923432
0.875849204987388
0.858450801666335
0.87162299979312
0.902245453344269
0.879950080906144
0.902551369061555
0.880237490796781
0.881007781941782
0.913108709946916
0.883928185543483
0.892658463100911
0.88401214692724
0.892325328777434
0.900343352860988
0.84596840531321
0.864172705135592
0.858612287513181
0.806475785072492
0.793702848253933
0.841856004133786
0.840201793764099
0.790018130018565
0.801408342715763
0.849643688766498
0.814152467771379
0.772422293191323
0.789610791530012
0.820751743838235
0.792469189559827
0.783591888792798
0.782812256084067
0.784308593549172
0.823015918305399
0.856130859779852
0.8610078305442
0.927810209060523
0.859528522740561
0.820908140578893
0.842884656407535
0.809567802663525
0.836290342678291
0.870039352324289
0.8629150535312
0.895599457948329
0.87328322401895
0.838962204944143
0.816612245081381
0.835620342931803
0.881662213373025
0.896509742985465
0.835852402523712
0.928015794817774
0.861658433808237
0.807504023182442
0.891325122848295
0.873375462368443
0.861730463314334
0.836127335103521
0.877895671681087
0.995468846810313
0.957009240642098
0.926014875096953
1.00624295939269
0.940090171671595
0.974690469545369
1.04770228410626
0.929499695431999
0.962032505062152
1.05298445625452
1.20206759270748
1.23110704761476
1.2670588966247
0.996819050474666
1.11142469982894
1.17373638691498
1.24144690963329
1.16070538503802
1.11226060489104
0.97645869246942
1.10077600675946
1.3841723092262
1.46319645424422
1.57699144520782
1.12992486934469
0.969594870673042
0.986094816955906
1.05926262271358
1.07543179812149
1.32784284615065
0.933384835658963
0.846376564108829
1.29760781184346
0.895804638835196
0.890087483765557
1.5072673109282
1.50010226056795
1.24534105415848
1.01391905431568
0.965063177767392
1.17135037730906
0.90760181454591
0.97740906957616
1.35594525163514
1.17922065375583
1.08286215882296
0.950000615530059
0.779402189308815
1.33142953593942
1.56532892112912
0.953892965212278
1.48030050456165
5
1.12614382584564
1.14663724297104
0.973725687451407
1.73755608388472
0.832595369128977
1.32917307270864
1.43538580216481
1.23625308089632
1.29365620822093
1.4835776727413
1.57883510312424
0.71845486903138
0.980115955000539
1.77607814804293
1.72878750074712
5
5
5
1.48681165012206
5
0.932560940831772
1.25353641436999
