3596
4000.36533379555
650.420452594757
1
2
2
0.0588388496237687
0.0634226475103349
0.0554214868953409
0.0633146452142831
0.0638127839721565
0.0626347904403667
0.0530230350534749
0.0747348048083614
0.0608898024799627
0.0679054136212417
0.0553051275832364
0.0657359115015864
0.0584075218333338
0.063831674529498
0.0549351780795451
0.0651448400390622
0.063887602386073
0.0586054950467286
0.0490010355233906
0.0665854031981276
0.0477129441260795
0.0637053641643318
0.054258181077092
0.0630258422920077
0.0534189156148041
0.0681843640968028
0.0562364387464295
0.0643782312081521
0.0581196983477156
0.0690522348785972
0.0594823074335345
0.0675710671260689
0.0549044073408409
0.0624146981727623
0.0577599921203663
0.0608926095187904
0.0537557229173209
0.0660883148373146
0.0584880331089488
0.0633630650570657
0.066258007763871
0.0661598554337188
0.0592547216924414
0.0675302196201286
0.0519244899380837
0.0656915681887518
0.056318942709283
0.0579418055272867
0.051447838873522
0.0597043921749799
0.0549705672849518
0.0582233620746474
0.0629148585135241
0.0832469508705526
0.0586703656586033
0.0766785691587752
0.0583377152636745
0.0666258675126085
0.0574328252185851
0.0637859016069882
0.0686952477548701
0.0731781545928024
0.0569695919066394
0.0705182847831292
0.0510172709288365
0.0605875316180041
0.0566770678940579
0.0653173660588031
0.0510977320738438
0.0624287731863105
0.0511076618961056
0.0638658218376174
0.0761319013154565
0.0736532476324282
0.059518451324427
0.0682846354602205
0.04752554544326
0.0616534554407453
0.0543880655201311
0.0711876129950722
0.0690108293979614
0.0718671087350631
0.0561482327337462
0.0565881501019516
0.052608727150911
0.0780455458675201
0.0515409028052733
0.0663101665744852
0.0812624732399664
0.0642814741779673
0.0507765478566173
0.0614268218602737
0.0538005810276336
0.0541456637860811
0.0529923955276772
0.0576404778616642
0.0554529690219518
0.0638523602269161
0.0545638320859193
0.0601975558472089
0.070769066489192
0.0657850007265575
0.09405604315514
0.0614810607667748
0.0868582525979515
0.0858406162118585
0.0431614628245231
0.101282344619724
0.062930260686215
0.073553961445745
0.0547417402830882
0.0633444122957418
0.0495767199399836
0.0658704136048296
0.0432141831601952
0.0765231965537675
0.0835305479292849
0.0613700168328307
0.0625870285277587
0.057933642290794
0.0543620627824998
0.0801401982053642
0.0989329670077333
0.0692988308479114
0.0651273857570422
0.0561428595029383
0.04330324821794
0.0906417575136461
0.093130804394049
0.0593083140322628
0.0604984016046976
0.0575258168073661
0.047212391262556
0.0500562224634652
0.0874311238174713
0.0688268748777875
0.0565201930131874
0.05540566310681
0.0649957094682811
0.117579631149414
0.0705026270682732
0.0587782169414237
0.0432083204922592
0.0685366801619113
0.0886543430402265
0.0698547968357803
0.0518280590904153
0.0801225340537426
0.0719699318352559
0.0536752822781067
0.0462700287978982
0.0548629732254393
0.0697135961244673
0.0694693948142037
0.0231584031486044
0.0875250734659064
0.133093552355419
0.0696680328738243
0.111319729481829
0.0634391593093041
0.0640471189488915
0.0565884373827278
0.0454667598986212
0.0630713189177919
0.0550859635898783
0.0507516049676853
0.060909650759164
0.0862499511513854
0.0531341557023145
0.0632771317363901
0.0812389528439582
0.067837557398795
0.0435679388026532
0.108416566789954
0.0772683951268924
0.0535144714243199
0.0849264773806875
0.068637157330992
0.0481647472811962
0.0642552217067122
0.0820432455350475
0.0595319924521572
0.0579028821641082
0.0590428489159379
0.0607292156429745
0.0695391448004651
0.0612390411016288
0.057137240563428
0.0572242222586187
0.0402020424135616
0.0597510318135899
0.0992773131656599
0.087916321375115
0.0636088270830595
0.0559421837845865
0.0337282154456058
0.0755721342963383
0.0855976839460329
0.0448552857897499
0.0598335070727829
0.0498598695721226
0.0608322560646888
0.0546870498743165
0.0547303650150107
0.0505280611524513
0.0393903595021278
0.0881538789268484
0.0834978109680615
0.0523703313918207
0.0547952927673782
0.0539214223941047
0.0563654367058981
0.0911136300409414
0.0955327405815322
0.059361688820407
0.0556431133847301
0.0528110703007063
0.07150416874116
0.0720601827275363
0.0628500470373508
0.0522308798785284
0.0591250661208302
0.0472314578414852
0.0583668657019725
0.0483957762241637
0.0606581906472482
0.0543645390685127
0.0542030473133871
0.0456014810482445
0.0588238167756379
0.0597373946527708
0.0631301371689528
0.0583010224418615
0.0574628156972114
0.0424936953237408
0.0646819211201473
0.0749807804002044
0.0578859548834239
0.0469838343656626
0.0529581527518283
0.0543876200729014
0.0537790195097466
0.0542515633456811
0.0536985975259142
0.048588391640514
0.0526108709594028
0.0904930727420166
0.0696606871919388
0.0513126203047953
0.0548238959949762
0.0653099223648116
0.0802311003359266
0.0536482571748611
0.0623270896402324
0.0499075642889672
0.0536658021480919
0.0520250641747006
0.0863172832985872
0.065946192155205
0.0533953804105781
0.0574195528790185
0.0744365240767767
0.0528128153922734
0.055026293810025
0.0420026665123501
0.12014875264162
0.0663717647175029
0.0521729894658072
0.122607653338232
0.0817839095432878
0.055766131549848
0.0607362129755417
0.0199029357141202
0.137176375311048
0.113567150103574
0.0638350401248175
0.0561714100670446
0.0731456358284838
0.0617216085847204
0.0646822186268624
0.0621644377611458
0.0680632026301772
0.0936433551695156
0.0928859560219892
0.0867115857574024
0.0523606252624362
0.0737504433225831
0.0930280908861286
0.0564123203818389
0.0688165629764447
0.062663147141558
0.0621674985923668
0.0675011180189854
0.0758904223694698
0.0610272751517389
0.0689041997556602
0.0569363793030679
0.0796222994038327
0.0683113356820536
0.058564999710206
0.0527020561353935
0.0685173863256896
0.0596058508614589
0.0602616878616662
0.0571396691880009
0.0673511203668867
0.0512116236533021
0.0584024571411214
0.101453907128929
0.07505089833205
0.0541908897384133
0.0847275823492384
0.0634084082859305
0.0585681198749202
0.0534603608273478
0.0713900936027022
0.059664594940321
0.0541750923054156
0.0538112158537587
0.0841993172984018
0.0636486203105619
0.0620441897220942
0.0557693349611415
0.0549740266095235
0.0555624291921632
0.0581430205650476
0.054238582959233
0.0550112429468533
0.0518082686364141
0.0526249860436087
0.0663124237767621
0.0845848852980589
0.0426139863746898
0.0774661645496685
0.0990031889373158
0.061324026833513
0.0541807963523908
0.0602627864714413
0.0668286520194634
0.0577689439209173
0.0600460853594217
0.0601092126835515
0.0711316168275036
0.0808682910538114
0.0663892428103341
0.0618832513620223
0.0639233106478065
0.119855848738685
0.105395753907194
0.085104763077743
0.0651753353953002
0.0542552281151941
0.0840574858094413
0.104185595654503
0.0776622459166259
0.0982174134639612
0.0597374166114184
0.0665323605692503
0.0628315021474097
0.0662187173964615
0.0676406993024491
0.0666681621455944
0.0642011995585048
0.069076860236356
0.0682833668819466
0.0693140731874411
0.0636212522828755
0.0678154490797549
0.0996222032326103
0.0842984855709812
0.0647078889578288
0.0687473838045621
0.0550564038485432
0.0929729458811777
0.0951395768884506
0.10995146109364
0.10815880663566
0.103239174610255
0.119250420743365
0.0819656712129457
0.0753807078758043
0.0671938613341036
0.0753055586409321
0.0895708550158307
0.0810156588799224
0.0792069737715663
0.0800974914624483
0.0847350350085903
0.076918115709096
0.0787532072064203
0.0762234583541547
0.0890511108968248
0.10542565295318
0.0995149756838962
0.0856215525088673
0.0795229404052249
0.0881660308136212
0.143194819745772
0.134586260578145
0.104665977708122
0.0970568136005458
0.102678630979464
0.0849372271643735
0.0991508983427973
0.0962985651504119
0.106713363051699
0.0931565056051349
0.12782736997797
0.116217444045712
0.121237029539027
0.120502350749954
0.0974921544191111
0.114264472803996
0.109801114275508
0.126333228479536
0.140204223191992
0.117625412456314
0.110654126013862
0.125818879157654
0.130003506499048
0.125734349367519
0.141801890816097
0.115917276932809
0.112123840196937
0.113542399287036
0.116138788311672
0.116972100720121
0.128569015871297
0.129732485188888
0.131472038750408
0.137699565944667
0.133620041912109
0.135088884205297
0.154747467482481
0.144958736019502
0.145222708315977
0.146756419369147
0.141578441012479
0.137375001961775
0.135687673079103
0.154835402930217
0.155880884253673
0.148572494656244
0.169282649074517
0.147516713191699
0.156112544362928
0.147128327226506
0.155815014588351
0.151383856840675
0.153898838305341
0.16169538922985
0.162972042431179
0.156845271319641
0.161322397950147
0.160259425581682
0.16599128652483
0.172380361200255
0.170868768496505
0.176911433248406
0.174742012877662
0.175637634758698
0.179998892672819
0.192742381697501
0.2062557980909
0.202741411306549
0.209096035843586
0.195584542919292
0.195443812135814
0.18663684437815
0.194140080160007
0.199734223601915
0.204584897347653
0.209239284623707
0.207549644153855
0.20532002453998
0.201455733958245
0.19809954804462
0.213726947098407
0.212501846067707
0.218945318167415
0.218435986308757
0.21384114607194
0.210648019675013
0.226675381137327
0.229234164456674
0.228880070555034
0.237687102394999
0.248739408209387
0.235186203361984
0.231344633838006
0.2370870542802
0.23935755232769
0.24932339138544
0.260980675361659
0.2568444980576
0.243318637778315
0.248221492083151
0.258300958969095
0.255608312611709
0.256188316059951
0.257339333066403
0.266279657758871
0.271147621504952
0.255758900580644
0.286869704596216
0.275854169351483
0.286574778533378
0.296236005046135
0.296067765455933
0.278429113186744
0.282692450674153
0.30076293179944
0.297235376663661
0.299960122601602
0.300607348296548
0.307273593835835
0.302506959187043
0.298175302884942
0.307174826927416
0.325245319414019
0.309676186297387
0.314322019465893
0.335779006409982
0.322784210274981
0.333620908836709
0.314453578683768
0.332714849509301
0.342792469500379
0.336932438784775
0.33948150771285
0.334489975075784
0.346222723129444
0.348721958336581
0.360208654359696
0.361934692934408
0.340520494236191
0.358356728749216
0.345545991756143
0.367775008294514
0.37605983516343
0.370086012602823
0.378800616479233
0.36675763852426
0.371643331141813
0.385593559688194
0.376546425529226
0.394040561346389
0.380849417048521
0.385827327734686
0.389100016395433
0.392735542427039
0.386665912614073
0.39268385601711
0.404609629752813
0.403896218113655
0.418962652217913
0.397965508356688
0.394708985951532
0.417416011630915
0.424793217767385
0.421032511853493
0.421965814717456
0.439140668105828
0.433222103899902
0.448863408484953
0.420135660749464
0.415125149548843
0.423185537318112
0.439273537246581
0.443720983818177
0.462185842729693
0.440300883846895
0.455472505150538
0.446904180805018
0.46252358459763
0.4598084310319
0.460750553192547
0.440760641592704
0.490126247844557
0.479046660469481
0.479760754232569
0.483720845748867
0.478647585807538
0.476588476899212
0.448682236244681
0.465981026303992
0.490108642979335
0.498076277055036
0.505006204397945
0.50604096460967
0.518181501274491
0.514696586849989
0.501199922803397
0.501936565596311
0.504115557965564
0.520716622501474
0.512225959023088
0.503496031246024
0.501331368850834
0.506472179732198
0.527087677986583
0.506880499137809
0.519400885258457
0.530321468892348
0.532472844530038
0.510853817126694
0.533058676874599
0.525331870752234
0.532576063215668
0.532095779336158
0.538038716156236
0.567880943098511
0.540464844211339
0.550157507067616
0.576104414161703
0.562180376478103
0.571065210791223
0.530025852218057
0.550509598172802
0.552982660766976
0.551551256204894
0.551426151175488
0.579579199686893
0.557169336916256
0.580693859482363
0.573139540228466
0.570798907647316
0.577938613194318
0.571336855515617
0.562542095087927
0.615031932158409
0.580214303952789
0.58298773768882
0.560759763287551
0.596675372376697
0.594851202517099
0.611258343838027
0.602783275354891
0.617751223888024
0.56689396560573
0.59509003979524
0.58440909853674
0.593571586981228
0.588670987782857
0.613827712558091
0.59337349372813
0.622493523627091
0.600940555366325
0.597439229823868
0.613674638994831
0.637392778481884
0.602391070849269
0.628155134413926
0.59136139407582
0.62615463106894
0.630679552752656
0.643719329531104
0.622923241992407
0.636376706629501
0.621854154129324
0.661529309792995
0.631352252849281
0.64176777937442
0.624332060051334
0.623273259087584
0.645463615497537
0.643613229184383
0.643950641487291
0.649653651176653
0.629013250694398
0.662930444871049
0.637485972247489
0.66881805568523
0.626690967271395
0.676447404349116
0.631252831254955
0.66850850497659
0.627569991071141
0.654075534744816
0.628574320038633
0.664599483304173
0.650847324702472
0.654968090305996
0.6314305365098
0.676526352819226
0.636849106695689
0.672726999252461
0.667728554035032
0.649547762774869
0.648282156395392
0.65294001993196
0.658483401965498
0.647936293756008
0.653461109007187
0.677699025481354
0.648235868089615
0.671982945821727
0.654708124782302
0.69278084118452
0.681830362892724
0.670561234544137
0.66988478382853
0.660111967478446
0.6614240858349
0.661455220202277
0.677865768377473
0.67995128587712
0.643816213774974
0.669488939685105
0.685065129708411
0.662149893390852
0.650156911195532
0.68049528455629
0.652461707127415
0.680995790315093
0.641361888104143
0.675794803758084
0.67867673202166
0.692950882299261
0.653049428773611
0.641719032780441
0.656746095995135
0.676846436596199
0.650119647217118
0.659668640615722
0.673607359083999
0.674134144024088
0.682871457812641
0.676894275552289
0.672634620742735
0.661198370016344
0.660849122015439
0.653078452956458
0.670844804892741
0.70089730209561
0.66093057347784
0.669448879691329
0.662712986874885
0.665390764574096
0.666318221512844
0.672857909582963
0.671894620688007
0.67069166656071
0.63872561217711
0.656200291338481
0.656746217255396
0.653997606022607
0.642770307313942
0.663098284913168
0.662749215767631
0.65501197133422
0.649201079271043
0.676026873891961
0.65639185256068
0.678235155504292
0.657093713697657
0.670348155116942
0.663749946832714
0.668936141317969
0.643383354557699
0.678302344477641
0.65477620742954
0.65194296302339
0.655335033173007
0.677768767920609
0.618171185167373
0.666450523576985
0.63912856219308
0.646513753019961
0.644268933627071
0.6539449242737
0.646098441148668
0.641621425484131
0.647775773255049
0.664725615099347
0.629928994549841
0.654296295245576
0.630207434039159
0.648481381714548
0.631029961350093
0.643096355469074
0.643134416536208
0.638045525760905
0.642677549255001
0.622969461841071
0.630993211780005
0.635386080961923
0.618308535920326
0.62076861726503
0.632233690396607
0.636889812498721
0.615840242339202
0.631346539597108
0.630427508417135
0.616071649226922
0.617418635838875
0.644633611329566
0.628828952686785
0.630139948418721
0.624553641928781
0.623394643148921
0.611084873857335
0.628331351839032
0.619758270189688
0.609305115723204
0.601866886216368
0.598592359563014
0.59009240992839
0.613758895864209
0.603406034354747
0.61334148211815
0.59427476455395
0.59691163686129
0.588707883488342
0.598376692062729
0.608171949956133
0.592218491669285
0.596635476828511
0.583770174047336
0.597988079347826
0.592214891526998
0.577085706392785
0.599325142336304
0.585242401790416
0.602951702958585
0.592471874157367
0.571879124830029
0.583838623101619
0.580791822661797
0.565045080691297
0.578323500969831
0.559139190783488
0.569897075234699
0.565459273387464
0.570005853142218
0.565241162711494
0.551527309159949
0.542764252633996
0.550353140782706
0.559393071559452
0.559481828163637
0.546617542246396
0.55134335274574
0.540994857457615
0.531941014868525
0.536812253375993
0.550501174291582
0.546408262519863
0.531719904928919
0.526805590652063
0.545204311081922
0.543238994398692
0.533872945764159
0.526468692421963
0.523255682525069
0.518933423043799
0.520617408572688
0.519781790234995
0.517004863682635
0.520881499315442
0.508037168947377
0.503631751970407
0.514335160196498
0.501424028375483
0.511470719161781
0.511950354096669
0.504653764196914
0.493354151834279
0.491956596384236
0.483557916958867
0.508801094005947
0.499378341770266
0.498548582738155
0.48343871121249
0.488981235142699
0.48718708091835
0.483460200124825
0.480758788712724
0.480851625588229
0.475993765214702
0.482019378748769
0.46830484240008
0.480004124321827
0.465255349481076
0.463591303964087
0.462736903959347
0.464634488894632
0.452534346062763
0.458541107368889
0.453249675705832
0.453939435551476
0.442552742870132
0.457034935814157
0.452091394907126
0.442485835557193
0.440932162395481
0.436344493067491
0.432584669882905
0.446234747262433
0.427783078510851
0.441152265880955
0.430786041712468
0.438099984976843
0.437950289947654
0.434669266099458
0.424406445931807
0.418610772657362
0.416421635342506
0.4174579521617
0.412883279469165
0.415989848598471
0.414186235385588
0.407958166004815
0.409486142522123
0.398452817112402
0.400763948777778
0.405330504513001
0.398019734994454
0.399202676115476
0.393726960429398
0.391313388777272
0.386156158768272
0.374740722955087
0.382621687807969
0.392838459164182
0.390835498426273
0.379979629719772
0.37034946586779
0.394697321172691
0.378500842492432
0.380542851533062
0.363612256514477
0.372998791549964
0.370594225666607
0.372447175151258
0.362975368269433
0.360167347856175
0.363608083034243
0.363608192231415
0.354149464062722
0.346998357964442
0.355950897892543
0.345699321058759
0.344726948447247
0.351543607220227
0.351070807284934
0.348500574262712
0.332684102381687
0.344730782025661
0.342610944465392
0.341004388557929
0.328654718080018
0.333104284279226
0.32910738527798
0.328535169019081
0.321953397829381
0.325467136969554
0.320634802127052
0.32760226693454
0.320312148833824
0.322842184027897
0.319059139809494
0.320586483028648
0.315960900589175
0.316806851907351
0.305083202644977
0.313142272175048
0.306160115588531
0.308129170228729
0.30789734956419
0.308570969429336
0.295053389692119
0.303422212257641
0.30194899468058
0.298638393999743
0.297866270934123
0.29691052400676
0.289450367130419
0.292430914964376
0.295150760946029
0.291748401592384
0.28805977137543
0.286946820226588
0.291508351075956
0.286127862810483
0.282191010402469
0.277562313956111
0.274924934012836
0.277358825504615
0.276346663397192
0.280123250284216
0.281927481729347
0.274385105584406
0.2695065902054
0.274794145032046
0.270948317433605
0.270251941718945
0.265546674808575
0.267302170794556
0.266184424381965
0.264820218232727
0.261109042586519
0.264246695955654
0.262837449813776
0.259484741755121
0.260478366037985
0.25342946015297
0.248280777184715
0.255832429330034
0.246666709354143
0.255488464717063
0.246653942251005
0.251431650196168
0.247241642204659
0.244289516648338
0.248728239065037
0.241295405772097
0.239680810377392
0.235735229908066
0.237943195294072
0.243208937894125
0.235422820962014
0.241015706261262
0.230472099757485
0.233410719332594
0.2284025766058
0.2307925206478
0.232402081838067
0.223782024026074
0.227607170208494
0.223656011300311
0.230366898788175
0.232757696771752
0.226512157476487
0.223136747345449
0.214841997677024
0.214282698695727
0.219229170449744
0.217040194949289
0.216491839448239
0.220138782850922
0.215186743008068
0.218487618628957
0.215672287657479
0.217446251183983
0.213117556739213
0.213435380725019
0.210583623001802
0.208309182987272
0.206063521850215
0.206117108216049
0.20160001238505
0.204003317482325
0.198810043341124
0.206931592710162
0.205373506263681
0.202154788154033
0.196797470013649
0.198174675690154
0.194578188889665
0.199975111376468
0.198679633009029
0.197184664194246
0.197459685116455
0.19256364030091
0.192674799480001
0.192664091596495
0.188956738877241
0.195228991903527
0.193925662091899
0.191447448422285
0.195511589520551
0.200536139500109
0.195849921559457
0.195341050784315
0.191069548125656
0.193006779271467
0.194559381894527
0.188508036653237
0.186608110140599
0.191664739568095
0.192000139272583
0.194305130459173
0.194437489210746
0.189176431962856
0.196889132967833
0.189485284265065
0.192335472983899
0.195353033988911
0.19939350176407
0.197382858549485
0.194688312334572
0.195593795362428
0.200694095881711
0.198813185829397
0.198540004167671
0.203972696569726
0.198678413429735
0.203752103302086
0.206977367931728
0.209109590208758
0.20979925487616
0.211340626489387
0.211032744815281
0.211814924355603
0.210194297888495
0.215166487072459
0.216269923058252
0.211740188696028
0.215336490817552
0.213201396224654
0.212435628071142
0.215397573388963
0.216635404425304
0.221702699461129
0.227995269357519
0.224156608977259
0.224047266576078
0.223465768096325
0.225757988683642
0.22297347561495
0.22661604240586
0.229720766355963
0.231614208961269
0.239683936169297
0.228327123442636
0.242548782490525
0.239070225687008
0.239048899022177
0.243637235228627
0.241432350626647
0.246304447715772
0.24864929302608
0.246479035617477
0.253725741361987
0.253693482859732
0.257524828740922
0.254122788072041
0.256691767365205
0.258009037147116
0.2641600779
0.267430160981469
0.25803269056776
0.257684156451545
0.274999260594734
0.263509924021127
0.273931734027748
0.266649798103202
0.267137259407263
0.277646845664594
0.270300894312354
0.269901519388224
0.276149231909797
0.281641433090347
0.283004023157687
0.278602441009725
0.270561966260103
0.269331225737504
0.267565628647705
0.274193917655977
0.268841093151584
0.264180840056342
0.275953520887692
0.268862488054737
0.266894176667693
0.263784814440478
0.269927593833761
0.267480859529637
0.26679072225415
0.268539426787112
0.272953524135496
0.270285856490392
0.271575947602271
0.266026877199469
0.274662250492125
0.272407021120152
0.262197782160029
0.267856249105514
0.265969414569555
0.265824120525131
0.264281534895324
0.267300767027103
0.264621929838301
0.264410899551485
0.272930735911833
0.271492376604855
0.274587390217193
0.264804304000408
0.267789259749378
0.268726204423904
0.271588449317265
0.268077902248843
0.267562754074966
0.269887491829749
0.260437236870963
0.266280602147296
0.263388113714823
0.269036198195109
0.267279663157947
0.268647340228765
0.269160226981814
0.263833241349992
0.260006637459135
0.261656817475677
0.259909408694535
0.261213660968668
0.258558297392655
0.260203435803877
0.258005331765923
0.259576074017977
0.256362824048889
0.2547714850098
0.25886312123399
0.249041198050149
0.245948116179197
0.248244003233271
0.248883027990241
0.244681587648743
0.243155750628188
0.237321435507046
0.233461044225804
0.238285937742671
0.236058675991879
0.232177897144148
0.231741325198768
0.229207495158253
0.234462040674213
0.228586880691698
0.224259098225141
0.222582485522553
0.217760601260426
0.21578548760976
0.213604788882306
0.216644495000255
0.210244526625224
0.206190580245415
0.206965973919852
0.205964905640591
0.206154991861086
0.203223470653973
0.208889420133914
0.204955803905488
0.199383128227015
0.198292182350528
0.19587668579617
0.200032608469959
0.197858266270977
0.194114657555478
0.195895636363365
0.192753565641678
0.192613371232402
0.185236965823122
0.182212693048618
0.186836342972031
0.187001177882498
0.183544537486633
0.183046278937289
0.184937834121432
0.177915484999846
0.176504413986083
0.181049406571493
0.178986783566534
0.17795560599489
0.173301285812886
0.177303112766147
0.173364490764888
0.172774002518797
0.172611471374329
0.171358619533395
0.168563132474461
0.165912399461008
0.167633966192438
0.170023656010129
0.169050810251771
0.16655697470063
0.166898240814163
0.162313790928773
0.16724219978272
0.161940477132791
0.159310919131112
0.160483850716998
0.162804029848991
0.161363862864196
0.161508173877498
0.160669455288525
0.157693516094681
0.154927600490345
0.162004430262765
0.152804232856051
0.154895637133544
0.151709820501562
0.15596471314014
0.153060928658817
0.151877989180737
0.149487363526387
0.151585981596646
0.14439422897189
0.147281746477333
0.148936470561835
0.151280596340453
0.146733038603628
0.148530523429951
0.148013744336606
0.146598858527539
0.148726598847648
0.145577102270179
0.141029618544313
0.148520677875818
0.146048307997819
0.146205401431394
0.147273603520293
0.14686289449968
0.143501812518761
0.148615630919442
0.141841619912266
0.139020376917723
0.13903340420756
0.1365377966893
0.138092886706028
0.143788624432732
0.138203358134176
0.139480416130824
0.140527939119967
0.139447425358611
0.138808706195989
0.139232959055131
0.138756380507765
0.138532974044723
0.140335460008831
0.138670266246531
0.133424412202355
0.13949887081748
0.134344964606104
0.131075232567881
0.133025001160689
0.13521089773653
0.13131299994807
0.13392284691408
0.128424269209371
0.134234658685171
0.13099616125633
0.12852460951549
0.127868743799659
0.130056254897819
0.130996814577335
0.130248724897015
0.128548471505235
0.134511507002381
0.130185116984791
0.12929866314463
0.127737214789734
0.125947451864903
0.126204362509534
0.130452988245954
0.128258628660323
0.126342252681154
0.125227713166443
0.12475581488851
0.12759130458136
0.122672483411226
0.12656633781419
0.128611594675344
0.124394588944162
0.125876686190314
0.123933038262968
0.124917533534698
0.126343544671069
0.129326780146905
0.123260716808898
0.126200389382846
0.12453076705584
0.125658598912353
0.123861085108022
0.123263450891739
0.122233968132155
0.125022984688129
0.1246893232664
0.121328047803768
0.125866001629328
0.122526226040883
0.120229987486563
0.124138010300095
0.121662500417544
0.123685551266557
0.120103405488734
0.122785299192121
0.118582241900405
0.120991194994675
0.119301746956274
0.120311546503529
0.122560852779956
0.11994923477471
0.117189454096751
0.119310259712588
0.118658249694373
0.117349506509994
0.115399345945739
0.123309646218974
0.116050999128564
0.115197177848782
0.116418977552136
0.115157970732525
0.112880979540137
0.116039239185494
0.115252361292745
0.115063363136376
0.111460467237389
0.111777795294024
0.111135108959325
0.110203720169326
0.113041111662185
0.116747049302229
0.11560974055646
0.11609308030181
0.112242940482716
0.112405949817642
0.109434451592432
0.108957727238419
0.109750457311262
0.111350346977329
0.108497084105676
0.111834941805015
0.108219475350069
0.110338798560401
0.110898305982061
0.10931270279322
0.105583830874145
0.109174961481503
0.108675121874312
0.107865516706857
0.104175787043361
0.109738472179513
0.100989628373636
0.102912012525889
0.102902753810467
0.105717731050428
0.103262557175731
0.103879728503729
0.104922536422155
0.109542877666374
0.102861058980791
0.102057249681619
0.101514665909564
0.102170448846435
0.100690942878021
0.102194787327922
0.0988006524211073
0.0978981307383263
0.100151376035679
0.103174621662079
0.0990277709835079
0.0998292517459979
0.0968741212666378
0.0989140004749093
0.0947405838365021
0.0964514147987705
0.0905653839799839
0.0960890577663615
0.0954781476866006
0.0984888461090613
0.0942156876280901
0.09210399116145
0.0906343486261014
0.0911217115286265
0.0917555740683689
0.0950744225851525
0.0900358608883613
0.0948495830903128
0.0896144825182845
0.0931929827221612
0.0897591672022355
0.0899823716660668
0.090516858647964
0.0920542697518104
0.0862024584277296
0.0923368541047171
0.0873694470458554
0.0905241036090428
0.0875642077708339
0.0858715328507778
0.0892820626547631
0.0857160487699993
0.0878064383007456
0.0890620361277437
0.0837328561871702
0.0861538938552864
0.0853378509306502
0.0862229515782452
0.0856371336939731
0.0844441455695767
0.0853724284006425
0.0872654614727702
0.0830187494799357
0.0844841233296076
0.0856164832228262
0.0856867647450552
0.0795211707433052
0.0784077454383944
0.0826186847915607
0.0840520054436714
0.0813343056093384
0.0813041832974629
0.0832005526537749
0.0830879543464805
0.0764357674263606
0.0786535461879356
0.0771006622214131
0.0804288665714246
0.078992475280037
0.0842000834891901
0.0782717993367202
0.0792150516735128
0.0805738269130691
0.0798146298990551
0.0763461910435714
0.078943036258089
0.0763690029874511
0.0798303076082905
0.0769148647216394
0.0785037427215995
0.0779244795504297
0.0760005687134997
0.0755801951455932
0.0778905799398466
0.0758351150036918
0.0780264701716081
0.0743089452608709
0.0761198665207081
0.0746055603392767
0.0758180848707165
0.0731734357720372
0.074458245023389
0.0722387129052417
0.0760860372375969
0.0746623056786195
0.0751131082456716
0.072078459321062
0.0746772063188613
0.0729050946223638
0.072143350543849
0.0725757644211035
0.0781024551022587
0.0736776117529606
0.0710715837439415
0.0737485174003534
0.0758921956239097
0.0742748338075353
0.0738686676268439
0.0700877310400964
0.0740230020391889
0.0732520579276566
0.0738606476216962
0.0700025763436855
0.0745165691620523
0.0730138069555303
0.0741278172736231
0.0698124510258497
0.0715993619935133
0.0689504913744726
0.0724412184392375
0.0716033535435477
0.0704990140655807
0.0694545343165768
0.0708063123616259
0.0668007230884133
0.069422434663948
0.0706425186641314
0.070888021637468
0.068903805425088
0.0723078949260424
0.0695512815880788
0.0690089373136532
0.0682087048460325
0.0703194100788859
0.0688222581652262
0.0688844639471536
0.0642825463653806
0.0677496596233707
0.0687729281234131
0.0692611696877873
0.06492381652801
0.0688332254329799
0.068134305001405
0.0671571273718491
0.0644029124952708
0.065686990804721
0.0630511983597687
0.0664777323875709
0.0648882177148826
0.0670755231238704
0.0630065171666369
0.0648800088130909
0.0654425959452865
0.0669914112618071
0.0629487573741094
0.0636547394869196
0.0643337117996534
0.0668528580126567
0.0652763354304136
0.0640850659262207
0.063840179143742
0.066609064350882
0.060638033158831
0.0647513267866526
0.061581414963636
0.0642109528709014
0.0675996127093994
0.0664038649106136
0.0629196037599341
0.06425943028242
0.061046341942408
0.0620579785535173
0.0632503901138724
0.0635148824390629
0.0625244157282809
0.0660375978620316
0.0592250959121809
0.059340380145425
0.0630680811361199
0.0641624443117539
0.0623144619923175
0.0650183230731503
0.0618047742243576
0.0614001703926561
0.0625847692351949
0.0655901728863846
0.059007660731278
0.0617255581060164
0.0601877942033424
0.0625450234814082
0.0566238905721716
0.0615506958114329
0.0620560933929218
0.0615599833369115
0.0599390302254451
0.0592141793432194
0.0613408486991132
0.0596865854243265
0.0567262907091364
0.0602085860163682
0.0585524605760497
0.0607449616744418
0.0532183423003593
0.0574485738499112
0.0584400772841442
0.0569643867062106
0.0564304611437029
0.0584443751188891
0.0536122129184388
0.0547104889628394
0.0521402625912351
0.0596780967620934
0.0574510821235223
0.0556449508969832
0.0511886165648831
0.0554944490798181
0.0526293439105019
0.0566208650393757
0.0540196160355474
0.0552939192945429
0.0541863871280223
0.0569824910029076
0.05408860429219
0.0563222528932381
0.0545287837775396
0.0564289809149943
0.0538943308558664
0.0539282199667437
0.0512988926461367
0.0535573653404919
0.0516802333869169
0.0554192777600437
0.0527534517421967
0.0526530326294615
0.0513057556335595
0.0528538815953807
0.0491740307390792
0.0543651027486708
0.0530352831357516
0.0540747043687839
0.0508483985474506
0.0549648641806629
0.0496300351967084
0.0503315725622465
0.0504454022930487
0.0512942653455395
0.0479946292537852
0.0504544443627419
0.0467713412634468
0.0503419060157983
0.0481017119292309
0.0478033858433992
0.04671826905003
0.0515341751754025
0.0464734623380734
0.0523158368855839
0.0476438821240923
0.0523535711918936
0.0456337739519958
0.0494231841094888
0.0473452319624284
0.0484480107740434
0.0486753677979529
0.0502243620203145
0.0443103339438447
0.0509966546894108
0.0450221324435568
0.0458431742953232
0.0452924892202558
0.0471764227208087
0.0440936882940977
0.0478374084430172
0.0445181482715457
0.0453416334143308
0.0452386190250707
0.0479922581157078
0.0453936088586148
0.0448066663866685
0.0456841495331888
0.0455666183261258
0.042211257986593
0.0451527655522101
0.043022175333102
0.0473177402227259
0.0419454239579925
0.0449844806147487
0.0442556068268844
0.0462168236090533
0.0419374286727711
0.0445852810019157
0.0468531954109623
0.0465358895929888
0.0439642622477909
0.0498544520540151
0.0431573241634376
0.046312851898637
0.0438094044830912
0.0498503143668146
0.0474719121699586
0.0484998195364224
0.0457098919484512
0.0487920659040945
0.0453201543649967
0.0452646405844084
0.0456686810692846
0.0524458734616486
0.0438867488444541
0.0463447746879111
0.0467867248860703
0.0494434743379886
0.041639561514503
0.0470698440773309
0.042651624820966
0.0468685848380596
0.0425337802715854
0.0429212902487449
0.0383306503701523
0.0443848339477171
0.044928977390338
0.0440092363290166
0.0371785957441775
0.0516445754191717
0.043367720687783
0.0466475776426023
0.0388133352952876
0.0454953814955406
0.0351707591802629
0.0465415807773064
0.0416615803551284
0.0502162597713924
0.0444908112773588
0.0493399109775835
0.0368413228047878
0.0444586001169502
0.0423417607425511
0.0483963885083737
0.0446670650402602
0.0423529597470696
0.0396442297162524
0.0391008649194448
0.0406066527526484
0.0422543843069942
0.0408725900585978
0.0391238411773104
0.0426266665890853
0.0409921244554541
0.0444675920387568
0.0367279120393354
0.0462136222473589
0.0371350505788632
0.0517882722661889
0.0333862087950915
0.0555550851379259
0.0274261145165228
0.0592628292843276
0.0252606106135915
0.065172938196413
0.0213189695892955
0.0669211099266281
0.0148545776641664
0.0730895869509928
0.0196243959749841
0.0690250025916349
0.0164641321600639
0.0712283458458656
0.0198125967301097
0.0600186591523153
0.0281980531096981
0.0559055719032748
0.0360801489012795
0.0475068779994194
0.0458021074854488
0.0372582584345655
0.0492591963200943
0.0341286422981319
0.0512492020177829
0.0336246945175978
0.0481892031825706
0.0384275966921477
0.0438875504031225
0.0424137807257711
0.0429036638608487
0.041386407480856
0.0372132942030015
0.040795602560484
0.0380975520992337
0.0398077423022297
0.0422286645093537
0.0353949915927705
0.0414287776590903
0.0381511407732245
0.0401022558425075
0.0370091204131011
0.0390691409176477
0.0388626384257605
0.0389436736980906
0.0389261952189859
0.0390562160470463
0.03585938687341
0.0385868290168482
0.0360408960458434
0.0377105875488749
0.0361490416322041
0.037067552692108
0.0387800625467358
0.0393773700103381
0.037651661594637
0.0377137954506807
0.0341133912002725
0.0385095125027186
0.0349434360929185
0.0390160837908944
0.0364017499234334
0.039061710617806
0.0363467859490802
0.0399620451530974
0.0368541158598372
0.0380402754956839
0.035187963649301
0.0376138696360469
0.0363797487776157
0.0384424325902946
0.0376951160144961
0.035928197471154
0.0363580870457374
0.0377148080417193
0.0375685687515208
0.0364455139011709
0.0363714983762066
0.0401429283313636
0.037354411631035
0.0388943743641381
0.0353000640351707
0.0374955170300265
0.0368945792568596
0.0393558964627058
0.0349754755201163
0.0362577019442956
0.0343312809074639
0.0382292765719295
0.0359282665425911
0.0377724412659836
0.0359860834033222
0.0375093556089113
0.0360009828863728
0.038127618470105
0.0355621713266397
0.0373583413980356
0.0341827794437192
0.0390949599278873
0.0329423314511475
0.038075765016419
0.0353099216200998
0.0366470382534177
0.0331014590294842
0.0375928107715501
0.0353382695964425
0.0386932781313238
0.0357730896965989
0.0396934044266179
0.0380698122649977
0.0372446379381739
0.0358431338092387
0.0397141582363117
0.0369276773404908
0.0389928634502628
0.0348120894364086
0.0376089195393497
0.0343754363991217
0.0365083191795555
0.0340694074560693
0.0384856626286179
0.0355680054060667
0.0383917623838626
0.0356955705856249
0.0387901237094092
0.0358120556264485
0.0389728469534759
0.0347947776331547
0.0386402597870923
0.037937208908601
0.0392588117457453
0.0358749520034004
0.0401884314891093
0.0354089787478511
0.0356659633564305
0.0341923599367451
0.0399436085694715
0.0330340815972233
0.0374552425051157
0.0366971063746882
0.0401503905959113
0.0363611957223333
0.0368971886090883
0.0364189077068443
0.0385903779552475
0.0353892880429893
0.037648109002637
0.036126861229177
0.0384617071142661
0.0352813688575006
0.037607314895037
0.0377250040115933
0.0387683487988475
0.0344550611594691
0.0362289396489207
0.036568710372983
0.040150385634087
0.0374903602404809
0.0383778045522091
0.0374936628516354
0.0396387967267608
0.0381370907367773
0.0378871756423202
0.0342824478750707
0.0379546978752578
0.0371578359366032
0.0369714126837709
0.0337035150284573
0.0379849378901229
0.0357827214859883
0.0382671124978068
0.0361607724262594
0.0407125334010306
0.038181502485846
0.0397926532410045
0.0350024984410607
0.0388770732242795
0.0366134333885537
0.0424548032069031
0.0396922477205274
0.040252417207891
0.0343194914900273
0.038938017136644
0.0335509241634096
0.0399894680414058
0.0367229703345409
0.0382273869562943
0.0369637566362557
0.0404639597461089
0.0362328313170272
0.0376551756554148
0.0359687718864495
0.0392264825938642
0.0362455955554407
0.0390269418878625
0.0363071914283754
0.0394579329862398
0.0365979435041779
0.0378872766001246
0.0392277022853722
0.0404623757755916
0.0348818764781245
0.0393397854366317
0.0387110626623506
0.0396400870639343
0.0356890669414927
0.0379133015447621
0.0357764745301025
0.0368456341685506
0.0346697978494623
0.0387982391451149
0.0359500539503438
0.0371673995879167
0.0360752654763084
0.0358011850088435
0.0329498120328671
0.0386435254620665
0.0347414334138301
0.0387275876544817
0.0349830189954316
0.0402779307498609
0.0356532119188919
0.0378823468096731
0.0330861561109962
0.0387963867037784
0.0366615046811511
0.0376959989521704
0.0339481828245215
0.0372081733135593
0.034590574818906
0.0380889722226471
0.0350985856145576
0.0390983836535181
0.0326744344098079
0.0370993455707808
0.0350959798621765
0.0386281318910412
0.0339677784083729
0.0359160209878843
0.0340039885231091
0.0363311611731049
0.036129524674031
0.039297017497379
0.0336947096623181
0.0357191110162918
0.0306293744512084
0.0371672808695617
0.0318773590582614
0.0357219563065754
0.0351399314861097
0.0378210910164462
0.0355265707631008
0.0380457681869356
0.0326146282254062
0.0348673341928777
0.0338779091021186
0.0366606875044401
0.0361184548716829
0.0376016250538171
0.034905451160806
0.0369534132139075
0.0338313772365344
0.0373347701788843
0.0348297701672623
0.037440065403444
0.0325945983062204
0.0355936674704928
0.0318414288429504
0.0395842215478877
0.0333065312215059
0.0368357485063459
0.0351062478225505
0.0363773214737217
0.0337573220788369
0.0349406458844365
0.0318105343817579
0.0372250570817518
0.0345541847734264
0.0383168367074693
0.032965232294341
0.0359930438210693
0.0316567504388815
0.0373454848038963
0.0346776752011389
0.0358022204559836
0.0368517623703266
0.0388389302327113
0.0335469237176989
0.0362386995122544
0.0322106094227997
0.036089039053084
0.0329437181847834
0.0365283294032696
0.0343488329502614
0.0348658444320282
0.0335993258676385
0.0369301243875577
0.0340881616734588
0.0345039478927422
0.034426657234695
0.0358802833393766
0.0314867174915684
0.0337988285560802
0.0327247662452645
0.0347930046100404
0.0323235966517771
0.0363171328014206
0.032380861127563
0.0366115379108222
0.0315295029407611
0.0356632082934695
0.0331069425820152
0.0351116624968316
0.0334518486885389
0.0363401889542221
0.0316473874534656
0.0349153304543693
0.0327208144197721
0.0330445830707481
0.0316573663204051
0.0349251135154528
0.0327433403660491
0.0348127348805085
0.0320923932754755
0.0307179407491269
0.0317681360893332
0.0321608711515402
0.0311513922559715
0.0360527264403805
0.03060185743624
0.0344151354925115
0.0325263456511038
0.0341873386605269
0.0317482101157875
0.0308994456892251
0.0290371760155569
0.0365060574943233
0.0356875763168549
0.0352105197258565
0.0280641662951026
0.033112418918624
0.0296632969049785
0.0339023249047463
0.0292614724825746
0.0303902136966611
0.0284831740551366
0.0334359654975352
0.0300798179801324
0.034958242871535
0.0297396609304094
0.0323498014756805
0.0293439031219248
0.0323049975136579
0.0273765377471532
0.0311416617459955
0.0275165173152261
0.0313242424386116
0.02903297212235
0.0325620056764822
0.0305325651351978
0.0311407105862458
0.0288622727158345
0.0307305566961091
0.0337357986396974
0.0378723327299549
0.0303670243545481
0.0307079173302519
0.0307534758464955
0.0325942093243177
0.0299614577386468
0.0334222147527314
0.0287443811084132
0.0303318699454551
0.027530058473137
0.0328025600944252
0.0277326182331586
0.0320786507848215
0.0301170756638063
0.0302116883992245
0.0299469832851678
0.0304084885485833
0.0256471199798224
0.0318946854634377
0.0284151042362644
0.0309148157579786
0.0268572479182832
0.0313762507532157
0.0281782715009973
0.0298088218324709
0.0280588329774977
0.0353719929978028
0.0331849033427367
0.0311737622096963
0.02842783406884
0.0299805211746054
0.0252486428091701
0.0287210093394898
0.028190901038768
0.0310534665349335
0.0254194150649517
0.0301880030783253
0.0279086555060172
0.0297085934056379
0.0263120498967149
0.0295116721301124
0.0242687088584066
0.0311808851784123
0.0284324002219814
0.0313089223640833
0.0275047798888516
0.031109723448907
0.0223645445355861
0.0271329810398639
0.0269504990597433
0.0313450668531904
0.0275119949029611
0.0318262848827544
0.0386423500361441
0.0357423373321278
0.0263882314303738
0.0315900715792976
0.0248487186921721
0.0290837265522288
0.0259766011029014
0.0273022717675209
0.0264645490854909
0.03158006698436
0.0255778258598597
0.0295845033231216
0.0267004254326406
0.0291629344922205
0.0256721574076309
0.0288440103182454
0.0270024831839007
0.0300454186103904
0.0263566980630561
0.0269383816416305
0.0296562394466445
0.0399573859641462
0.0305160460073972
0.0321723100958527
0.0263128009687425
0.0298217355081398
0.0376202639334558
0.0368442869856758
0.0275527770275282
0.030629856859676
0.0258345297789003
0.0268832584136602
0.0252809258112032
0.0285444266796401
0.0280865028507373
0.0325534004402117
0.0286549723025804
0.0320491306670134
0.0274913346228101
0.0251902362289602
0.0261241180571734
0.0314015175938097
0.0256862815260092
0.0285223542617892
0.0239883772719085
0.0280496538967873
0.0241850910536408
0.0284119628031463
0.0254402260108304
0.028248007441076
0.026110428511468
0.0336561694016055
0.0287690224508261
0.0275152986387984
0.0262660022615114
0.0270617325299351
0.0291723655684271
0.0408014141351389
0.0305179411148727
0.0289261411398177
0.024892494985356
0.027612350427686
0.0266353856199925
0.0303094700294862
0.0256347048598026
0.02956655963337
0.0252478505615466
0.0292290473691025
0.0234115614591796
0.0283597555267891
0.0236949287186595
0.0283319129125898
0.0262864791570055
0.0272693730526308
0.02637009957016
0.0298148485376859
0.0263300238091951
0.0312005312568237
0.0331195067372577
0.049073348509585
0.036389247122933
0.0387831283639767
0.0287057411369298
0.0296404192484246
0.0265834573389761
0.0292554502167941
0.0252490449702455
0.031141673916765
0.0242648834412748
0.0293126103067709
0.0287753618020474
0.0272952287329535
0.0232634031733282
0.0283203225786998
0.0250757098121477
0.0276481144101833
0.0225893155144177
0.028593825708122
0.0240030781235054
0.0268359766757834
0.0243801482797717
0.0357128665321249
0.0319410977753625
0.0292881533656966
0.0269517285768954
0.0523602071221522
0.0472556903183024
0.0344617985820317
0.0275466997656081
0.0298702298756584
0.0266587127825011
0.0283853091386929
0.0269897372919501
0.0331618654044825
0.0283136389502574
0.028441007604037
0.0269092836428036
0.0331322248671701
0.0270674774800276
0.0277660494287999
0.0337862984755902
0.05233055962448
0.0365508743381921
0.0330890335268271
0.024685590635643
0.0386484021829567
0.042562657525639
0.035299468508774
0.0291725083077921
0.0336586977839176
0.0267449489378729
0.0310570366053779
0.027620108861422
0.0295857263186982
0.0290781849311028
0.0308833403655166
0.0280288014629934
0.0281943764570555
0.0259389543784089
0.0321815807594398
0.029273219652645
0.04113854025758
0.0364894457826493
0.0307429022774924
0.0297169648464186
0.0307914779010877
0.0274144900190351
0.0307028292442919
0.0295777546113944
0.0276105276673244
0.0391307859570812
0.0450493665191737
0.0337996846038438
0.0439210244330955
0.0369547724663625
0.0293880192952032
0.0304795017612252
0.038165541510937
0.0348094255256434
0.0303595931363453
0.0346458051911251
0.0573408874473271
0.0432307755531802
0.0466916357751268
0.0317884945736419
0.0334445552242023
0.0296156650525676
0.0303404256836171
0.0303432763803692
0.0449066004359123
0.0333139460747707
0.0352078124933465
0.0255954839923696
0.0440639971386328
0.0410762448921963
0.0380802861173237
0.0319367401843724
0.0325486142449611
0.033319877831906
0.0455114404661001
0.0354275819717638
0.0362136000150859
0.0472028806558541
0.064035465321985
0.052550895186959
0.0403110806243391
0.0316359678387748
0.0645080314064233
0.0374907510668079
0.0377377368438577
0.0303674099458693
0.0358607177747936
0.0304085972615548
0.0367249161456873
0.0513931298576739
0.0431252347381567
0.0346488280443485
0.040699333332575
0.0300823437444549
0.056041970585467
0.046701792914947
0.0386595578651263
0.0350165809358673
0.0404087286740001
0.0299744988875581
0.0717371377988895
0.0505179686458587
0.0523231379439381
0.0594295324020535
0.0574278266607971
0.0492117137268024
0.0497589830090365
0.0393832825639688
0.0552144591914223
0.0552049600338258
0.0477638208238159
0.0390306169706523
0.0573820019133328
0.0634330044039081
0.0476020062722779
0.0456460913003481
0.0458684092357802
0.0361708007945087
0.079141172409275
0.0914003572052399
0.0757097066742876
0.0480307114871547
0.0535305365356137
0.0695034553417863
0.0531094985511653
0.0483135350319536
0.0450290677505783
0.0452647117018196
0.0459732306588665
0.0463474520355423
0.0583812432257957
0.0457932895711954
0.0551731854934426
0.05029218498254
0.0528124663047843
0.0691243671398225
0.09660778971836
0.0867692655590937
0.0648273990082803
0.0888736715661267
0.0828407071715134
0.063964142904875
0.0600555555398033
0.0551224037037866
0.0680177172044371
0.0603453290944989
0.0622209617381882
0.055912028083498
0.0855146622810142
0.0751858350557102
0.0738970839110599
0.0808403218580798
0.0671118767166162
0.0722503229194516
0.0701102683106579
0.184849105769915
0.104387129615783
0.0907953187644
0.0884283483674605
0.0842746354333049
0.150618936099173
0.0947395694026736
0.0882153395198916
0.0895510177703641
0.089587695994029
0.0950127400147953
0.104671861459754
0.104367054480404
0.116575248476706
0.108175117431589
0.111831978695361
0.110982573667049
0.178201523982773
0.159048019207292
0.148284601032978
0.128241899733472
0.146075312059663
0.142953553015059
0.137973529958308
0.138762248078682
0.140283319590183
0.137839070172558
0.186591072942217
0.154398148167484
0.157765811552249
0.160889485835378
0.193795374941037
0.156791517420253
0.211198088949187
0.190459885316232
0.183014299346536
0.178651055809688
0.180842911949225
0.181945779197714
0.18283013254967
0.211027345444328
0.210083125245926
0.200227412009417
0.20409729143167
0.200724829978363
0.209182522796225
0.206976062464478
0.214253330715481
0.210102066415302
0.251952127483428
0.204719300400492
0.323913098790378
0.251077882733044
0.224594364521039
0.223250239563754
0.221275015445563
0.247068675725033
0.238520514328441
0.237819517172394
0.240219454587739
0.212978326063884
0.223721510965551
0.211478485058072
0.221305509251707
0.210849197249542
0.220404025741668
0.205281171423374
0.246867991400911
0.213814638853508
0.240731264116562
0.264371648596718
0.225078445199341
0.213825436731593
0.214760766712901
0.211168052531493
0.214365822705124
0.208387542019529
0.221240748572601
0.227508842534101
0.205196097257717
0.206557813947734
0.19926800282128
0.225399156823656
0.230471398335383
0.201039937692734
0.207463311707267
0.190117277581012
0.195832841636707
0.188871926660062
0.195293782512344
0.234776343315055
0.200374896635604
0.194414577609477
0.18887998478776
0.183149686197099
0.190666100892912
0.184389723757355
0.193556713895977
0.187276272420373
0.181667284914889
0.18230282930415
0.182505417693516
0.178894457161582
0.180663308025469
0.17573088416061
0.183250693916513
0.182337193647448
0.182031372506108
0.178231372990113
0.18111590445245
0.174806518899217
0.181569487331739
0.176918836472762
0.180339806260873
0.184683605911022
0.178608453024804
0.173712317114151
0.180314395704866
0.170513949908069
0.181381227119916
0.177531813096957
0.176267772000304
0.172690029668468
0.180637380018713
0.172447689933687
0.180747295376081
0.170921377977751
0.18161962770093
0.172871852307602
0.179674633528431
0.173220570981802
0.186818436540322
0.171212241636331
0.211561181384592
0.196826214565479
0.172288442644208
0.17632738229609
0.169564526592977
0.170373501481889
0.162463613521757
0.193996105685718
0.189696808227308
0.167113714708136
0.168039760819191
0.162560071157827
0.178462878271925
0.168953622293885
0.158155440119132
0.168510229734564
0.15537283319134
0.181760429391181
0.226149461371757
0.205890622383873
0.24031354640581
0.17842942167254
0.166959295583104
0.161369244917835
0.196192105478239
0.155685207025248
0.158551464409054
0.147845139072814
0.197220268640943
0.165776911177511
0.153647053650215
0.151028267316994
0.151612220400533
0.165640091855143
0.176253778550431
0.162098639924258
0.172567623143348
0.190409011030441
0.172951259038949
0.192541240702176
0.203164583477032
0.17646908999917
0.146749122924476
0.145472199360223
0.145240091401188
0.138058655885015
0.198946685811349
0.143851503704921
0.157336832086249
0.135103789023253
0.131075807912504
0.135667785253496
0.148212947766323
0.150214547794337
0.137803111838125
0.17400552402553
0.126333585626511
0.144411891690237
0.142738498718126
0.157588144694775
0.175986689247197
0.14070432773753
0.126648294711627
0.148918963550328
0.170620753507255
0.130018149276674
0.14317601411682
0.114937960599743
0.120856194539426
0.140659154842198
0.116473554164453
0.128868870808438
0.137289445866465
0.133800795459445
0.172487340688259
0.171261222202269
0.161678670682743
0.124113785876637
0.109893359640117
0.108075982230269
0.109246328356758
0.111196463641124
0.103519387750349
0.128913035483986
0.12679255451414
0.0959244205294462
0.160934518661664
0.115719933602234
0.109332410467765
0.111615794348079
0.11129203687479
0.111845286479821
0.137453779272564
0.148007557952702
0.133253902449973
0.124270939897262
0.145725563974814
0.116087756733323
0.125916935201538
0.113785899628611
0.124188086786461
0.120120070976817
0.141981157062176
0.128666969508531
0.136168199243646
0.131842207807957
0.14256879106813
0.146772398931241
0.184377730644882
0.134814358181404
0.183735594105777
0.165457601273729
0.210258954060442
0.175792629246024
0.165321483172539
0.166065306118488
0.166114993388698
0.172335803613386
0.175465609759746
0.171172901481735
0.210851571967998
0.176890300192518
0.19126134329087
0.175748785095151
0.196274566410779
0.187745325166677
0.227820855998264
0.200763396718891
0.239620387390907
0.248053555466906
0.21662708849976
0.212613301284017
0.196723514888234
0.209106614263889
0.208183852653843
0.199593492075256
0.207536272715581
0.201648445834585
0.230462841418774
0.212320045299087
0.21233195565805
0.21100291533681
0.211763631101677
0.211070097849282
0.216251638645194
0.216277294353916
0.222015837442545
0.21697620410318
0.230485712875193
0.204352784917433
0.28806300730359
0.241343404707554
0.235589368323393
0.235721546126571
0.23429626113255
0.237551546169605
0.234879941377397
0.248772444622093
0.251097563590821
0.239622887100973
0.246449454117776
0.2409966106405
0.248985612040214
0.252159201257567
0.27877391383826
0.245505651093333
0.259423819250678
0.248497203785718
0.264310813796418
0.298988219187478
0.266306619733758
0.277823343682751
0.259067190394161
0.266227178766609
0.261890004877072
0.261103866193506
0.261958280702551
0.271538367728441
0.261971879487513
0.266145142796919
0.266624590260586
0.264729183165229
0.265472015343209
0.262236529385947
0.282304045425825
0.267686323591528
0.266917272586516
0.259054783124872
0.264658124295816
0.259138465049985
0.280999708079888
0.281564947428305
0.269775916527239
0.274469013199135
0.270721442423612
0.280569299832508
0.279369822174284
0.262055208817588
0.266047755029481
0.261469456838802
0.261146366162105
0.261295822332003
0.268120254769698
0.287273823865783
0.272659187090594
0.269235295348102
0.263308551161876
0.270466035100941
0.26214054008945
0.269606440057018
0.270108443270161
0.271830247107323
0.270943551984344
0.273922212788974
0.270387642065924
0.267560131302188
0.286482199626193
0.280989954584458
0.27956734752797
0.270457538674953
0.267736956256506
0.265116145359711
0.261844271955211
0.270784277438595
0.264007006692415
0.25965854522129
0.253297769503772
0.260937789098114
0.251755003192339
0.279771487989247
0.253452532210477
0.253982433034326
0.252533101865353
0.238468581480759
0.242194488056676
0.238366501059207
0.239337529753303
0.2385407000503
0.239616187926438
0.23212479230275
0.233283260101371
0.231333460858089
0.229559109608233
0.229128052179637
0.233822662159226
0.225943923133553
0.228327279866109
0.227401388318709
0.226223708599769
0.224451361235375
0.225125998287544
0.224957922275614
0.224126072178256
0.23405062929204
0.23920277953354
0.238144198353586
0.234107613825393
0.224752686169787
0.231941165318374
0.217021783965567
0.229063507520035
0.220121096557632
0.225680145807689
0.221237862558556
0.225392004335001
0.219273690279966
0.223394696726985
0.221867055516148
0.225416074529061
0.219368086854645
0.223129722735815
0.221302015093222
0.224396135263866
0.221411628543744
0.224369188403903
0.221824873847666
0.227638247175209
0.224910822461181
0.221400660904289
0.22456300913994
0.219224780890071
0.220902136373546
0.224595257119947
0.222235416710059
0.225668034793255
0.220129674731061
0.220062079991974
0.219478603625146
0.22149275086194
0.217114457556733
0.220952280024497
0.218413668467888
0.222583803825876
0.217079903560411
0.219975378311152
0.214150930799949
0.214439122006495
0.209516108224161
0.211084926368266
0.206742926140822
0.208678455015166
0.204487007055967
0.205601444096058
0.200579983558742
0.199210658097215
0.199629496113545
0.197356910959505
0.197292069740094
0.194902523582781
0.194422898149887
0.195500238678601
0.191489446904963
0.193741339609414
0.191620032514164
0.192249863066144
0.191678273935068
0.191687476818094
0.187801335388342
0.191674577530934
0.189101952417312
0.191388885048703
0.191224891001343
0.192233110571719
0.190697639175837
0.19147591476394
0.191998223664596
0.194653797502052
0.195714944870653
0.19568130649454
0.196736576851328
0.198560599894885
0.195226696649043
0.198010698568693
0.199521537560066
0.201455903435201
0.200112463298621
0.199446186435191
0.201798392640757
0.202821418535143
0.203482508489137
0.205518341587395
0.202245498302389
0.204929281513279
0.20236465207039
0.205554844306752
0.203696161671235
0.202910362403394
0.202832221560811
0.203831226547502
0.201346674104758
0.201414034712197
0.198598011165998
0.19821600722894
0.199598232636869
0.200058398615846
0.199989223364254
0.198855450710174
0.196383002481647
0.197253250158668
0.196311061243402
0.197700521641311
0.19416044665759
0.197049795287136
0.191418758396027
0.192197074302921
0.193596798673251
0.193986445181515
0.190724306476403
0.191085161253456
0.189423351273028
0.189718008426015
0.187961039005793
0.187999147636504
0.188289402342652
0.186432288420012
0.185645529126667
0.187050722815641
0.188040651977291
0.187735036577302
0.184915607209325
0.184216276824592
0.183932111598359
0.182731022328846
0.180231446746594
0.178947644576261
0.176834107153014
0.177462372252485
0.175888805613026
0.174573601574937
0.173569688737707
0.171885107622055
0.172807458164444
0.170740839707759
0.16945624819004
0.167812983086068
0.165576252554045
0.166353549855271
0.166220532101163
0.167227465979837
0.166579719302223
0.16484583436606
0.161572408177735
0.16244486668265
0.163266485887718
0.162345685204154
0.162501163909025
0.162782312573923
0.160150249872295
0.163607257693968
0.158629721266017
0.157205860550111
0.156707886876056
0.154278881942772
0.154227632254657
0.149835429255158
0.147529738317096
0.147444357451893
0.1460395862525
0.147672306233521
0.146248726896724
0.147476661652163
0.149935866233453
0.151189897415526
0.153487436033877
0.157503191223251
0.159007080432195
0.166199906900606
0.17038380852077
0.17900145922767
0.185192462386904
0.193401877503519
0.200222997766448
0.209516044555067
0.215305382227011
0.227920957195208
0.233688797492124
0.240308520690544
0.246981505817696
0.256171421427424
0.263616030908989
0.27051388234506
0.276894597087504
0.285667737927517
0.291129153360164
0.297407667120861
0.302133120985753
0.31051650268862
0.314824212635816
0.319807222186529
0.324658354469088
0.327307652646147
0.333017602118563
0.340362139290939
0.339315022338939
0.341856829433331
0.346135171457134
0.348706774083601
0.347931386709155
0.35146474156524
0.349884600709856
0.352318267499915
0.351272108101454
0.351747031960592
0.354574568993856
0.352603542378137
0.352318792369544
0.352352420425972
0.357960578083102
0.358586654023578
0.357863424805256
0.360490943187656
0.362945822735889
0.36797329626129
0.368573945478698
0.372211468276066
0.368604069655905
0.380533568093701
0.380902850309677
0.38138509575425
0.38561453657041
0.390517814768315
0.395192864048685
0.397437141717066
0.403842544174686
0.412550167825938
0.414647553926924
0.423485105636842
0.426557477408822
0.427561255650016
0.4405313850447
0.443862267139141
0.447394784694078
0.45217232155381
0.44925354416849
0.452713566215993
0.457749538328202
0.458650251021053
0.455128749792582
0.45836673202384
0.455308391550143
0.451740821563122
0.449110769510498
0.449473896558253
0.450661757996536
0.45014009916209
0.451808485623921
0.456612453099011
0.459647207226617
0.465375586176125
0.472057469344164
0.479440761969009
0.487069655028926
0.494370051592829
0.499522738865896
0.508883397482113
0.518296493828435
0.524756706859576
0.537392938522842
0.543033175186103
0.549300734026789
0.558683838402403
0.564447423212848
0.573392684663662
0.578881888983651
0.588496054627256
0.598669463657019
0.606578706315197
0.620315641713399
0.631085874314202
0.637259364124831
0.657011684121086
0.665650020675582
0.675145978115213
0.681710387704432
0.696887433300432
0.704348733117102
0.703387375602465
0.715546751208628
0.733502689374361
0.725480442716074
0.734896295131321
0.740726283096655
0.748311410645203
0.750912183751047
0.751080711919958
0.767100690043643
0.756596650330705
0.755103929765392
0.763061576087871
0.756929075692613
0.756942971875512
0.745436010073774
0.746386235244285
0.75661129523065
0.743046355966571
0.733090151069261
0.738890028852514
0.734729231970515
0.742418863169277
0.739876975247797
0.742605726963302
0.752436584900746
0.756426041026385
0.75870754198065
0.767399187532926
0.765799887949483
0.775578176800181
0.784148795907894
0.785253748320239
0.791743744488336
0.790881191311346
0.798214716540153
0.792694804854125
0.798253380695996
0.815382303635778
0.808555623435557
0.802073786885162
0.811838344850475
0.805828195367885
0.801596948355638
0.808969275371598
0.81215078191316
0.817182397565991
0.835615350276284
0.819418408534337
0.804951569770263
0.807319226988325
0.802876832983824
0.785416137952847
0.797678826080359
0.793694309378029
0.78145723491292
0.779931774408047
0.778188851124285
0.774597549010657
0.758188234507404
0.756441789395224
0.750715684749897
0.741254038850515
0.730062604107909
0.721941546464129
0.708674034474049
0.696040551633831
0.685723945427748
0.66657113519208
0.645223983472458
0.622453579829419
0.612539580817777
0.598073311018122
0.567151878435717
0.544840860288412
0.525717397386976
0.507348717405894
0.496245171609671
0.477936719189103
0.46606324362244
0.456542338888179
0.451050493059537
0.443194530108786
0.447505962827296
0.4363252272846
0.434729293743281
0.429109232316272
0.429779203976795
0.425464037100211
0.418518902259804
0.411142105222733
0.408168109996415
0.404120293956874
0.39821463384071
0.390458103979871
0.387606875223396
0.375564669929745
0.368552292541266
0.36006250924198
0.350048896243168
0.341167502303829
0.329248332263418
0.319610783721111
0.313031432327538
0.301947912683261
0.286103249273903
0.274015183598426
0.265566772681424
0.247898899785279
0.236549650818409
0.229505449947924
0.220202945016453
0.208062965371701
0.199005910996655
0.191137353852006
0.18310574745744
0.174520103289357
0.168759561108363
0.161759344147158
0.156997061168765
0.154910738291884
0.149325188671182
0.145160101628405
0.141371723165083
0.138822949204102
0.138718673402308
0.131904276200238
0.134798282905742
0.130286760298287
0.132592423056921
0.132010167149032
0.129962180019095
0.130554553624021
0.133377529366967
0.132065406075421
0.132294505629743
0.134337522306752
0.136448091678451
0.136266277733603
0.134697072340079
0.133284193343094
0.136615447930484
0.138219885603874
0.136602239851057
0.132660707248888
0.132178717340409
0.131935147840963
0.133298792210883
0.129047271706722
0.130536822236606
0.127956772194312
0.1277229909001
0.126094663135485
0.127515307363443
0.124593704834681
0.126002514134636
0.12667817444968
0.127432726129233
0.130265713779017
0.127271530240674
0.128727801372435
0.134369481044649
0.133183125953079
0.135129461456849
0.131095012204095
0.137842179672745
0.140009210302409
0.143039764910758
0.140631333410955
0.143497188205975
0.143472025257906
0.143678749963247
0.144230602764463
0.146530026777929
0.14876248423232
0.147566357140785
0.147683087699819
0.150361811440579
0.146639029320821
0.148141627778555
0.148736390469035
0.153882220115443
0.15320836802324
0.155456475185417
0.152345739069209
0.157380846533044
0.160256064581383
0.166665360844343
0.171820909322354
0.172081531363437
0.174368377203599
0.181297362908467
0.187345521142619
0.195376227054147
0.194332938261788
0.203605912307399
0.20187309705883
0.201485402128191
0.203935832889388
0.203615231409906
0.201204310652875
0.197850861789017
0.19339687717577
0.192131741489473
0.186913317611165
0.17987874887889
0.173350371423991
0.184205803649045
0.178284441718047
0.174446199519585
0.175435436022511
0.174312042043527
0.172259780940967
0.177568853285872
0.173053281199623
0.174040920794716
0.17582464178664
0.17486877549346
0.174526928457314
0.173998343209633
0.168978261128353
0.172893968625827
0.167042637541333
0.169084668266063
0.161643317936768
0.164873525237524
0.162408866127784
0.155981954080293
0.159268925239318
0.161781496068438
0.154439488071454
0.152790194099664
0.150186898587063
0.151823745552002
0.147070195447423
0.149297500135195
0.148393347842825
0.146177043707129
0.14279848714845
0.1409710290456
0.139009531850437
0.148961267236733
0.145462483662712
0.144158578088477
0.144306165474636
0.143305236223097
0.136318210567632
0.141107021994338
0.139258675133259
0.140868230806948
0.139527848276145
0.135990181398934
0.134258278184422
0.136548844966341
0.134924988394075
0.130258588009606
0.136115319978473
0.12717696543189
0.123169863110268
0.129330080923939
0.127384181197147
0.12595942539183
0.121006679360941
0.134812761991532
0.133676290237285
0.128443658283729
0.120428820308266
0.120657211140771
0.124117078046622
0.124885101600534
0.123792936278465
0.129292374314817
0.125646475453772
0.130638610257186
0.131481211840315
0.13670189508259
0.13143579087479
0.132510704606947
0.128743125463805
0.130030010030423
0.132445339737396
0.127989272455144
0.131640084142632
0.145899266718045
0.138289335012184
0.137993256996575
0.135493527308034
0.144809220319042
0.136696834612422
0.13388289186751
0.1447250589158
0.151189265794678
0.156184103825006
0.159201100710515
0.164312343639924
0.161163516646202
0.161167396833884
0.167603843330493
0.179028448659133
0.175706536516135
0.170306607526713
0.180667801832169
0.184072811905018
0.190313661897485
0.192487930148439
0.215730577130299
0.200426491970401
0.214560054420888
0.212976350598254
0.222958473962766
0.233542396901256
0.238730904221192
0.229059417257162
0.240170670545127
0.237654439178136
0.243514619724792
0.230513774720569
0.246732973289247
0.226634677729653
0.238617178347742
0.23577257510283
0.234810395235435
0.240324243499583
0.238265746139582
0.231199520786362
0.24558108310616
0.227737933018714
0.236909729522003
0.247934853839687
0.232845581652251
0.229912923303999
0.225219313335238
0.212997497599568
0.233995851804383
0.220521904810884
0.216020778438847
0.215931287175254
0.233598741187365
0.22037244555703
0.193637682956002
0.19700848996662
0.222064603416138
0.205603498964794
0.199746591710686
0.204298380014284
0.213983419097558
0.203480691615758
0.189189710040462
0.204053585470302
0.211004823192847
0.217786394481931
0.205187121298603
0.18993592810806
0.19303430614768
0.206602967363333
0.203214911939311
0.217617829583883
0.208852964851695
0.194163677285669
0.217263939343334
0.214073196943984
0.225411022853604
0.206656815172134
0.203100363186134
0.207776996856483
0.203506449541793
0.201969129955959
0.23642135011027
0.20076685474909
0.21517180033818
0.20018178133513
0.20462708760709
0.212487107117823
0.232124489703459
0.200297326148131
0.209404360920409
0.232409199613707
0.21258158369323
0.206671296836264
0.255830054763234
0.242515569638975
0.23046107945947
0.23971662202516
0.228620888402739
0.23769659133603
0.249547451036171
0.21727762182914
0.250496340772886
0.256422585102845
0.247815737901209
0.264563462668527
0.276986437199717
0.278733915586352
0.269417422242413
0.27735835346111
0.295727652586785
0.282653591023936
0.301044442987558
0.318319616500618
0.335141335337241
0.311778170361449
0.330784629341797
0.332957891092593
0.269771598444362
0.272863544199111
0.297380019813333
0.305043431744919
0.279858114292608
0.239737230943484
0.299725806415158
0.315988039968875
0.276369676362887
0.249131019476179
0.304421774215078
0.261968588676119
0.333068851656733
0.276230357355027
0.241227315267421
0.293629271066993
0.235861998935948
0.242183221097654
0.303145501083588
0.296308763951224
0.25137976477565
0.237055854743922
0.284228434449984
0.266111277380519
0.209194374424523
0.265008922744868
0.335558055801298
0.297752305981238
0.347496282279019
0.294790053224901
0.270919313217762
0.251915397336797
0.302649923593779
0.350181417937666
0.357171865814447
0.337317073806219
0.148488502304168
0.305235640973678
0.213550925631853
0.247063509415813
0.332396753996678
0.20461117180174
0.287933790999547
0.287390029821407
0.282592851557428
0.210395021805608
0.296668604741629
0.226744634362382
0.289188099685069
0.286217376862444
0.229404096428082
0.26188203264857
0.358950380447972
0.595883896588885
0.366794407302076
0.454906612743983
