3596
4000.36533379555
650.420452594757
1
2
2
0.0641592693194332
0.0657403148151156
0.0518363508945945
0.0625539238107156
0.0662061302066398
0.064989298812279
0.0531203255958283
0.0720571635499941
0.0531700781147303
0.0727165586108273
0.0525310367035491
0.0572181921373532
0.0543035731697598
0.0632321187858791
0.0552373861940878
0.06118645577082
0.0537908957817101
0.0672187987689881
0.0555156671268281
0.0607834365957456
0.0499280546804489
0.0651008516818154
0.051189564667184
0.062425545512466
0.0513838488531971
0.07001713354546
0.0539295406183414
0.0586779570917678
0.0548127658910694
0.0680420415364734
0.0530111051191035
0.0759914390708263
0.056691734074854
0.0564015194903853
0.0597091388361078
0.0673901088415593
0.0534053837879337
0.0577505455672434
0.0511579085485799
0.0701147519075125
0.0606157239829852
0.0659172623676398
0.0643533346844321
0.0709379673363139
0.0517956093205766
0.0632557295778253
0.0587053362483146
0.0654892499313655
0.0612657766967029
0.0651922128800374
0.0520509485473741
0.0603640320764079
0.0597680352296023
0.0797014057037803
0.0594789590546851
0.0782934406475209
0.0566767775823954
0.0688555954191827
0.0542926533359982
0.0590857017118617
0.0692746936348989
0.0805814099197382
0.0543134054514885
0.0695441718051117
0.0517627226901356
0.0634527170867348
0.0487157678152182
0.0604114549974708
0.05372907817993
0.0634082490771015
0.0520418061894401
0.0743148488252825
0.0656139924900162
0.0659820805078678
0.0607840880569184
0.070321630299602
0.0490663531667467
0.0621028201986654
0.054298576321435
0.0752803618074725
0.0635894693042977
0.0643062214137817
0.0552430354165987
0.0603558136706007
0.0516613989809525
0.0795195535846382
0.0543165988025688
0.0697764320395855
0.0778357155357228
0.0679158806872358
0.0558342629046071
0.0605880081520535
0.0532297022573865
0.0614641742318177
0.0530138727780305
0.0629761366930606
0.0540751928906439
0.0613857039154291
0.0569773573078056
0.060241689768033
0.0664131386484124
0.0625800035670112
0.097750616553351
0.0587472416740267
0.088129955461159
0.0865804525099051
0.0426629867603197
0.107267924329212
0.063481217514897
0.0746892041007792
0.0540169658522478
0.0685542565292049
0.0522258923285779
0.0683695741672849
0.0385917130411221
0.0763587167337647
0.089636368524065
0.0626858512889628
0.0588983544696789
0.0580600012225609
0.0502106538242411
0.0746970748138438
0.0902217549183306
0.0635054501162433
0.0664288522121389
0.0597831666336719
0.0438863883191862
0.0906549031780904
0.0882077489733512
0.0566724766179575
0.0627656677841267
0.0585531819130025
0.0509265120920097
0.053419150128636
0.0928967106302466
0.0792565589740213
0.0597152018622379
0.0610966007963177
0.0699853006829752
0.112009680046311
0.0677436727619997
0.0631117448244338
0.0412831799717254
0.0692221249341698
0.0891209523027677
0.0713415851126975
0.0551909225169461
0.0831391596703839
0.0747210586909989
0.0518001997309375
0.05206536864937
0.059136825975262
0.0642171583541847
0.0689760807736593
0.023226254472654
0.0814325192660759
0.123788537234423
0.0620404778789196
0.117155019350274
0.0622144423845315
0.0662033479920777
0.0582986784141585
0.0469973792720615
0.0531437528957673
0.0543120069218508
0.0590460584175758
0.0588496979642067
0.0864992264379181
0.0528145305776811
0.0733392398460287
0.0871067687500015
0.0745604733641479
0.0518417446989845
0.114307337194657
0.0779022950299751
0.0542331124434731
0.0863480097554795
0.064657142686789
0.0453181844606374
0.0620584715952055
0.0813299123031404
0.0614234328159109
0.0561244742884698
0.0603554390189401
0.0599648579304835
0.0691041929038901
0.0614691193168123
0.0594124658279525
0.0595099801895215
0.0413856241409525
0.068159643482511
0.0997269145622522
0.0905809119071834
0.0534937514521387
0.0566602661094621
0.0349635874037937
0.085998348868678
0.0962597790273432
0.0454518039704277
0.0579991790963962
0.0484689072906472
0.0562177561200142
0.0468673289981434
0.0550575479947878
0.0518482956409198
0.0402157944456624
0.0902270617883762
0.083832037127008
0.0534338144397571
0.055137927460422
0.059239512753714
0.0576968481041245
0.0958483425775215
0.101792419354339
0.0566884116804488
0.0570329056313043
0.0533405789454284
0.0780925830566885
0.0687274328941921
0.057843191236545
0.0493273396286235
0.0547553252402804
0.0439448289988216
0.0564643424243792
0.0464572335818611
0.0621258912587972
0.0504957485532133
0.0569274468759188
0.0527526032738824
0.0612902051476638
0.0608615517404609
0.0606368773512173
0.053430384652095
0.0581917073627447
0.0484909083391617
0.0744053967606458
0.0758372747205278
0.0560195629374724
0.0518291236388571
0.0552945561819636
0.0548865845893983
0.0518574429916364
0.0559456099118842
0.0589292280080823
0.0508211383262946
0.0577865306612674
0.0843879636309693
0.0659426511895709
0.0517259263980237
0.0553093054234394
0.06438057980446
0.0822824530371113
0.0532375252808466
0.0636942802828376
0.0456911657002955
0.0579018948444872
0.0512982888163808
0.0866291242056528
0.0649529930013473
0.0545992369108971
0.0592304265411034
0.0721059234135365
0.0475481528698901
0.060134375558189
0.0374804429507007
0.11294772490608
0.0775074761309241
0.0649212739311834
0.118037923745159
0.0838313895067854
0.0568678817699646
0.0642719424723731
0.0187836937662631
0.145184329464172
0.110375197950267
0.069743163260962
0.0575935103087543
0.0686107987108815
0.0545152275505189
0.0570504757689627
0.0542039795814661
0.061762563063821
0.0959057377922944
0.0978949568685095
0.0908840304794102
0.0541229325496157
0.0738628807253206
0.085525726632409
0.0568135924382607
0.0746734977422241
0.0552308721726213
0.0604851480111326
0.0651224619869111
0.0771798684393255
0.0615418918113118
0.0671491191018131
0.055473521630058
0.0867288604409113
0.0647040442722326
0.0602939886507861
0.0537092858311701
0.0731943560436443
0.0567225107961509
0.0591680789020912
0.0563944766240849
0.0649237378886314
0.0552944468133161
0.0698904538295495
0.105345163157108
0.0798396536941004
0.0518264444970777
0.0828965868333501
0.0593215393309057
0.0578721524307277
0.055919372102862
0.066763015744046
0.0520998757936222
0.0524524970124467
0.0501085279572022
0.0859764125718814
0.0607607519276969
0.0610828063685596
0.0600949824799041
0.0571392911249321
0.0528583893409979
0.0590066230525212
0.0581538722113976
0.0553365948517369
0.0552597209488312
0.0582861137424644
0.0669334765508141
0.0832203347754217
0.0377430278711396
0.0787832536329891
0.100992080269146
0.0607418776653099
0.0562030488892162
0.0584309424204583
0.0628070547089902
0.0524839051142261
0.0556827137090819
0.0616694829873162
0.0677792889309062
0.0765263326826599
0.0677969978779224
0.0621134694180431
0.0589643844909974
0.119413793803232
0.108549169870473
0.0887329108507775
0.064503166928564
0.0531377683113992
0.077465736800902
0.100470082230583
0.0788379811280552
0.0990228914576385
0.0560046868088266
0.0709781848839334
0.0610129578827876
0.0684357652933703
0.0674960842099647
0.0663810773110117
0.0564487076348355
0.0640894903151279
0.0679375001024939
0.0690148381003998
0.0584752018577948
0.0678655480494906
0.102885694082317
0.0800290067474028
0.0601844436226066
0.0724504666915439
0.0596566065866996
0.0916478687362338
0.0944433407447164
0.103102186684383
0.10641123593485
0.0863703056002274
0.108308199189859
0.0798496128362984
0.0745717267202553
0.0697319661233606
0.0741119625939279
0.0787557805525411
0.0741863474453928
0.0783692270351213
0.0731864512653456
0.0804474152970156
0.080232816318441
0.0694230930935106
0.0701124983941078
0.0852858347805494
0.0991245753978917
0.0914528629966427
0.0773447518118044
0.0792061053027137
0.0843847142522429
0.149880242011437
0.128139822752132
0.104815983558336
0.0907620640613377
0.100096169304797
0.0828985290817294
0.0910369331009426
0.086792673395481
0.10259850151604
0.0905706904391764
0.128573101796811
0.1129816213002
0.114858472190977
0.110783986636878
0.0895098145457396
0.108964126410936
0.104488843166115
0.111784683127027
0.128557475329091
0.10913700209054
0.0948735871127034
0.118958819865923
0.12995490708088
0.118934531398153
0.133233101486422
0.108089676289698
0.107039385458694
0.100956877254163
0.113982128566424
0.119864655103293
0.129465447037763
0.113360990013871
0.11452770883341
0.124778157020787
0.122596445647821
0.119209799008286
0.143389270032866
0.128066680951252
0.13843263508579
0.151602163113083
0.134734318236784
0.125220959224216
0.11707471672485
0.154109507066492
0.159568138819258
0.150892649158569
0.165242421749855
0.139586065640494
0.148478591276982
0.143859260000359
0.142772499492643
0.13717928845366
0.144022024561559
0.149983409492575
0.155319328289151
0.151273664633796
0.155670632293834
0.157685385236773
0.163724456353815
0.165152621971166
0.168342902669871
0.161796847542164
0.173536404608593
0.168932445081234
0.173951006661845
0.197962286034169
0.218119212924887
0.193815186602331
0.20993651335059
0.190558781960236
0.183531173729917
0.190845564345555
0.188889197565517
0.191598518707152
0.194175199354753
0.195939161782022
0.199776775260132
0.20089849929391
0.204778823280105
0.205675899339359
0.214523001649365
0.225772066890096
0.218698735698628
0.219210266025962
0.224508447229308
0.215293359726948
0.209601880225107
0.226006462746061
0.240861765383324
0.234006657903369
0.241980064083713
0.243673021398602
0.243189149342165
0.253659405360277
0.235932693738851
0.237953479773094
0.245928317846006
0.248534401425812
0.245562457975326
0.261390091352383
0.261895256107428
0.253358489038264
0.272053167070225
0.271159103201775
0.26754911493865
0.274034316351052
0.277095070225677
0.282597756883298
0.272953798224436
0.29723136095483
0.297256361707712
0.291027057793045
0.298732340479833
0.296897922516425
0.304834551795482
0.30157253100547
0.308316656424457
0.309234270892926
0.320301515812057
0.328223499920054
0.311314518545442
0.3081613636898
0.333943289078286
0.332351644061728
0.317347613129189
0.331860561759887
0.338993013498122
0.343260737138805
0.35072880177197
0.345704562909516
0.337880826665701
0.34486935142422
0.360266329440526
0.365367790861862
0.354523177631302
0.369355189724439
0.384295155384227
0.379729133688077
0.376422136947056
0.374543191908755
0.385674011947291
0.368589860537061
0.380473937931708
0.395944663943479
0.384093681808266
0.383820262028674
0.412992474329097
0.414461488525505
0.40045961977599
0.407232868743374
0.398221244821446
0.412081506887354
0.416453109580165
0.411104317465065
0.424598196529603
0.419973361966176
0.439224112741617
0.437681580208323
0.453951572980155
0.452781848872558
0.431620205312941
0.426048173011239
0.44876756488435
0.45934835280022
0.449479415450958
0.448435044704991
0.466257650745019
0.453229609890284
0.452678888640837
0.473576842532951
0.450018762182647
0.457071557034514
0.475960453485404
0.482777314690499
0.468954515225521
0.500356877755223
0.49338482790909
0.493321645628339
0.499328617231832
0.505204429059669
0.49618373591536
0.498056060192867
0.501483297886304
0.548653025957489
0.502301073133672
0.508280025835217
0.530699842438485
0.521533033365275
0.532705521294621
0.539692393857554
0.521921165615338
0.541081333436391
0.531940225690297
0.526598837303635
0.537778462269493
0.544545910835294
0.529444133969887
0.538503612540694
0.552142970817105
0.551069321002453
0.554341850572923
0.56768767182036
0.55149772903039
0.564772983332636
0.539531963009434
0.548815877366635
0.580628517288984
0.599670370463253
0.561129362564584
0.567857642155362
0.602047955519716
0.577484339999569
0.590427460108438
0.598121655015334
0.575518902155294
0.598209223284653
0.587997112382259
0.581482194741771
0.607870092036643
0.614214092784852
0.577283166800856
0.628612724373723
0.613709530010661
0.604337523816546
0.610568908440597
0.624760523778637
0.607703988713747
0.639174765473322
0.626556426320929
0.616661705201296
0.609960365511012
0.623635153368563
0.617952855362533
0.630939822585499
0.616305675933309
0.631673097909564
0.625505780529271
0.654091193411689
0.641920222287023
0.639489220035651
0.650025205510102
0.631836265509891
0.631594853314168
0.654479081112422
0.637067770660913
0.646654867611974
0.661489123720508
0.660507109478781
0.641989244611834
0.686448339574557
0.634287051147688
0.694084301450379
0.632726358662447
0.663045877215703
0.638635560561974
0.672852339851051
0.685699313543278
0.696757976966732
0.695069852812261
0.692688737689452
0.62789651401685
0.710049917425185
0.680473700781255
0.681097546947472
0.681872077730521
0.685066190555577
0.652645094157782
0.652712187933399
0.688890198101489
0.717326825676266
0.692651561657171
0.687492845886931
0.655480060846669
0.721549891311876
0.697866475299544
0.698892126439237
0.684570443712518
0.671738566531651
0.688029094332171
0.665750605030092
0.668533649175332
0.696936511736465
0.687884002990859
0.7226819225655
0.71545901225802
0.71659420721569
0.662762434814363
0.690929972479036
0.696496069225495
0.698609600263911
0.690802010885837
0.698718800323767
0.705590034115638
0.716471258537514
0.687799248058476
0.700368008767419
0.685824437066613
0.70250501274988
0.687973780987226
0.701394097597634
0.678395329032777
0.711712036782264
0.692904659326536
0.68507175724487
0.691258652437109
0.716152137166808
0.675828818685733
0.68603631898857
0.675589927442687
0.721797302142802
0.702081934596217
0.685419100224978
0.693804083098821
0.704734694112373
0.681342625060546
0.726157713541143
0.686472330607151
0.729329451524793
0.683559091047742
0.67743495431361
0.684266632162533
0.714181798225611
0.676688553758252
0.687634393628803
0.699166605118682
0.672297263139807
0.688631414522726
0.69753999742242
0.682740824137465
0.699213665268041
0.68711910478184
0.701752110127524
0.682870358507319
0.68959941695525
0.681124288558277
0.677589188794663
0.686779686836138
0.687164560195323
0.678030532566524
0.683597734636212
0.68058792265098
0.682140816016336
0.663273494329832
0.685212181799898
0.67498927407355
0.683798796802559
0.661397261970504
0.670950821156768
0.672950899465674
0.675890172723466
0.671005608098737
0.682744323736957
0.675734419103437
0.664432609505845
0.664092795364983
0.676953507631165
0.668281891786648
0.67202913722625
0.652079971441878
0.682878685061414
0.667285928890682
0.64589589246386
0.650044375008956
0.663098739606665
0.66634213873763
0.669408672343046
0.647857032433475
0.671306640942702
0.652716790195192
0.664173785256259
0.667690486649737
0.666692253829037
0.624017401261627
0.668881209832325
0.654313413610524
0.643821980685143
0.635418463347117
0.651121866731215
0.621077261158618
0.65237957304309
0.609067855512072
0.631145187918049
0.644738541959734
0.633693434114613
0.601146069512306
0.633997113010262
0.613881428669354
0.638243529491893
0.623311195408261
0.638370693395953
0.613403032160974
0.618209862814539
0.62159154055476
0.602955930685051
0.606497761083617
0.602497312025083
0.608339230519959
0.59254064078827
0.604432493418061
0.614828020374527
0.606790307359502
0.612496930432849
0.597335903378359
0.596907436002215
0.591641347791519
0.578774956980608
0.578002381757489
0.595664478389038
0.580748410018185
0.567986168993102
0.559117282360724
0.577066027519919
0.586111631296875
0.578779480616065
0.57811486397855
0.56721029351304
0.564377921511432
0.579573976597808
0.564438704566839
0.568358045202705
0.544918328931388
0.552052399461384
0.554337374639924
0.539619324015824
0.54073837092142
0.555348609187021
0.539691489660341
0.547813089055087
0.545810656981127
0.545609593233905
0.537252291773318
0.54035709753439
0.531803015799711
0.541863753107216
0.52051529989022
0.535110611400365
0.528330526588271
0.526038976069116
0.519917163996447
0.535387206441687
0.518105728103396
0.516006730652906
0.521338367961475
0.514736110551267
0.500413501839252
0.501952772646636
0.506814088787057
0.497853958623705
0.485137874289325
0.518266476348291
0.498558099824052
0.499100114212277
0.480166448105773
0.485899903109484
0.476606973222172
0.475472572221358
0.479003104499429
0.481020703390906
0.476191591695528
0.479011538302498
0.468004300608429
0.470926988115697
0.460611187085387
0.467938094561601
0.45413144833991
0.466963651941639
0.465364087518323
0.448549810394869
0.462637833682892
0.459416162478691
0.442501266216581
0.458817625637582
0.452413244087222
0.444980890331571
0.438566242703691
0.44281815494369
0.429916641070523
0.433331167908952
0.432108017741525
0.433004681428238
0.424930965264078
0.422147164012968
0.414397625037106
0.420555693672591
0.419407101240681
0.427348046481641
0.408232000680993
0.42015747430134
0.407033948603956
0.40536613191843
0.411560449509178
0.411175111199297
0.392735338583176
0.401540998805081
0.386908983833071
0.391893804782048
0.394160009542956
0.392652518650876
0.384774197275014
0.391763548763141
0.384433744909381
0.383009263639923
0.37390464237849
0.380769227405162
0.37575036062606
0.38193694605241
0.379109758337378
0.37763797110338
0.368934800535235
0.362570169540465
0.36228973496335
0.365516623691987
0.357980146755053
0.359253765433202
0.361460265596563
0.348951133676398
0.353363762463798
0.354979355000657
0.344784855626724
0.333947746234898
0.343370399398631
0.340905262000659
0.333495976711939
0.3344681636021
0.328157660300857
0.331867698454632
0.326897399168213
0.328912317289284
0.334057804919658
0.324166097108107
0.319577881818087
0.331152796100947
0.324922093295597
0.318972379041365
0.321116559031939
0.318885778752175
0.30975526917236
0.310955710147108
0.30645515077004
0.30714345775461
0.301827025657849
0.302434511698886
0.300897966295012
0.306169141663669
0.292704603668435
0.300693051224784
0.290737471652154
0.289006851608195
0.296950519485685
0.291275046514071
0.288115788421973
0.287911237351683
0.284843185283643
0.282137202239016
0.283831608989436
0.280968158097285
0.279910847904556
0.275382941836806
0.281383778298014
0.276475441570179
0.267699777864853
0.273297723796286
0.264904896806838
0.269103171183993
0.264450942491473
0.266089771230077
0.260939153426489
0.270259464890763
0.26264513303531
0.265623691975289
0.257245952862382
0.260230127695343
0.251440525996247
0.2553452758503
0.247651496480575
0.254602121761889
0.248816621919013
0.248571846061075
0.25128016103231
0.241213032251348
0.243931306343874
0.241562621544519
0.245131624578313
0.240142029691843
0.236472764362884
0.243053943970299
0.231233052214823
0.235856106272733
0.233597855775074
0.237794643908629
0.236224838542369
0.231430328314295
0.236260241576043
0.227876413852112
0.228104312795727
0.224996180713996
0.225952813313096
0.221859680592952
0.223745708371429
0.226024304939196
0.22246691731681
0.223843792017178
0.21285944172792
0.21694350955029
0.216894837245203
0.216522093512615
0.214023543665378
0.209307733197069
0.213816747223251
0.217210597616924
0.205202872252926
0.207664964692158
0.206599187718315
0.205904478436932
0.201838980978591
0.210167245901716
0.201906946927748
0.197976947722931
0.203721760127105
0.203954808331112
0.196676085023473
0.195084233832384
0.195259972922205
0.200919278116883
0.191314441875135
0.193859266406383
0.18855942297364
0.187366989807053
0.188755601995491
0.188927820495347
0.185973424831854
0.185503577920719
0.192269967857847
0.185254284272457
0.185086720808504
0.184702346562655
0.189746222333178
0.184123384204888
0.175449765041104
0.181116231566915
0.173181596746109
0.181872211099755
0.18155439053313
0.175775834933188
0.17541123918728
0.174056112697968
0.17813943239204
0.175419683059506
0.176348312444113
0.171027264568815
0.173213343645497
0.171913068238604
0.171180502091841
0.1668414174055
0.165435490767802
0.168490467858678
0.167311175780176
0.172014835241482
0.171758381349704
0.164287930585711
0.164066254509939
0.162297439298069
0.163113060372471
0.168261969781875
0.164824383275693
0.167192173840233
0.162158651250595
0.15633421224477
0.157483528420734
0.160653224866575
0.1562005377233
0.16077943824141
0.156021323298287
0.160704393607913
0.158105960359
0.163048896633469
0.160736969027048
0.158298311719121
0.161070557687904
0.153222230036302
0.158232837230595
0.155282424273761
0.159502279483333
0.155091570050475
0.159197309829043
0.160905243527259
0.165488222312944
0.164000441521431
0.161811420676595
0.161357395702992
0.164168780523022
0.164984006342244
0.16105267043575
0.16165368945551
0.161102659930181
0.169531172216441
0.167224357733611
0.169851711388055
0.17022764657764
0.164286395129222
0.173984546875313
0.173546338344681
0.169694815654399
0.172342246113457
0.170722379002075
0.177748776825658
0.180341450224544
0.172714432395031
0.180796929557339
0.179811901049262
0.18033759411421
0.181604542848994
0.18123507726934
0.191516584701318
0.185642946854184
0.180748704558162
0.184400243031542
0.19582147433726
0.194816564851645
0.189251323716365
0.194333216803807
0.195871790397208
0.192588206174596
0.193922932210469
0.196459042898839
0.200844718960613
0.19942755735389
0.204541900384533
0.207084817594719
0.208119473812364
0.200395072777714
0.211664616864982
0.206732150707041
0.2117385088518
0.212936800427869
0.214047011176649
0.213286143223994
0.21936980047121
0.221785652391237
0.225913119042085
0.221030835812469
0.229488332248338
0.230343310932042
0.229437477838215
0.234683322201066
0.230262450166639
0.230022230946052
0.240500608555468
0.231824506485498
0.240712296760977
0.238262894578066
0.228577831494053
0.244062953032855
0.235391008825242
0.238114922038663
0.246031947809917
0.243631153728579
0.23896861532371
0.248299972841248
0.234110089455241
0.236792072250351
0.236115671301381
0.239322319399084
0.242924250418298
0.23422760906149
0.238573836156041
0.233802007843649
0.232662856984956
0.234341778105046
0.232802955824136
0.236420175173093
0.231406699589223
0.235292290029213
0.236571633134256
0.237775398882584
0.231753108371315
0.234549700464655
0.237086952025125
0.231763484476083
0.226734715029211
0.234661778177141
0.232180438747731
0.231248932408873
0.226484669228967
0.23079360668335
0.231431667141967
0.229684616048429
0.23314897505759
0.235290756554663
0.228924892722725
0.236635768032937
0.23034974330144
0.229925549065298
0.22991120226762
0.229552079373868
0.228844630675232
0.229582263176324
0.230203124384255
0.227307939238763
0.226284352861033
0.224515732198444
0.225473292625503
0.228859717327932
0.230394978230294
0.22337258761638
0.222139307039822
0.221271798585944
0.221196878130511
0.221822527677276
0.222979790060536
0.219272679332148
0.21277791349763
0.214533606565178
0.215658883094625
0.215446952157633
0.216374864868614
0.212660600989805
0.206082151115707
0.206681552014036
0.207869364221775
0.207206069457429
0.211317872142392
0.20332456633267
0.199660667283792
0.201213881456387
0.195674229839193
0.19334138041002
0.194429038513441
0.193862359067246
0.190543327170658
0.189150502449854
0.190219112108426
0.185445749321421
0.182313102954429
0.184426126976346
0.180569026602266
0.178382550258318
0.175732668072053
0.174612183129329
0.173533430052839
0.171312510940337
0.173303705827902
0.169550444880477
0.167474540473158
0.164401329058683
0.162738674220985
0.162304340341809
0.160228152522652
0.15694475732376
0.160178675920435
0.1558103289551
0.158409878749337
0.161278321686588
0.156223915700071
0.153411311734268
0.151403300138108
0.157143731831746
0.154020694619032
0.151169348203233
0.149907300716231
0.145754413766473
0.145648292399214
0.142388242722562
0.148371261740186
0.148442300488808
0.142774833743768
0.145006466870195
0.145001139339894
0.142293050641792
0.138760681534858
0.140852975830125
0.139320624501344
0.138602019922159
0.134518958959542
0.136282086589844
0.13961128316048
0.136775887993475
0.136621651840181
0.136851779877036
0.132684096819426
0.133427906396659
0.13090504981997
0.129492897675216
0.12852531198807
0.129621149987807
0.130164023673231
0.130258601275958
0.127379422192192
0.124886555181265
0.121246296923492
0.129135308578912
0.124805677449011
0.127315881044449
0.118662424924214
0.125441198768222
0.121856562150462
0.122725654783392
0.118211843439975
0.123884041439457
0.120906707327393
0.120794696925068
0.121774036660033
0.119569499845609
0.121370401870936
0.121704288092274
0.120374051381788
0.120102328409561
0.12194350127162
0.114816450484839
0.119349081525892
0.11811593935669
0.113623392240742
0.11326045889942
0.123351188205262
0.1195003845692
0.114530007740835
0.115305342124796
0.117496818128719
0.115193144601112
0.111356739071036
0.113929371035457
0.114735116695976
0.116542049017698
0.115702922720438
0.111357811109601
0.111402129339994
0.112817307064535
0.113044936598257
0.112983794554996
0.113190430363025
0.112073162428222
0.112942545345362
0.111314188718445
0.110419764221675
0.113559609704719
0.109140097888475
0.106861948723907
0.10983327195538
0.110108437663426
0.105463905379467
0.108651334297282
0.103153556632447
0.103593930222796
0.103697315945116
0.107519325570471
0.104141929077765
0.104732379248008
0.10225614812997
0.103041925816504
0.103854732118459
0.107171545200969
0.106056205089485
0.104748181510708
0.102926088497143
0.103557839654251
0.102315300015694
0.105367573885905
0.108982455693594
0.106691630023226
0.104760627530326
0.0989111295276
0.104422329576425
0.104565651689774
0.10261328038895
0.104153673424373
0.101284446621291
0.0999934927473417
0.0985081273782505
0.101868128524434
0.105887017217447
0.1061067438985
0.102730265542821
0.102673972876363
0.0997659454167856
0.0990856998623611
0.0993602491536755
0.105107776578715
0.103145498101847
0.100060595230655
0.100894116408999
0.100332060680713
0.100870793893216
0.101740888918335
0.104995911874815
0.100433614206583
0.0969914704798005
0.100286072613752
0.097971346847572
0.102455810539428
0.0966585106020875
0.0966855070683909
0.0933107478305672
0.0945550533070825
0.0962045692003144
0.0981952683737318
0.0954072849363641
0.0986221695035494
0.0936033538494524
0.0921603832580902
0.0937123523415214
0.100785683585994
0.0919877097977911
0.0940635334427972
0.0942532193312715
0.0956923425845616
0.0914065407482201
0.0942876412966554
0.0925232914367235
0.0954976678978898
0.0906750268565531
0.0909990668552314
0.0912669493140187
0.0945333033540901
0.0905049942283364
0.0939560415686595
0.0949931414745429
0.091645439980648
0.0897156678940069
0.0924389255256359
0.0898576475085543
0.090976776452081
0.0917481753723748
0.0896131665457506
0.0860502352327795
0.088640563962663
0.086297393593402
0.0903907873697214
0.0897248039874136
0.0895691267786438
0.0837566436647437
0.0914725188069624
0.0878463248697676
0.0841165994652775
0.0834328777933438
0.089754875844618
0.0845661867721575
0.0843341555688754
0.0825919582294279
0.0854550878269136
0.0848485222836551
0.0842828664742008
0.0835397286872348
0.0854570920743685
0.0837400986050126
0.0848540342613167
0.0863605642770582
0.0800089434598119
0.0833917042042634
0.0841786412002006
0.0799148255086799
0.0795673683429133
0.0815820545174882
0.0851460996418508
0.0797454698808162
0.0790013645687635
0.0757381106845145
0.0804981722092975
0.0781772229127507
0.0794985001920377
0.0761478110516082
0.0779718058500579
0.0760807523008279
0.0800208927731859
0.0773876449482118
0.0768388547219716
0.0760051517389614
0.0748249578515266
0.0739021250138921
0.075260049818229
0.0740588827459329
0.0744908536058515
0.0734418094493707
0.0777618463883291
0.0750592872670271
0.0722537042153284
0.0719945551060429
0.0747792297438649
0.0709686733801392
0.0759437506894987
0.0727637367414427
0.0716294019395978
0.0700195936965036
0.0686065508071245
0.0698515975650313
0.0694695558172374
0.0737151444688962
0.0735905816249056
0.0683918752513731
0.070223892611987
0.0704662301951979
0.0697019911995309
0.0709348169383651
0.0694981043601079
0.0691428297468167
0.0701893451028501
0.0677148948928892
0.0688579929697681
0.068851625723604
0.0689297683915478
0.0667983675759089
0.0691807183783102
0.0706573401255764
0.0680908445090856
0.0665966241156801
0.0700729048129334
0.0701165655568681
0.0683869594387342
0.066899223321468
0.066457339828438
0.0648533021529435
0.0685029797458996
0.0672551188780087
0.0702644917749564
0.0645289900047046
0.0665041031217685
0.0665335921385362
0.0655691153649516
0.0649956387041803
0.0655754527869078
0.0612928761417445
0.0663067419932086
0.0638595576050471
0.0665613624750509
0.064079258265682
0.0632792430450508
0.0613456265079335
0.0647556799130331
0.061121101689468
0.0634756088766061
0.062283700192509
0.0637719139338004
0.0622309800723301
0.061797230707845
0.0612856704828308
0.0588937758859246
0.0618431582497726
0.0610052565885565
0.0594054511328536
0.0619253636154853
0.0581690217728165
0.0625557670296343
0.0616177576944895
0.0599668411417968
0.0612915942244771
0.0621717055068912
0.0590261262824019
0.0600633902747414
0.0598769024455743
0.0630394478762897
0.0613400125137926
0.0620737467726502
0.0575279430237267
0.0614037610012899
0.0595633247619796
0.0606615476765648
0.0591811901440833
0.0626183751325175
0.0578673356108347
0.0598503944487929
0.0570001916640267
0.0577602167208095
0.0576329250747454
0.0609470866224818
0.0584098246981386
0.0608388737361241
0.0581951257811981
0.0604587577525897
0.0554791623063164
0.056490850084307
0.0590686808748199
0.0607914515539471
0.0550150061152391
0.0561803334064327
0.0572998634181782
0.0576324550345389
0.0587806977476058
0.0610251829546782
0.0556382958022578
0.0601426075207161
0.0556945750940197
0.0560209225774843
0.0569780090457204
0.0579458464490198
0.0536823850511556
0.0577214038845867
0.0561672507449738
0.0565715860979355
0.0532207845870141
0.0569553078102542
0.0542197530480664
0.0551759182456065
0.0515664541665956
0.0538691712755443
0.0535952874350959
0.0560564958849081
0.057161390858513
0.0555617236484678
0.0524528094367093
0.0542887477068772
0.0520574205480896
0.0557907001630814
0.0549158981001961
0.0554639922339872
0.0527060203850523
0.0549517960963055
0.0518019284860017
0.0542885256540244
0.0524648290683251
0.0551961711212381
0.0550689993343553
0.0556498414003187
0.0530002038030453
0.0511536095727702
0.0532050804372952
0.0526922890183873
0.0544031567584726
0.0539963811231739
0.0508140892723636
0.0552056489780454
0.0511933169350877
0.0507748127192939
0.0516918713152279
0.0526912808328842
0.0510465112632928
0.0536704079725027
0.0502335366532542
0.0525253156516046
0.0520710914817501
0.0525714816025709
0.0477051389027317
0.0514569598758363
0.049552257512646
0.052007514328342
0.0502179328257428
0.0511420487571942
0.0502430498464809
0.0520859258101504
0.0492228918497841
0.0496598711467371
0.0506058746209937
0.0488313284555211
0.046419113039816
0.0496041985653576
0.0457240652110151
0.0488885581102371
0.0453414635698503
0.0497344449168839
0.0475984684638942
0.0497010014755703
0.0470367026582747
0.0459414343221683
0.0436242221583564
0.0469254724068013
0.0438325684106173
0.0498927126601241
0.0466178635897102
0.0468133009814638
0.0434979260102139
0.0478799416878396
0.0454154308839377
0.0476418880159311
0.0457424754085045
0.0454653649317315
0.0461799250830238
0.0490544352554281
0.0431189567109589
0.0453773507416378
0.0447476402340135
0.045921596619388
0.0467743481532242
0.04584612830789
0.0414628838602858
0.0439690713481082
0.0431900533177887
0.04379487757713
0.0419375316192011
0.0447050500886978
0.0436022133457413
0.0435439693589423
0.0402589521033075
0.0465769359612912
0.0449035814377512
0.0463398217944655
0.040566039077404
0.047430874773067
0.0440681395799307
0.0430386392736911
0.0425237841887804
0.0421664229064615
0.0390938380818286
0.0433181676691042
0.0405391743463608
0.0421008036062266
0.0385468044876745
0.0404361638492929
0.0395836610688722
0.046486144185993
0.0407810330783341
0.0454658235758789
0.040055404489945
0.0438177227283479
0.0358758356373503
0.042713655535651
0.0394341865281637
0.0378958344255432
0.0384560387940849
0.0417447236332689
0.0383745881165012
0.0427708610464529
0.0378528300494779
0.0396184645549605
0.0378064191524156
0.0413819708892674
0.0375577386496765
0.0397271724080337
0.0364999447874093
0.0376467720650697
0.0364109663040877
0.0396955552635184
0.0389561534003985
0.0385423658959786
0.0379730005818012
0.0383748734456378
0.0353307320109593
0.0394145901879001
0.0360010178306164
0.0389414304179427
0.0351577067828294
0.0387093706122043
0.0397829999700998
0.0408098836839429
0.0361709576095906
0.0391144357096116
0.0366067134492439
0.039556040193284
0.0367953368346034
0.0403960395225119
0.0348182856309544
0.0406068963504309
0.0401486413193416
0.0425383430273606
0.0389194159370175
0.04254481190649
0.0372006510999405
0.0395217847546268
0.0394750355037829
0.0431188698157764
0.0401467614167601
0.0459715236659167
0.0412755702792633
0.044451411723222
0.0359092259291817
0.042058986731587
0.0354216189548918
0.0384883480201249
0.0366233800860966
0.0413772287214335
0.0326794232949003
0.0376442020756831
0.0330900480388096
0.0401194951082768
0.0367578248151383
0.0340897756608077
0.0343427080973355
0.045735320694226
0.0356367386670931
0.0414199760532515
0.0316485408455838
0.0348492404537578
0.0287516365215873
0.0406252468895803
0.0336686988368543
0.0428808180795383
0.0348739429966407
0.0453670060483939
0.0329917000316631
0.0383701544224889
0.0319613142967463
0.0406936291940236
0.0372189525713361
0.0384351191927241
0.0338372119788854
0.0360262071090168
0.0333417552550797
0.0356030430654231
0.0336101123263009
0.0382742946174149
0.035440198941603
0.0335121858759694
0.0358123971707139
0.0326205695459844
0.0403348175595565
0.0316197156527103
0.0446676223231242
0.0311116559410109
0.0494562258281362
0.0189598432989949
0.0535233008341851
0.0195139570165817
0.0607825968313033
0.0139851728524138
0.06145679605181
0.00563066962991566
0.0681276311472168
0.0117272054174767
0.0671917855449062
0.00381469131191126
0.0668351128431759
0.0131428561641839
0.0584718052431752
0.0192384700647391
0.0530191152739781
0.0265282800579913
0.0465377554274851
0.0388218460856675
0.0325934797247161
0.0436180518986921
0.0298369472959864
0.0445527663586398
0.0281707010673065
0.0414346757907629
0.0312549761413139
0.0388823883225688
0.0374346599035765
0.0343716539633172
0.0350061949790804
0.0334153848178883
0.036249456939456
0.0310686774677372
0.0344433202345139
0.0344228468745574
0.0309850320565633
0.0340660115653557
0.0321300088108566
0.0346220388242248
0.0306429586088346
0.0308856969385751
0.0324542023763271
0.0348190367402292
0.0328180196651418
0.0298268800674164
0.0314482727393165
0.0334079009686843
0.0305592100060112
0.031806802387338
0.0302009767445483
0.0305915361239727
0.0340687334095007
0.0322429407533874
0.0303877987083945
0.03206590746545
0.029802875602581
0.0337488824445127
0.029109809319577
0.0311349361311601
0.0312617926844227
0.0334173501649126
0.0297959420472527
0.0317533782132975
0.0306114196994635
0.0318815671134377
0.0295413237319028
0.0319117878215447
0.0307259340727464
0.0313194405892086
0.0310904062357828
0.0300168262688004
0.0328612929734243
0.0327498701459659
0.0320182983822167
0.0317859461417836
0.0296419638409782
0.0330935437741379
0.032413446686983
0.0333175006124613
0.031375725057334
0.0306547452025637
0.029646146701319
0.033806807312344
0.0291572852192733
0.0309190552090184
0.029538381680529
0.0326755067679457
0.0297891727518981
0.0321987510235729
0.0317058858629378
0.0321092250471421
0.0297756213138009
0.0314572191245099
0.0293780290663557
0.0313882857642378
0.0285079080328432
0.0333435600747412
0.0284333673802832
0.0321631706624132
0.0283338469669191
0.0292016250165501
0.0263355330102128
0.0302305406797803
0.0285031478034942
0.0311901500235824
0.029932640805579
0.032369623364901
0.031384505821727
0.0319156589093562
0.0292343847725024
0.0331722703794912
0.0303862916175299
0.0308263331505907
0.0298676738596132
0.032495325187563
0.0295665195139227
0.0305315114505014
0.0275660004163831
0.0307554239814996
0.0279744388856775
0.0336838465470727
0.030437283681081
0.0331969626304665
0.0298029358952822
0.0314083877180643
0.0283825377701882
0.0311046987496033
0.029124196096628
0.0328369076046404
0.0295901376841445
0.0322148414780345
0.0286549250642578
0.0304024386039742
0.0284342299087874
0.033032971239373
0.0274602360019356
0.0315761538119923
0.0296716958677525
0.0346860607674739
0.0319067794715015
0.0292242821644124
0.0292089585911597
0.0316554432244405
0.0307089119210918
0.0328688468807576
0.0309535633397629
0.0331983943766592
0.0283760391448619
0.0314359850218528
0.0309684380722095
0.0335786031203425
0.0295691236307472
0.0307997844715905
0.0316378113432799
0.0328642051551964
0.030338189138603
0.0311750301662565
0.0286646955635787
0.0319625769220127
0.0297118608341624
0.0320660632382588
0.0289602125309312
0.0293326006161336
0.029843512802874
0.0316983904384783
0.0283226120724394
0.0302929847242025
0.0301164494477477
0.0312182542088863
0.0306149228399974
0.0343670256255459
0.0286189067841587
0.0326165916643718
0.0281752014174897
0.0321194614560432
0.0321721484556362
0.0351864103494424
0.0309455803273226
0.0326850490008364
0.0302165208249211
0.0347893628618788
0.028659807710538
0.0322627485109162
0.0303693673692523
0.0329258462873467
0.0301020396737889
0.0329178579686438
0.0299551263258443
0.0336043520022306
0.0307816548583823
0.0324257180567501
0.0314386935304524
0.0320429500817102
0.0293231290082535
0.0328940463487182
0.0303414747886375
0.0315761391884231
0.0296738520924476
0.0333325167722027
0.0307739379092793
0.0324008402058066
0.0305379803102601
0.0329233446054515
0.0297896776914613
0.0318041196150229
0.029861782037417
0.0298162869538525
0.0301458536205842
0.0323326106059003
0.0286401056870272
0.0294867796320281
0.0294774190133073
0.030345556320986
0.0265739479299311
0.0320858916597915
0.0278184337044128
0.032170430009908
0.0284942205962972
0.0320259883025924
0.0275155296248199
0.0317967011550363
0.0272327892220693
0.0313539085314037
0.0303084697240468
0.0308279493619405
0.0285915014370168
0.0319280542143786
0.0263668493158683
0.0304497189615601
0.0292435827390017
0.0309181599274506
0.0276893874703455
0.030586745529977
0.027401754415151
0.0309629122163163
0.028224420891126
0.0304036284887412
0.0278534547582231
0.0292174037223209
0.0280496393184131
0.0319320187028651
0.0284326736169857
0.030487330629344
0.0247170741682422
0.0282117661415894
0.0275626169726935
0.0298315639070334
0.0278784472130761
0.0329207013744657
0.0301065478073624
0.0316008196854422
0.0287088687270766
0.0303403150707754
0.0262865090223333
0.0295451571853076
0.028050140671773
0.0325265886088018
0.0285145149639398
0.0300386991102121
0.0274839743745752
0.0314984710327572
0.0271800745312844
0.0310524109405537
0.0260778934540408
0.0290246500992773
0.0281612976369454
0.0334734962351352
0.0271500726826656
0.0312155367402149
0.0283940461426736
0.0305454303367632
0.027796271235147
0.0285352391913621
0.0265596311046876
0.0321759850841323
0.0301531964819767
0.0294440757439121
0.0268662817810464
0.0302524201006605
0.0263920419732519
0.0318154183144899
0.0274384720749094
0.0302320488172089
0.0305278237069393
0.0323647019694214
0.0282430412751137
0.0300532071857846
0.0245915315956298
0.0296561788270559
0.0284613331998909
0.0294524666948132
0.0271815164519773
0.0276866657464523
0.0283485089029228
0.0298198510160073
0.0275715019149086
0.0301279667455727
0.0281564992525986
0.0297403358445513
0.0248987117041221
0.027351045602301
0.0257260359702775
0.0284587999848769
0.0263436168944264
0.0311057752844459
0.026527210561137
0.0310030829549845
0.0277266393426099
0.0296151601386366
0.0270368659416346
0.0317893177704607
0.0288555816656177
0.0283809671668402
0.0250802100220614
0.0296607142888822
0.0256160848226538
0.029881704802442
0.0273423387287322
0.0270177505322684
0.026927863406904
0.029419918367878
0.0278134954927598
0.0260829742535754
0.0264564922698602
0.026377681877415
0.0265154703245854
0.0297597961123281
0.0247891111825707
0.028540700176752
0.0249532653502954
0.0276423127539647
0.0281230165465382
0.0269858068986409
0.0250056726020093
0.0319692673372478
0.0277837113160404
0.029034119480597
0.0233224650042672
0.0279031016132839
0.0249447415515095
0.0263235269202477
0.0232127359892864
0.0275939655988229
0.0232663681155078
0.027917702137883
0.0255680451354514
0.0301964956197859
0.0239232829516684
0.0264479917353204
0.0274483314487319
0.0285684955127527
0.0213215366060053
0.0266556706281421
0.0242827589079929
0.0280612910616431
0.0241135892032718
0.0272034996104329
0.0255624040416418
0.0275007842920924
0.0243559563645517
0.0252329640401678
0.0287419865334848
0.0339271573472828
0.0251488237977919
0.025963106465108
0.0271167409601596
0.0278009700271202
0.0260164154628491
0.0271056796472407
0.0245275670762266
0.0272785877262022
0.0240882198935481
0.0279051831159212
0.0239253232069784
0.0261811662155502
0.0238084608509642
0.0252888398171458
0.0242528923520587
0.025881070432193
0.0210294049845509
0.0255921685859586
0.0234361810241297
0.0259455746702306
0.0217339045776017
0.0266416898838164
0.0220437295910255
0.0220118035811729
0.0245619974039295
0.03019115718916
0.027984089846671
0.0273521601101359
0.0229511711039059
0.0240229625221072
0.0217967132307983
0.0230825865583829
0.0248562982158803
0.0265447997073271
0.022867052290244
0.024879498978898
0.0210982693278187
0.0261952722488981
0.0220868262947939
0.0248369960315722
0.0203354053880906
0.0253100956166884
0.0240150953614907
0.0246127843608847
0.021620655685039
0.0246208407157994
0.0184376518534648
0.0241884720453719
0.0232688001996301
0.0269535809318981
0.0219583418275991
0.0301548548961308
0.0348230339239905
0.0313711603661448
0.0216064689057093
0.0265874825341943
0.0210662656449646
0.026906172751665
0.0211619396920327
0.0224111907265966
0.021406252046509
0.0273935625791646
0.0240665352408199
0.025838950908752
0.0216417685345002
0.0256200507605644
0.020573552885569
0.0234366975746472
0.0209646668047361
0.024463866080352
0.0204377805119716
0.0235124494060234
0.0264440381764498
0.0374599064770593
0.0274785602820676
0.0273866575582
0.0209604281666844
0.0251404269853751
0.0290680755814556
0.0340593977431415
0.0226902776092858
0.0257010313723264
0.0217514610571175
0.0244534876373384
0.021328814319274
0.0231076344848108
0.0225909421685929
0.0268485601543327
0.0239628951607037
0.0266870129568043
0.0228696792206107
0.0245647255745204
0.0236886586183341
0.0251504263071595
0.0194078097128397
0.0240144020422506
0.0194891871803101
0.0227588545690342
0.0209278234143923
0.0246851760971358
0.0197316411621993
0.0246587739845899
0.0244200145875155
0.0302168681995369
0.0248190967727409
0.0256892521174783
0.0207162605157969
0.0226421089062938
0.0275252762788756
0.0357872926011936
0.0263264247294703
0.023180187189896
0.0223488497089438
0.0238745333443909
0.0233982447116021
0.0242272141120938
0.0214923895008983
0.0252447822327411
0.0211491641020367
0.0235945255072901
0.023777379700944
0.0238090515329658
0.0196967116231845
0.025117178661861
0.0223345611682595
0.02306391206597
0.0200428927918111
0.0246824084957743
0.0218497006529646
0.0264758952001026
0.0278550606685499
0.0472474021975247
0.0334788273169295
0.0353206387363752
0.0269654256391975
0.0238859061381272
0.0228024972014016
0.0239777892309078
0.0215058777921169
0.0267418039461468
0.0219842883410131
0.0243340533512739
0.0239967735435983
0.0230182732357441
0.0210203584242683
0.0241818012019642
0.021488420962143
0.0234040305570716
0.020623661603548
0.0235307784456841
0.0212729897018351
0.0237751340415061
0.0209028625248373
0.0299976418491424
0.026965564214716
0.0248471115429581
0.0254533357052106
0.0457859534390796
0.0413336908772635
0.0312688721819048
0.0261419729726528
0.0268832239437441
0.0196628289216958
0.0238163951347226
0.0245028053907147
0.0298040567845837
0.0239198364536516
0.0245076149526124
0.0201482964987366
0.0273197229968835
0.0225680412867255
0.023215501229036
0.0299143492321284
0.0473655798725932
0.0317697479441903
0.0250618682521348
0.0191134386492452
0.0372130320505642
0.0366599960612312
0.0312164119291521
0.0259553063648239
0.0304753596846338
0.0232120536396554
0.0248010005391204
0.0214610300288697
0.02563921643736
0.0254526513347357
0.0290930759241245
0.0217386150676496
0.025794185688533
0.0224917509387073
0.0280651469969972
0.0250124350133424
0.0383267258381578
0.0322785089805895
0.0266344190499307
0.0265713320506504
0.0290577925950503
0.0224478765422585
0.0271200196383958
0.0247719344261711
0.0248088874121586
0.032839184398168
0.0397294356490393
0.0294499129665963
0.0398077274658181
0.0304289598077487
0.024638062849933
0.0277685569598916
0.0345444578870327
0.0294740850630271
0.0248897025492912
0.033817198563416
0.0503340629712059
0.041853725385019
0.0409553984840425
0.0286843716385549
0.0242651591005102
0.0260186167040625
0.0239289173456751
0.0279120068144118
0.0402650288315004
0.0285214053276764
0.0309791811543732
0.0225888556322474
0.0392709503644169
0.0367640160657228
0.0342444093953674
0.0287899754051959
0.0299566300166261
0.0273251111867605
0.0396301976531962
0.0297494014393385
0.0334162319916188
0.0425863992709246
0.0599796472934222
0.0457274066356431
0.0350233298691269
0.0276739936853919
0.0575055605738588
0.0331409267102011
0.0294405387493223
0.0265116767185417
0.0303064623686472
0.0251261739839652
0.0312639791985847
0.0453202633880697
0.0347132917500185
0.0263025314718058
0.0362580395434095
0.0264441960781355
0.0490581909999391
0.0412487258428123
0.033647069133284
0.0306290971141145
0.0330258353133752
0.0310640948840806
0.0707695492837176
0.046298583869557
0.0485330764568567
0.0535414100210019
0.0536635726988095
0.0419367837052879
0.0437774307896421
0.0342018810767024
0.0492752249622369
0.0496445888041722
0.0410826489503083
0.0313486148113599
0.054508472908314
0.0556465123921037
0.0438098729645493
0.0411879992125265
0.0394210964380765
0.0346911611403332
0.0743682517405858
0.0886123568311657
0.0700926048931537
0.0394754610824331
0.0462696210785169
0.0639911896605447
0.0482421161900132
0.0408620677486228
0.0388195972322763
0.0362366051860645
0.0367133172782161
0.0383936862117632
0.0496037203048192
0.0410853932331314
0.0477357431774618
0.0383607630512647
0.0430435581183573
0.0593521642401696
0.0969873619823769
0.0744327768681469
0.0570360187239228
0.0778117877383753
0.072058916972848
0.0560052013114093
0.0472130282661941
0.0447450864887271
0.0598379602691492
0.0492600600743939
0.0505246960732178
0.0478774037744763
0.0734186180745541
0.064345785207729
0.0644471944863887
0.0712081610065023
0.0579271637619273
0.0582521589613569
0.065138788714726
0.169639160529248
0.0902910701358481
0.0751196961462128
0.0750478030833826
0.0741243713934216
0.133205939301006
0.0844285446089404
0.0735152857632429
0.0730807789275668
0.0730399543677115
0.0785036309822635
0.0871858896500802
0.0867889878664335
0.100732557371978
0.0874802907531848
0.0912986774468056
0.0977851077152209
0.159459354111208
0.139390048106173
0.12120250689313
0.101176572350144
0.123296505446425
0.119131978753981
0.109617235412396
0.114595287909569
0.113575502136933
0.120121276685093
0.163924229022854
0.130287181555255
0.128453582345224
0.133806839310539
0.163582016482933
0.130501620274854
0.179523188354996
0.160829956748893
0.151769204650635
0.143728043598675
0.152798420226032
0.143778149748348
0.148518478054172
0.179320603073292
0.171535473665846
0.160132455775692
0.167166209572994
0.164546344764814
0.169296516966434
0.167560814693166
0.175665025105661
0.170996937647461
0.215886167406886
0.197986099766638
0.287615623091772
0.206627563036629
0.183758764574282
0.17724928094753
0.184570612795425
0.204875729245654
0.199739894534979
0.203485851052703
0.201603568931222
0.170357699198359
0.18044531702635
0.166924688016805
0.179207875112698
0.169552950884568
0.183666061043189
0.167857464497259
0.210685476542174
0.170940897754377
0.206935272820498
0.224184349614405
0.18473046245192
0.172860623305634
0.176639034307883
0.163095080925434
0.175461786953665
0.165293356637189
0.177852180616156
0.183929456216902
0.163408892112832
0.165115563670835
0.164887903012804
0.189793634136796
0.187376925552133
0.159348703407623
0.165695164494634
0.153500883762096
0.158508553740491
0.15584725612573
0.17310547707852
0.196723499531151
0.162644898905768
0.149947017879386
0.151497763350656
0.148089653110755
0.151694608113892
0.145237899525139
0.154627020602786
0.148893815573012
0.147073757358181
0.14891601031245
0.151226125856687
0.142786440470034
0.145273313716089
0.148016538373015
0.151900834793872
0.145424476444731
0.147611598927373
0.144257165736312
0.149894248697859
0.143346792469484
0.148068292738153
0.144002874295705
0.148800732432724
0.150475791364216
0.146488565571837
0.143101314439243
0.143745192896896
0.141717680252301
0.147588402361132
0.144574745133541
0.143572660246551
0.142244921059191
0.144736102030845
0.136270053022104
0.145291923636024
0.138753136550833
0.145062400252036
0.138011434217135
0.147148781199307
0.134545828058623
0.15158783199629
0.137616913228068
0.192280270709893
0.155054506059558
0.140644478836842
0.139126266933949
0.138169751305514
0.137254791715551
0.133023455896701
0.177470143064379
0.153751528465459
0.13483272256849
0.134543302224546
0.129010140066295
0.14618015356718
0.134813878243725
0.126039607077658
0.135294152101921
0.124431802965145
0.159837843375535
0.190304346349607
0.181180176965447
0.197021966549772
0.141737255199347
0.131520142402334
0.131542603582747
0.162248133208808
0.12362867570868
0.126237886050922
0.116346447407903
0.171036829021606
0.131838911367765
0.1213381004053
0.119712595518868
0.120642475607341
0.139929628979494
0.152081971823644
0.1319728175075
0.14257022619897
0.157719043805418
0.143615115768911
0.183725418491221
0.180688999065217
0.144722857049694
0.115526071337701
0.119207852288766
0.11606936085716
0.113984858612237
0.168182232882689
0.121482706534828
0.12784254750356
0.104429497050488
0.10717171387984
0.110859820012568
0.123488065489449
0.120289612542923
0.115158254470093
0.146226008458482
0.104555271610794
0.124909676479202
0.123986335443102
0.134623294174658
0.155003368105539
0.115114608292631
0.101955106976282
0.134521211420868
0.145570611075666
0.108599755271516
0.118552948951881
0.0936212960466803
0.100491474460442
0.114956820080038
0.0926501855107361
0.110837902711323
0.11568614733942
0.113543112130502
0.15455357790203
0.156428162869897
0.144167511786698
0.0998448780350231
0.0876623555335511
0.0884467225268931
0.089543993888908
0.0906653356705121
0.0836554205933948
0.115790180689913
0.0998387503181296
0.0817123965006864
0.13763696954603
0.0912827696529324
0.0893323106279246
0.0891830714323058
0.090381196009638
0.0915085004587431
0.117609744778727
0.129020520641033
0.112058942384129
0.103831465804474
0.125537836159977
0.0917572538493997
0.104075102066515
0.0931302923616212
0.103916925918455
0.0999549845830287
0.120422790473706
0.102807974290312
0.111488010208378
0.107195784969471
0.118224790647547
0.124097931666545
0.151860024205919
0.111515962115639
0.162862946098149
0.141834655691708
0.186895180954037
0.143519517314137
0.138611691363751
0.14179847346364
0.13762504907207
0.145118874333452
0.142702299970159
0.149589435681304
0.183678202871089
0.142348592963196
0.160675219382236
0.14688387470906
0.164774362847057
0.158668033708604
0.195149391207306
0.178578319327964
0.224677010540769
0.213552484818081
0.182773012269419
0.175740184166397
0.165279244518944
0.177169473803686
0.176926810248941
0.166600227975901
0.174799017205161
0.16781149025883
0.202495813592747
0.174226353771402
0.174169745290288
0.178894959358782
0.180191353500639
0.175175195304494
0.182282075450081
0.179945625054253
0.185883493217846
0.179437158318288
0.195256354211432
0.18006669607906
0.256680579888568
0.201018042188231
0.199097655756182
0.198195906314165
0.199138907142922
0.197588701579149
0.198913629340113
0.213397141993782
0.209901999713883
0.202217143784698
0.206038585514857
0.202401505477933
0.213537087614407
0.214224379984097
0.239543746550239
0.203845522465427
0.220170270462498
0.207652919134587
0.237927226782108
0.255598133073788
0.227403661464768
0.235141153389522
0.218537966261329
0.22292020560321
0.219717207832348
0.220041550329124
0.220250540559813
0.228889742916018
0.222487903420082
0.221337795048599
0.223631785629325
0.222569148085678
0.221235827498778
0.222171911298836
0.243342909874393
0.221075252881149
0.22150308667378
0.219082372037783
0.222709756839541
0.214607421557801
0.242838261285571
0.233683823539937
0.224517117765023
0.226728281319803
0.230738330806441
0.238590552891935
0.231447966739655
0.215676448218344
0.22196612663777
0.213873297559199
0.218816368972938
0.215342631548056
0.22650065393659
0.247562617860953
0.223934776195036
0.222548766340634
0.220377759105719
0.223332340594135
0.221074533134575
0.226964851893397
0.222063874112658
0.224587835618523
0.220737057811504
0.226248325093106
0.221786210224031
0.221848027662568
0.236865006282701
0.238435532516005
0.232884898123318
0.22036012268581
0.21790378794534
0.218135754756592
0.212777026182059
0.224621128118993
0.215153423389865
0.209180622885508
0.209067828503212
0.21209796929623
0.206579505315876
0.228363936407843
0.20707935789965
0.208431925525634
0.201380705217965
0.194099744365365
0.198700528084627
0.190376768123516
0.192997952904769
0.188564859368213
0.193029919611049
0.186952345702816
0.190006904135098
0.186005490824872
0.184728328490383
0.183218098326067
0.188614972848084
0.184049017300472
0.183966972913208
0.182727093431703
0.184358590926266
0.183596460257452
0.182000458106445
0.180845505676033
0.176307498321126
0.192286984746889
0.197196028194897
0.195998930463509
0.190727477329838
0.180316905327268
0.186027211094836
0.172817957453152
0.185132815201804
0.176096208018899
0.183280004561018
0.177927300620486
0.18200777772388
0.177091229619098
0.18143729487989
0.176870560913436
0.182039320540495
0.173919253552424
0.180864233656742
0.177608518749813
0.182647931948859
0.175771054420537
0.180755088106349
0.175525827777252
0.184671704286751
0.181445257487667
0.178480249982973
0.183545981371869
0.175434264658069
0.178719661266105
0.178623469036328
0.178036944551628
0.178062252151952
0.176955862348757
0.179597563447009
0.174715527775048
0.177920962097234
0.175659884564072
0.176708726138568
0.176482512464554
0.175742442047074
0.172032758334459
0.17544299842823
0.168617680510088
0.171028802540608
0.168117602723293
0.167755705862753
0.165477814659143
0.168263508789013
0.16346978092659
0.163442788597682
0.161661523041826
0.15952414663896
0.157161440679946
0.156150478460889
0.156861957892285
0.155000519938466
0.155950988872498
0.158401243971037
0.152140847992127
0.150970437052363
0.151123111769732
0.153965793416686
0.152984800178212
0.152274566809121
0.150084671274944
0.150887514627742
0.150446654648327
0.152535508828666
0.151442263157836
0.15190611002311
0.153824825984678
0.154850173179713
0.151783747729802
0.153779248617194
0.15513826650727
0.155928089991643
0.158322310662914
0.158082083106509
0.158433835845597
0.159037036537661
0.158984660804986
0.160187336646285
0.160220909778168
0.161724335259331
0.162638620965353
0.163007299976519
0.16322004410788
0.165117154295421
0.162537253088499
0.163028859900269
0.161498910489123
0.163548278433835
0.164156788116715
0.162748498262283
0.161863521145619
0.161345860527965
0.162311762078954
0.162240470420491
0.159517649796833
0.158962855795463
0.158949525890943
0.158512110068246
0.159337419541432
0.160317324446735
0.15884490470574
0.156333633230723
0.15615806353311
0.158027128016014
0.15561411229387
0.156470359423172
0.154840403855741
0.154015600181177
0.154092195899884
0.154742524764281
0.15276825543983
0.154150856031306
0.150083073551655
0.153838925550393
0.152197766522443
0.151970286543967
0.152961253681447
0.149397220071596
0.150101334331992
0.148460547288486
0.152183616655872
0.1515890036549
0.147630701949396
0.147116876373996
0.146890541412998
0.146353645704397
0.144461937921651
0.144336000448568
0.142865879021479
0.144328725501947
0.141916314555601
0.140891132642034
0.139279283051498
0.139027959149243
0.138942792235223
0.138197066608377
0.136079924382215
0.136492689364572
0.134743295078768
0.134906852711827
0.134866283799024
0.134758316777517
0.133321592599678
0.133701602804008
0.132030379137186
0.132100010572212
0.133048577133412
0.131122989212369
0.132191765538999
0.13247708143701
0.129659954987559
0.131422574317286
0.128443859044544
0.130142719217609
0.127194471435286
0.124857583935489
0.124403823424147
0.122597155488434
0.120743595010594
0.122692074920884
0.120830615757644
0.120545146211966
0.121606196497582
0.123119887211049
0.123717537341695
0.126385437886025
0.128021967217817
0.133399200649314
0.135807567505898
0.139089435749509
0.145360180072776
0.153367742312023
0.158438097146788
0.165597727286688
0.170238764315564
0.179253520433896
0.184464859222351
0.195019300244621
0.200122233346615
0.208911993060432
0.214183916781571
0.223396748794555
0.229508739189761
0.236342557383625
0.242136910666699
0.246579626072666
0.251639135500266
0.259753065881292
0.263745329235877
0.269679289647696
0.275292477645854
0.281138424167696
0.283730657969085
0.289047732478753
0.28911943739206
0.296489987439331
0.297825705131958
0.299736021328945
0.303016136589453
0.302478588946772
0.302023757090623
0.30641290661207
0.305154371360965
0.307250920253595
0.307991092332218
0.307814116168049
0.307577983667775
0.308657008722125
0.307732461371785
0.309254221939919
0.311395471767171
0.314535991468833
0.31359893285806
0.314494353902558
0.318248758507277
0.317994286963458
0.322569290158049
0.327074098257089
0.326400078236828
0.329817421517167
0.33337277583165
0.335978246873262
0.33757763109549
0.345945338055865
0.34630409870239
0.351595891476647
0.357308685904142
0.363661646717434
0.367795182551814
0.37370983345137
0.380804691326775
0.381623153655005
0.385818741346789
0.393573044990989
0.3970367213291
0.398234916145378
0.401097681510591
0.404220305441066
0.403979901997499
0.404010925202325
0.401818272766577
0.400137307252454
0.398681128781957
0.399313647960891
0.395885875385428
0.397812936046614
0.399644277642861
0.40224621833145
0.403284809243018
0.405514362494183
0.411188600875703
0.420113489621223
0.421011827691637
0.431339008521012
0.438045991823236
0.445102950654477
0.454183763578945
0.46146468334963
0.470622311354864
0.479210680498257
0.486332523726917
0.492084482854277
0.502267030684573
0.509927754275804
0.517333082988638
0.52291429852113
0.529747234988748
0.543016490059353
0.551225943761801
0.562135275361028
0.566242334863306
0.577308083888843
0.588532823209505
0.604414460300384
0.615391340677515
0.617030762823914
0.627596686750117
0.63442558180397
0.646802201255955
0.654743476510336
0.660944023222187
0.660890960108549
0.66832335804436
0.671594072207918
0.675218409190222
0.675745284358194
0.685979212397472
0.684973371392602
0.680070558653617
0.679112233047161
0.673725622169652
0.672483814941797
0.664564371651414
0.672070871604278
0.66653773338695
0.661720132771511
0.655442645879649
0.651956391178308
0.654526095082081
0.654278841821873
0.652807717980119
0.649959640634015
0.655001123334877
0.658447585673838
0.65799906162077
0.661026047396502
0.665937664490356
0.669782890062281
0.68437357061542
0.680284726055149
0.680499577225333
0.681685244791679
0.686677036004088
0.6951642958648
0.697235007483565
0.693924347000276
0.690138453911842
0.694855935816892
0.69118845614705
0.690604429248896
0.684676280342201
0.688515473246355
0.689104790690815
0.687130280764772
0.687893948069057
0.697766934407738
0.700228069574446
0.686166341480993
0.677652702351032
0.669736316001948
0.660842268113957
0.66435290256947
0.649860746668119
0.642048938464185
0.643624691843052
0.633857518841585
0.618478220607157
0.619956161787052
0.610530370192139
0.612313173578319
0.602449842175098
0.590789558896009
0.578344269903328
0.565558470696622
0.551323958423081
0.539929443410396
0.52434668815277
0.509350640868039
0.491200380782144
0.472806657214588
0.456880438107325
0.440971217365051
0.422204773466712
0.399011085761835
0.386691881512862
0.371071792820516
0.359834156359489
0.348028940816328
0.342244780305721
0.331978161086686
0.327619337947212
0.322128684003548
0.324410134408529
0.312970885566464
0.31456959725205
0.31207683212907
0.307202681923466
0.303060541555459
0.299913960298501
0.296013576525832
0.294246358474655
0.289935947402439
0.282915125119704
0.278452691422326
0.27794593425858
0.268548816701062
0.262116524064296
0.254225575144336
0.244307692195455
0.238487928170935
0.228469275338855
0.220783764389049
0.217291248674223
0.203755732830628
0.197334560890063
0.187142072330299
0.182895387296537
0.170213386848252
0.16328429189199
0.154714658488105
0.151139927417636
0.138534711272009
0.133480917569248
0.129241562473814
0.121536217130137
0.119452980673397
0.114639807797724
0.10793804572521
0.107670141463448
0.1061394556194
0.100778920683493
0.0991910668099134
0.0976233410875943
0.0932441163147139
0.0942099709722567
0.0900227870587964
0.0902307667466348
0.0885039407698891
0.0877902162550665
0.0886384935300638
0.0909348656403009
0.0893229574623748
0.0934577851184688
0.0907800715122517
0.0883589460853754
0.0887842121830467
0.0908106610195967
0.0905925472989453
0.092660140446751
0.0922693824713044
0.0926705163563959
0.090402108903663
0.0920729138750298
0.0910882066218682
0.0912628196947478
0.0885991031762092
0.0905212887340583
0.087885736909824
0.0880722116415761
0.0868427166298267
0.0916694507137045
0.0847185208951407
0.0860467178807029
0.0873624316289657
0.0857356603497791
0.0845160337263855
0.0897776716948916
0.0909615227559343
0.0870739799902081
0.0884746341109082
0.0910676058528141
0.0899931824943641
0.0962598594391167
0.0931698341545721
0.0960286559696677
0.0984872172822381
0.0982046739828015
0.0925712883333041
0.0990088517089904
0.0980821009765446
0.0989310321816226
0.100847102803653
0.104789336109857
0.106365949723567
0.103697415159964
0.102118430927645
0.105119673443055
0.102376154609765
0.106353921845604
0.106909699878648
0.107444348363781
0.107484347186627
0.108329331189225
0.109326678050938
0.112829403535722
0.112874703447224
0.115864097025849
0.117220356603315
0.12244737555138
0.119495167820053
0.126087753969485
0.134018899674238
0.135809875486467
0.135265716873907
0.142903134344689
0.142052925325448
0.145022576293969
0.145064178162677
0.142536885355662
0.140638379251389
0.136997931691667
0.135760703195597
0.13586033868466
0.127970059763427
0.12337173655441
0.116747581520734
0.122417463686831
0.119319174492784
0.11798727309839
0.117215120037412
0.116060421494401
0.117845915089151
0.120610893095516
0.122716927677504
0.125295737478555
0.121314355834645
0.120252393698665
0.122470671312375
0.121291990696853
0.114320739069249
0.118355243058931
0.118487457515266
0.115614439941717
0.113978647228163
0.113501100030005
0.109822036709183
0.11278741722591
0.105356445594602
0.102983514207242
0.107211387332816
0.11009397659681
0.102132887962606
0.106884146205652
0.101821353779854
0.101637389676417
0.105339962084199
0.102105274142939
0.0958812100988133
0.0988613795166073
0.0978148094814054
0.0985542247278944
0.0964028393129078
0.099572834354564
0.0941248625728291
0.0960934842967997
0.094977693461667
0.0931796297227944
0.096323626393925
0.0994783176688734
0.0965697215435875
0.0939266632731049
0.0874338742544539
0.0949491249967379
0.0926790371425313
0.0856974146524905
0.092646216631783
0.0874227038064685
0.0816382892016848
0.0821270181304627
0.0837519488860329
0.0891218267009354
0.0850654995470627
0.0861149232886625
0.0827423754231599
0.0847938611541754
0.0806192162515722
0.0846059030981744
0.0856678075283547
0.0885154394909324
0.0863537532707292
0.0857523353450152
0.0793943656669146
0.0872999031340855
0.0816805861815549
0.0874139590795826
0.0860587425268314
0.0901504754315977
0.0839084605276421
0.0828497309508965
0.0870069209172994
0.0897154141530798
0.0867719656194794
0.0919105582631258
0.0887573007883227
0.087347611072784
0.090636788389903
0.101059098042346
0.0896689755023058
0.0961019013778923
0.104952747092834
0.0998072791854627
0.108026446830617
0.103843607043636
0.101065729352004
0.104106844813976
0.112150712434188
0.109835509820759
0.116152553514103
0.119614370914797
0.115673683474204
0.126051040372683
0.123530643322847
0.141195012957969
0.13252901751602
0.145236746602779
0.139075733300708
0.150379761879434
0.14682674194882
0.157083100942519
0.165939372824884
0.156297306274783
0.160097710648399
0.175526722781376
0.166770993240995
0.179381806417678
0.16743590018144
0.178253048304565
0.153442280317081
0.165219417037721
0.163187648740684
0.161748843854429
0.159905936056535
0.161045583699551
0.167509138581436
0.187615009558232
0.157458495134881
0.153961191120298
0.151120822043633
0.150354894067923
0.162176140930253
0.148452693435969
0.142440360721418
0.164021585600785
0.148054152508999
0.151812098669331
0.143630482424179
0.16220977705457
0.14780407796859
0.134928575912161
0.142803885154955
0.153809782742904
0.143038771940353
0.142749853115329
0.135804675816858
0.144747988962749
0.137801095446901
0.126014508322889
0.138251529379153
0.12899255226356
0.146597498986165
0.143344795931374
0.126428646020596
0.14700594329703
0.131688900295106
0.125141633274415
0.150031041578829
0.136938884088075
0.127987199854779
0.13975148238251
0.142237171465034
0.149771228494021
0.137894310675562
0.143954744397364
0.141395124412333
0.144064392388948
0.153915729726677
0.158657318113236
0.127261921633402
0.177768605244807
0.141627864013669
0.153985137319249
0.154510883558555
0.148203378349872
0.136690583800589
0.14976356244318
0.146987955654949
0.137291134908872
0.152602708487376
0.183347912088618
0.158216921549492
0.152726817420347
0.141078903388627
0.146339615429672
0.148333086275887
0.185791438176312
0.176559611120181
0.183424181509154
0.18854755598634
0.172079494475439
0.177536035666974
0.190428940910445
0.17248445327756
0.183567039642316
0.190506773865463
0.186218470497165
0.212833628288344
0.22695775338489
0.169809855101949
0.178965343514228
0.199023862878047
0.208859207477329
0.216778464783584
0.209157916096238
0.207684983208473
0.206558982960584
0.208101118909806
0.227308369084561
0.162539052868247
0.204926071078779
0.211113425654839
0.191966589742205
0.172031171439711
0.196669516941203
0.19369080469085
0.182316780847976
0.188171482235692
0.218243993809198
0.193431961199624
0.16423378777902
0.153433954316754
0.16807564606231
0.175227486518072
0.203622449996732
0.133977477079814
0.155626544025986
0.245368224985572
0.224640732419853
0.175286619970342
0.14493074739524
0.181936361073186
0.214278872095505
0.154116819273466
0.157322263404996
0.134705031559504
0.234952525172135
0.227168787922146
0.254315411497739
0.17044535619207
0.164110720932469
0.235447697382481
0.155310124678449
0.186010783911747
0.228447258879209
0.220233126550286
0.131799970702021
0.021036584903298
0.192467491060705
0.154961929632265
0.133519424691284
0.265040470986606
0.430171701401648
0.265326544673902
0.164343734213439
0.130725490308053
0.229874544010949
0.410382056818218
0.192060051111056
0.144539221381511
