3596
4000.36533379555
650.420452594757
1
2
2
0.0731789684998515
0.0841421786118588
0.0706178735739607
0.0860985350610876
0.0773716126029468
0.085605480465782
0.0683585836185
0.0828791311040933
0.070053261077685
0.0854909475333839
0.0700285022530074
0.0781377335803949
0.0681153596916456
0.0772347412558564
0.0688815429586091
0.0818094919040016
0.071774696747663
0.0848052638310523
0.0641561611818481
0.0808610256994352
0.0568858757817849
0.0834242779118499
0.0694446240078101
0.0757591328367514
0.0677455764302223
0.0864247254331164
0.0711753971478592
0.0792025150344704
0.0660541845709798
0.0798600163509133
0.0662587451157012
0.0826953026609052
0.0683511113633371
0.0855606001292999
0.0660066508050524
0.0788401741304437
0.0725520494664799
0.0764436046912914
0.0708705325440437
0.0847167263199299
0.0770914006702128
0.0816140428402752
0.0725409937444017
0.0797466336922309
0.0677358330822127
0.0757791711999972
0.0661943960211503
0.0791869486058131
0.0690653359810799
0.0774699737383897
0.0699877647594507
0.0757314310759952
0.0779287513620209
0.0978193333921511
0.0790516954264377
0.0964676441775653
0.0716387279223743
0.0865120462012809
0.0706005869254638
0.0774352477762667
0.0757173958388514
0.0917666260510064
0.0708173655453778
0.08860814350101
0.0640813081243261
0.0769325549751553
0.0619543061889358
0.0782487160401465
0.0591490736436417
0.0818564885330221
0.0690982409435786
0.0893760032360761
0.0861071869717156
0.0838459457009759
0.0663402107946472
0.0763270255792042
0.0588972959786841
0.0755777689792346
0.0648618820392651
0.0939285117463861
0.0755988604385866
0.0830225180649322
0.0700182036894872
0.0778333306883942
0.0645874633389469
0.0961848625698287
0.0641330114207815
0.0814583870176312
0.0883442136464445
0.0817873415114373
0.065144851391474
0.0727925405337177
0.0630642229597407
0.0768474811741014
0.0667625872634247
0.0713876025414743
0.0664755980393511
0.0742184313705127
0.061904687847754
0.0758517487965868
0.0876793037483897
0.0722865229316241
0.111076080498104
0.0696632268572006
0.118302400543033
0.0995480176071154
0.0497268337857521
0.130075776871809
0.0748406456744509
0.0888507594710667
0.0611355393355974
0.0815325806858729
0.0629173619181282
0.0854578233956758
0.0500298907357324
0.089646503580608
0.0997300222673339
0.0853406117804001
0.0672464568676079
0.0621975541770916
0.059261898382533
0.0914509428888079
0.109450601278449
0.0766338834371472
0.0684567100284165
0.0646308688014216
0.0534903260411049
0.110308153193538
0.0990230685664284
0.0699539537284978
0.0767265571670677
0.0664010954628233
0.060127795959095
0.0693775305409798
0.104753786168836
0.0868966347409675
0.0636303102950284
0.0691139777242862
0.0841302231999938
0.128194859784512
0.0767982242830572
0.0732223880243108
0.0559862990130925
0.0842105073814866
0.107566157697351
0.0889517799107837
0.0617681586993795
0.093365229078123
0.0838905425236035
0.0695007336809235
0.063725121519823
0.0681586403668382
0.0775385037691942
0.0808427477778487
0.033939274811116
0.105881393985849
0.143976228103398
0.0720878531927245
0.129151677003023
0.0723935604395517
0.0805283169497398
0.0686685089387373
0.0638190552677353
0.0678461200160396
0.0630868277295498
0.0701549910796999
0.0731986357467745
0.102922941110724
0.0654092867889643
0.0840993671014791
0.0944545571989621
0.0835772341644273
0.0529586994756996
0.12549317607
0.0816198730341257
0.0642164335785761
0.0991464191502509
0.0821271668163727
0.0612936012656641
0.0720117207614832
0.0988476166584365
0.0726685822454507
0.0686383160262727
0.0794633809266097
0.0760001729106374
0.0801449768025541
0.071177704333515
0.0730630044758411
0.0701621965698182
0.0517047904288652
0.0733322129768682
0.109062473372106
0.0993582987116178
0.0652384692457821
0.0733473228249707
0.0482288058506607
0.100333435738918
0.105149324356105
0.0593147792055282
0.0734748257245955
0.0569081599835489
0.0643191241706883
0.0660011152810638
0.0719181261403074
0.0663099764645567
0.04737492407435
0.0996632488332662
0.0945441831166236
0.068913634723968
0.0708974130727298
0.0661241704466599
0.0674359043369129
0.106910075392068
0.109158640148699
0.0655209450065386
0.0718260091824013
0.0629396649895111
0.0928374937581255
0.084615805072931
0.0732406971878508
0.0636045263556441
0.0715874981412119
0.0629112831175
0.0721894164204926
0.0607702272185958
0.074600441216733
0.0633955017073214
0.0705489010758607
0.0616017071943564
0.0748438129125912
0.0751676650163452
0.0750819508434361
0.0680887909407404
0.0741999143352637
0.05840829681273
0.0848199356189457
0.0887064346852759
0.0732069229039096
0.0719299004734442
0.0644740739999481
0.0621809327594053
0.0667097706609464
0.0755700435181091
0.0706479368576233
0.06395344721735
0.0667431521801112
0.103729384056052
0.0801052009089422
0.0639325634256018
0.0676645105749792
0.0786545297474348
0.0968314444964902
0.058551477466634
0.0774015190804781
0.059319654353318
0.0680673975859573
0.0652942953247669
0.108484431380967
0.0769998993642346
0.0713061328447145
0.0820822793591119
0.0897828329147408
0.0575869389143915
0.0752311801831119
0.0534839769087205
0.139722267697061
0.0895338997667403
0.0689233808705165
0.128250737141755
0.0984759676591028
0.0679822315787157
0.081941291014773
0.0372983332242039
0.18665476912999
0.134520418830075
0.0862014415799406
0.0742208486554879
0.092351743487388
0.07141147226405
0.0765078171524861
0.0791482264571128
0.0858854624034497
0.114426963341092
0.111659982119296
0.112790700673382
0.069161470934802
0.0891459327413406
0.11240190140331
0.0737409256018914
0.0847181578801244
0.0719093658819416
0.0818148301233562
0.0866697372655818
0.100724947507744
0.0837940403973932
0.0947127416238001
0.072597479315335
0.108779161443829
0.0848076354299707
0.0835469337521621
0.0794743590253748
0.0974526629398895
0.071661459889397
0.079387407809753
0.0771369819121146
0.0871067336003831
0.0739367509308154
0.0809056846604537
0.117535086527035
0.0924416674203483
0.0696642381601037
0.111014892292993
0.0783692682227675
0.0787687008398436
0.0717969862419452
0.0889617586497801
0.074609293664593
0.0786995856526532
0.0721400016491204
0.109381989322597
0.0874641204770477
0.082844711657739
0.0754221726620568
0.0809530494448139
0.0814044049610324
0.0824347649060432
0.081730050620715
0.0844794757943431
0.0815863241301412
0.0842451065882826
0.0870180499417624
0.111034393866124
0.0723529105878893
0.106799429596703
0.119074312848173
0.0838768886468787
0.0832750453538166
0.0884611779195966
0.0931590232836864
0.0781436890577177
0.0860239743024429
0.0909960257895785
0.103746692646409
0.111523188849081
0.09759599481003
0.0998104190936394
0.102068046986173
0.153843834741552
0.135458243901736
0.116877990202108
0.0949730451938237
0.0865622537156665
0.117561427481692
0.144921476415563
0.104446013861276
0.133071445417579
0.0932718096806736
0.107545987875632
0.0958008460924899
0.108257724900214
0.102432928481111
0.110310864946578
0.103034555098555
0.105858153957356
0.109353526615732
0.118317214382841
0.110559286382031
0.113565455029394
0.147328514358034
0.128273159229773
0.10712732192061
0.118791758659042
0.110865622109544
0.144631803727026
0.149251775877016
0.148601424779974
0.157734911167232
0.15325037487133
0.172162202084708
0.131581467005327
0.129720163394737
0.13076229486939
0.1269003598854
0.135937496377399
0.134627054603307
0.13758408393409
0.131471896025201
0.142711670242871
0.145454588793433
0.13167449002378
0.138168976177363
0.15122403248261
0.165372185836076
0.159241924898921
0.145306639110198
0.151052350649435
0.160367770660125
0.227152358364909
0.194634850212987
0.170151784182055
0.15711753573625
0.171023961422234
0.15188064252454
0.176828543631099
0.166221412197022
0.174557823253187
0.174467385112971
0.210986518822581
0.190971313081519
0.199546717909036
0.196707030754813
0.178822756736356
0.195888941636161
0.193790806350062
0.199945258987547
0.224501142345257
0.190463873380084
0.193767452978681
0.214706454462497
0.223424077813537
0.216222354965035
0.234235008904219
0.208661043893317
0.211240574043454
0.207649025690007
0.213377074606707
0.212269995652334
0.219668468879345
0.216362514319523
0.225962881844116
0.224748575351111
0.230487408327629
0.234765753401557
0.258157869005105
0.245214023226932
0.243426600490971
0.251175212103112
0.258276641692883
0.251886032443912
0.248895514970445
0.277538237494672
0.294173602413192
0.28868316193615
0.294376373400762
0.253904308140634
0.273015523403134
0.27333706339955
0.269875519231303
0.275809888894631
0.287000172722907
0.287667830736764
0.291324409477516
0.283734864917724
0.305358068036296
0.302766716432184
0.292318840800392
0.310043900819435
0.311990096596651
0.322395206008342
0.333683882667524
0.313218741502747
0.322562900951314
0.330232644487602
0.364712524205166
0.371857768450846
0.375296173835694
0.33070809358418
0.35889952459735
0.343269188786819
0.343445011676344
0.362287723171672
0.358481874129314
0.361433596457319
0.363091887805813
0.35731765450968
0.369147412481615
0.381878785070907
0.385889941958593
0.391810727760551
0.385827864255828
0.385365513060657
0.395315475837264
0.379977895698655
0.400225396982796
0.401402081624385
0.401205803727143
0.417543438695916
0.429964798962029
0.428266306958919
0.438309748918914
0.434806518232653
0.44340575590068
0.441214000726651
0.44619585010143
0.465859633946304
0.447227270243911
0.452726935240034
0.452990132272737
0.477579927025026
0.488532772931113
0.465525255994594
0.480320933019778
0.479078659368771
0.489257840407989
0.510301430043709
0.500560323589416
0.510683979206334
0.498841550996144
0.513770694585181
0.519526599696282
0.521564352403884
0.534831322432871
0.523671695815689
0.533507946815434
0.534083030010361
0.512976606880511
0.547975284888761
0.549119662696887
0.546365389622338
0.574460731006156
0.55842458138449
0.575783387268422
0.586395043136032
0.562100903632851
0.594722705326204
0.612151037991213
0.613600854696714
0.602673562386773
0.592184603897238
0.593888968952246
0.615126238248486
0.614390859566598
0.594013772628296
0.632352440037586
0.628938430748278
0.61521300912677
0.683498066888396
0.636402744987346
0.638242344618734
0.642578950994996
0.661800544412674
0.673804010558598
0.64993904761293
0.680551867282721
0.683149198880411
0.687140395120006
0.689608896626743
0.684746142192509
0.678826300765806
0.689596097378079
0.700211278103137
0.723087597189273
0.764089098976516
0.742728659148338
0.771458037237767
0.742519001430693
0.715410193910779
0.71318388961143
0.747912820662191
0.738427227748186
0.749213852254502
0.825795499766582
0.799618142974665
0.795930697927947
0.786650179883356
0.765885812440669
0.764437730474345
0.766173898344945
0.7584030880659
0.773334263346395
0.806207117624356
0.79421225065459
0.808227722993496
0.790133172928941
0.826961763070536
0.80402762655287
0.835771774821157
0.80399821942376
0.793928668322922
0.844295076081012
0.914659684684157
0.890756330149948
0.864041489949854
0.850126370789901
0.879417796886169
0.82834815821122
0.916653432380362
0.883272020416241
0.891066060737544
0.873836131872209
0.886392353742623
0.869473876337198
0.884561815346128
0.914150214510251
0.950284070741192
0.908851510826927
0.917806957967037
0.900077922605479
0.931390681033118
0.933096621456233
0.953754941501884
0.882910835067814
0.938683730514283
0.9056833902704
0.917837489461966
0.928883395356845
0.966553186090892
0.974438671120256
0.989645069131642
0.927871852337115
0.961672795181195
0.944997483462446
1.00436533402715
1.04468529619171
1.08340244116144
0.987744792790077
1.00164912327892
0.95214232485422
1.06938468672818
0.987620985852382
1.04984488399286
1.01948173554893
1.02610642951347
1.06422771161815
1.05772725930231
1.02612542624283
1.09895516133461
1.07973542338647
1.08617715582671
1.02851256060324
1.09114589699773
1.04425874670044
1.07358556580474
1.00670194119027
1.0731705626172
1.02970949991046
1.11331322189069
1.09639711753913
1.13290207882287
1.0437243451076
1.09806968771381
1.06571244372115
1.11900434069059
1.06937225177985
1.11442441597872
1.11985472639064
1.13187295331252
1.12416701461096
1.13886674772677
1.08167289798533
1.06635747360037
1.05435200133451
1.11244233236226
1.09745699188466
1.19923120051804
1.18418514414895
1.22420471332402
1.13021704110303
1.15547511341034
1.21457673871937
1.16192407025281
1.10509362076187
1.16113433729985
1.08946738175168
1.11398852684313
1.16338192562287
1.25839350026885
1.16318183161526
1.2276645088998
1.18518601610134
1.21839379126833
1.17412286999488
1.15509392760215
1.1638881206847
1.16933380597794
1.16204074247314
1.32643315377802
1.18993225568148
1.21622951929516
1.14906618197956
1.28588735817218
1.177466950451
1.30216957457913
1.11550148028381
1.22023234356172
1.21094532922319
1.21730851176316
1.28352006771975
1.29569095574876
1.21838596254839
1.25158415228954
1.21013908311709
1.32366947984924
1.26051620632631
1.30645433061594
1.20346270265158
1.27211040336746
1.17258699335107
1.27378442191647
1.17591945704004
1.22062859481858
1.18528653103398
1.28129288023592
1.16389464626332
1.26556845780081
1.23021831220504
1.24591129509417
1.22313987218633
1.19873110362929
1.25482043142746
1.37417557836797
1.24953234889028
1.2649903726982
1.1595857187726
1.27881030455089
1.20368667830574
1.20505800709141
1.25146048960632
1.19963047040992
1.1985652338102
1.2927597917157
1.2162463247815
1.22504048262582
1.22741024197052
1.34795560640034
1.31070723254551
1.29497439667127
1.23115412915703
1.28896657486693
1.20746564043479
1.29972916916744
1.22287848081484
1.32938691717687
1.20096751970648
1.33091428080654
1.24284660904681
1.24771167799505
1.20234642379399
1.31804186987264
1.25749676962853
1.30243229141828
1.24649321139373
1.27832054354381
1.19480012157022
1.27741168828691
1.18336693942428
1.21479085171661
1.19498694505801
1.31143767954749
1.2398359602133
1.26565857118967
1.28871732376991
1.29207391160201
1.19235227211028
1.26829525258472
1.21413784999455
1.30448934146945
1.24792183378808
1.27457698161528
1.30753537756597
1.32257910335639
1.25103074090716
1.2272256812439
1.22682099674386
1.27066858452679
1.24132825522254
1.33460116409328
1.23363297105227
1.35058625740152
1.23361315231352
1.33652680047909
1.21277270874616
1.24103509877806
1.26765413962127
1.24769065849658
1.14926608397212
1.29480161948059
1.19510885126433
1.27755524136274
1.21272630923352
1.29090853369508
1.23042669166059
1.20955718984261
1.23320448288986
1.25112056330923
1.28318699088031
1.2912744014347
1.2686039023475
1.3036194211216
1.23330099263488
1.24229916227846
1.17898147586989
1.29792552250209
1.14133661473602
1.254654188853
1.23933817857885
1.20787146271187
1.24484812013704
1.18899256568722
1.16252706189331
1.26207752116858
1.13635941912981
1.23125733371961
1.2351991309794
1.21299934255262
1.21243184625483
1.21491290536829
1.1737531262091
1.15408019435324
1.10501529855932
1.20288240366148
1.11629703356929
1.17017036707595
1.13791675900158
1.18506337659449
1.13727341764726
1.18799262001678
1.13650461192018
1.18952551349114
1.09226200337663
1.14138759667165
1.10610676804583
1.16651405431
1.08708309559316
1.18523420746539
1.10410038247102
1.19726120810911
1.12361752745046
1.13425609554388
1.08261905332124
1.10703134620015
1.13411030035077
1.08335277299328
1.12836410288509
1.17248608255126
1.07061685878551
1.14519441240976
1.07733208458151
1.12937514149082
1.08708504158609
1.15638438875373
1.03934039228216
1.10197582421149
1.07629893471049
1.08316383018672
1.0544001908755
1.13146928362074
1.04222309477782
1.07125758953935
1.06970098156838
1.09741809000172
1.02574080426838
1.06297644805633
1.01203693914922
1.09092459385808
1.05392239025967
1.10223936750651
1.0186986518288
1.0439266363746
0.988140123191115
1.03006427903887
1.02513948657785
1.02772045631372
1.00249074128104
1.03924895588913
0.967644247225006
1.01928352914462
1.00889748502506
0.985798384605852
0.976611773874626
0.972375191903515
0.961814982463776
0.982407778235399
0.948832450468618
0.972293772021216
0.979366433712899
0.972644805095212
0.934406382703305
1.00983093239122
0.961357779066384
0.955834842433008
0.93354457733872
0.926621883123055
0.938634805855435
0.960803049274099
0.899400813866149
0.911681598471927
0.931106939076482
0.926596888863319
0.898534016242433
0.931758638591617
0.889337936988585
0.912859189473939
0.861752174255811
0.892117049250519
0.882135081938678
0.874767879972425
0.88719851478204
0.908142357674282
0.907449888157092
0.875622314709871
0.863213890794961
0.880462464369756
0.853789981257049
0.832966132913121
0.86702713105773
0.844564380604811
0.818208203042134
0.841495897988422
0.832882421302588
0.846887340420776
0.808801830141308
0.831743715772725
0.812928555176705
0.820877979862077
0.802236667972972
0.818187160863891
0.791415608389793
0.794834298874046
0.80048730812131
0.802320417815965
0.783216318776382
0.790341089503909
0.795350238488201
0.792022266471155
0.760795054403112
0.782470765917568
0.756130504882907
0.760182458299908
0.762765354162658
0.766436825810828
0.753478076253968
0.753744635588262
0.747523998666514
0.741932883469842
0.747662603371801
0.73785817762295
0.725065715241241
0.728429423962197
0.697585503952332
0.708235506362241
0.708072011744872
0.711486152055144
0.69932914082166
0.700404828887371
0.690448483496053
0.689935173920405
0.696848681055076
0.687942907045563
0.682028092347564
0.695695202643042
0.701690265119604
0.692447194512265
0.658222782523208
0.674590474645994
0.675304311039592
0.672541992533513
0.671261165850501
0.66464218268054
0.65364402299163
0.668152194595682
0.658516562531656
0.657773293044959
0.620828721414919
0.63946110517163
0.632797373644728
0.641245779145783
0.632946976739839
0.635465449095599
0.623554803024984
0.64107250903888
0.615208682601014
0.626205264289341
0.61487963027324
0.621317183892634
0.600533736535173
0.628144318703119
0.59424384041637
0.605933850687173
0.601333160437467
0.589718166073155
0.588433563349067
0.585542980476146
0.577395572295628
0.579911780673891
0.572543037459372
0.57224600276164
0.59135202779374
0.581363172199414
0.560430254227145
0.582345601559016
0.581143414278551
0.57163355741244
0.56196683707627
0.561044132600564
0.551060357284739
0.56232298155845
0.552347153119899
0.549975375197257
0.54090849467804
0.552095815450267
0.532931300566066
0.534842177146432
0.542583423968661
0.526131555472675
0.527730963823938
0.533478850893229
0.517617205399009
0.531968368825098
0.516577448150086
0.526624776211853
0.518250698216792
0.516185555591652
0.517145509039886
0.512363415377599
0.508661895089078
0.516619660092844
0.497905457662688
0.499109165113471
0.487869116926472
0.512780734134598
0.488478142693325
0.489234626727097
0.485977457037642
0.482780559798249
0.476751491857103
0.475949237779252
0.475370814265505
0.473274123485793
0.471213328630482
0.484465467045933
0.482038894325559
0.474146560421431
0.473774505293233
0.471857112535762
0.452790786384486
0.46132078103849
0.451048701211931
0.46317098398267
0.456582277826726
0.448486419214354
0.453381579927981
0.455334043372031
0.450409936058149
0.452706325214903
0.437009475490906
0.44427299646967
0.437372713322992
0.43493479287292
0.437273270778978
0.432336047558385
0.429733234009623
0.435489869470314
0.428502851238231
0.43539022328933
0.413760041177143
0.432917849322705
0.421645392684276
0.418012936628859
0.416028120402993
0.417230600559808
0.419398520710386
0.413397562267366
0.412475899518191
0.401573525842495
0.413584846448703
0.408421806062001
0.402967981751402
0.409872884215931
0.411272168269329
0.412395312062043
0.404734425807925
0.40518640462363
0.400542590223516
0.401569937520677
0.400117259378769
0.405056052484559
0.403918537589125
0.411216729543256
0.402233381230963
0.401641427308503
0.403662380885908
0.404346123408461
0.413614975305963
0.409475479742304
0.408576292726855
0.40241071519094
0.401233432345082
0.407042419088712
0.403656343537679
0.413130137725374
0.397357131667604
0.416348126425715
0.415753892589439
0.414103916145906
0.411925806811932
0.418678829183969
0.413973774517393
0.423923172038876
0.425041766060755
0.428001480420134
0.421231154197103
0.431478309329299
0.427217831079283
0.426932668047189
0.424346454479731
0.435883983209667
0.434192718831088
0.439530351438516
0.437636234151527
0.436358138958225
0.445406235046555
0.447816206663289
0.439991178477213
0.454220367471324
0.450224072277968
0.46012351172566
0.455128825793671
0.460031284029279
0.453030784382062
0.467989447009282
0.460811643850373
0.472209621282802
0.468553824114633
0.462576377899896
0.475353175765657
0.474347111427794
0.478581627478634
0.4832633062312
0.475253654875711
0.496423078402456
0.483502931465091
0.496692913428951
0.498497639338679
0.509451224926057
0.499940959136805
0.506625376389893
0.51364724551877
0.524114747831404
0.520080750817307
0.535218113964305
0.541888597573467
0.531117456478409
0.532973716322153
0.535482175761183
0.541827097187321
0.530386854750678
0.538424682605169
0.534655319240997
0.540790883990446
0.550636686014584
0.531958404786684
0.537309658057125
0.54599960865831
0.541378177956451
0.540631581664149
0.553834547198781
0.543532424102396
0.54461800033161
0.557782388102217
0.539331245982359
0.526998149137328
0.549552814067705
0.539786318983693
0.548470834483479
0.533775452770227
0.535541746816467
0.542252556414228
0.532487331679175
0.525273311182987
0.541402569759432
0.538145304750662
0.536486454870825
0.534497498236359
0.542293759915973
0.533259628016032
0.533381347625081
0.540991060548618
0.537687063218965
0.541434856677538
0.539362758484064
0.529583681351296
0.556619474271452
0.527999864025501
0.546106231980484
0.549593337717844
0.544541832800961
0.540345285479038
0.543002284807461
0.542700496210886
0.538458236424973
0.527438885859045
0.539660919214106
0.536308379358845
0.543436291279713
0.527810819027571
0.535358852673927
0.533585319057142
0.544767094662147
0.524461154282841
0.528139740694768
0.535768709215854
0.533869492762991
0.53321358080385
0.526933364018234
0.52881116344436
0.525639178130218
0.522042354543877
0.533371253867965
0.52177984262808
0.512102852130823
0.50992394554584
0.51877166200477
0.508075518172479
0.508346381667493
0.504316498261417
0.508680857322169
0.501786650017365
0.502522252666437
0.491398271459216
0.493198853962044
0.482112827571415
0.483932678520179
0.475126094767027
0.48904201690313
0.477091999797509
0.47265102192029
0.464493186100286
0.467164639027309
0.460880015409103
0.460937938217573
0.451099590736705
0.455790023143745
0.442463808897293
0.442142501697748
0.436394167252577
0.439311818165484
0.439760715670182
0.437657306211781
0.436177489086467
0.432035061207176
0.411112843525809
0.422962098855441
0.422365058817082
0.421165542943306
0.406344804968455
0.419015851075354
0.417136045115028
0.406557842044789
0.412612128645552
0.405006351470784
0.395261299036138
0.402525403928753
0.401323009881051
0.404476582603904
0.390562616616959
0.390793846190894
0.390938455708328
0.394880636286148
0.378483463639177
0.380182779127568
0.380221321737745
0.383262429979109
0.371747818596082
0.384131971690544
0.375581478580654
0.374771462940951
0.372131760927866
0.37144547872863
0.371687362208105
0.369927095481797
0.375101483263689
0.363218363201702
0.367532201062404
0.365672512557923
0.361333677442781
0.357075647177523
0.361433987524968
0.355085463260722
0.35978216792363
0.358586311752062
0.355278392359379
0.350424355863329
0.348770527545916
0.343382817874107
0.349678250220606
0.345558281087805
0.348042337800061
0.341690050603724
0.345458566528377
0.342358659733666
0.342881453540317
0.34007677479955
0.334298457489361
0.337190663011105
0.337838793801179
0.336139598841951
0.33200701874105
0.337915821427392
0.334038074750034
0.332842979029625
0.328673220181066
0.32685061269077
0.3318969437499
0.33211366169594
0.324427375978668
0.331090482455827
0.330313203282422
0.324748426730607
0.319874742637593
0.331054876874778
0.319995166144706
0.321329830244106
0.320122453517278
0.322456358945149
0.318576882506187
0.319197595758751
0.313836099135013
0.317378760556705
0.317145486915044
0.31913442062891
0.312010487796542
0.316952881446348
0.314749450859393
0.312528529348068
0.311075402315462
0.313784184940745
0.309036591337271
0.310840446735116
0.305348778738253
0.305895743960266
0.308940113429883
0.309410205311495
0.304955706174917
0.304547186132572
0.300015547353177
0.301822732333787
0.305412048129007
0.300516035243384
0.300969180495234
0.29775815869567
0.297668088283289
0.294954947375216
0.299454328347166
0.301788630251113
0.293200265185531
0.294221085121558
0.298502153517504
0.296716554085551
0.29596736068991
0.295043275941377
0.295714183726384
0.293770604987499
0.295031429469922
0.29430736481085
0.293655023657467
0.292430083037787
0.28407239142226
0.291906785362412
0.288551836005709
0.286646951779785
0.29286463579514
0.287358691408133
0.290817937628714
0.290687800272244
0.29075819279768
0.296044796636366
0.29168075173671
0.288880108204544
0.289712639684129
0.285209944328869
0.28922517206224
0.279904507299241
0.284566032722927
0.286370186135154
0.275610863033413
0.287041337529223
0.283312419903738
0.27878478508038
0.279628632726885
0.28455563887811
0.284181580961209
0.281865571011043
0.279255219882748
0.277983809809458
0.278328292105193
0.279920333388346
0.277888081087751
0.27522092078289
0.274392159933969
0.279149880751875
0.274555899160624
0.273401808697865
0.278246165166558
0.269501614540214
0.272094181849113
0.274483543338108
0.276725472541014
0.27174004662454
0.268569288323138
0.270796809394443
0.26436000833541
0.270313236446044
0.271743263857832
0.26764437607338
0.268529679004324
0.269124308542969
0.260371127274003
0.264093497085891
0.266657027087191
0.268750138995349
0.266954988626632
0.262775718784629
0.263773988930102
0.260342155925645
0.260329999090083
0.259681280167028
0.260624991458981
0.257425945437308
0.256127162784371
0.254698679539898
0.261016343560077
0.254533811682476
0.257044741823767
0.255521200567777
0.254016545038348
0.254241485546964
0.253952493992663
0.254689182679594
0.249859002348293
0.248997092891584
0.252266903743166
0.248458269122933
0.243322399833846
0.241587601710449
0.251656888036112
0.247357657435709
0.243138247954951
0.245358771972667
0.245671372451394
0.244666959772949
0.23931902850228
0.240735359558626
0.23815592828214
0.236060067217822
0.239304468037832
0.23437758932452
0.234780982492374
0.232502833647127
0.237141162804109
0.235511380227037
0.233502769690725
0.235322914848975
0.231784415731659
0.233336360288158
0.227229312994275
0.224962810198355
0.232995901837512
0.230461275044333
0.228609062363236
0.227508230456203
0.219195344135927
0.224508906038397
0.219040360445629
0.218774274631068
0.216000301583809
0.222735142923343
0.221761004233012
0.223004263792821
0.22171578009884
0.214702375599062
0.215801927205487
0.214606193012348
0.213019940686338
0.211462171434618
0.213755919726298
0.210954240384257
0.21467092428257
0.210704634673808
0.206776131401276
0.212964189341132
0.207637652398851
0.212174798596165
0.212341704534018
0.20600771065097
0.204445692337734
0.205233347675427
0.203925844497964
0.205276758623653
0.202872288506726
0.202304213034211
0.203169995702129
0.200529081070087
0.200938250022509
0.201715732306489
0.201087901429865
0.195824290735349
0.197574861535213
0.200170096260377
0.201377098907344
0.194092536315448
0.195575191248912
0.19692699363387
0.197015744748645
0.195686715900786
0.196998379017571
0.191084922995349
0.192780918120777
0.193191008194096
0.194672901401623
0.193345592218321
0.190923671383599
0.192208291992764
0.187725215810887
0.188914842183095
0.190798096496964
0.186127368457032
0.190128154375856
0.186471477941143
0.18438786473946
0.183882743596117
0.185598116807292
0.182753224612188
0.187662735915813
0.181832517951984
0.180924801049969
0.182620695140292
0.181941684062335
0.182171618002372
0.181487552818182
0.183695468362284
0.178841461804404
0.176933115883877
0.178459267357971
0.179778417271849
0.180576162852019
0.174956783356355
0.176835389525181
0.178567501175643
0.177450926872798
0.178802890756638
0.178738273979918
0.178218923388174
0.176181555500701
0.175118843693442
0.177214727195656
0.175358731811975
0.176276586995695
0.171283699085415
0.174800031465744
0.174699311555949
0.173086997623202
0.172083992221981
0.175191180692025
0.173479931084855
0.175108452777953
0.169877891129475
0.170944748030213
0.168965324507093
0.172374282980806
0.167410580284593
0.167560243666998
0.171706435255922
0.168104588006583
0.166541911409362
0.168631028004193
0.166975134052524
0.168489707832345
0.164719890339746
0.165683236670644
0.167966544475178
0.167874792262698
0.166402659925327
0.166272713761661
0.167331511000233
0.165087270145223
0.158904382987909
0.164080502912621
0.164273127588627
0.16232862942785
0.161148172096484
0.161577786428977
0.162731253791416
0.161365791580844
0.15592015550602
0.158411605563941
0.15591593387493
0.159144387182328
0.157341035802245
0.158282769747311
0.155865403682109
0.159317091078072
0.159564016485236
0.157278851206818
0.155479414002982
0.157705757254624
0.157089007467456
0.155964192753813
0.15537251357872
0.15377919747312
0.153566410242947
0.159321980669627
0.150375413439536
0.154456104119309
0.153458985963604
0.155249697957272
0.153511400820232
0.155999169078841
0.151254993893767
0.152870286817093
0.15040836028344
0.151470269247575
0.149220057608451
0.152848555487865
0.148365003277779
0.15145025281805
0.148907128628654
0.145568057532111
0.148762805612979
0.148351322219371
0.144425269124242
0.146972644944359
0.149634208562418
0.148608671344569
0.144943345209797
0.145096012872169
0.143150259055408
0.146940512231128
0.140648605354339
0.141083603642133
0.13971144980983
0.143744147580717
0.142798181906917
0.141534597245524
0.140687185738312
0.137963001464393
0.137952264864074
0.140668187111795
0.136929247162963
0.13686865930453
0.134607929930873
0.139763523859024
0.133287157350666
0.137893688631676
0.135715747073466
0.133969399060206
0.133195902294175
0.133552794868045
0.130130419525364
0.130326904138483
0.130220039532666
0.132748556309426
0.131433807663319
0.132528832988361
0.126208687896972
0.1296432504959
0.126972833250601
0.128044281443123
0.124964271034206
0.125577014459856
0.125905014273883
0.129239328472225
0.123508456955764
0.12235934513239
0.122661586154705
0.125857907147369
0.124554015770671
0.125225655639186
0.121831068458251
0.120801171546917
0.120084873493691
0.121571871007696
0.121687467631992
0.123178189632587
0.119958029710656
0.120582791890571
0.116724639319736
0.12335012524515
0.119332311779973
0.119453099374645
0.113760391185427
0.119505660074211
0.115205822690453
0.117169049411655
0.114863817884434
0.116021378455367
0.113226883587123
0.116206893678091
0.113675761958445
0.111849693233474
0.107875189003095
0.113368763511305
0.110604964267486
0.112008671221211
0.109487517105741
0.113136357518728
0.10713809436648
0.109850093292607
0.105136370112841
0.111019863512889
0.108361849674222
0.109906188021535
0.106121230008046
0.108245659879884
0.100929864116597
0.108365245899975
0.10278607557804
0.10424821998117
0.10273029763719
0.104506036836697
0.103810507027563
0.104663554135995
0.100523944342653
0.103631546892842
0.100531627290971
0.104875091087476
0.103797028560093
0.102436512310913
0.0970624403047112
0.0989306239035324
0.0959310459953284
0.100426245423214
0.0988801915121904
0.100664965602155
0.0979421334836562
0.101172065831836
0.0988451688593509
0.101327392518314
0.0974775621076989
0.100720037993269
0.099585552182315
0.100218247692562
0.0969608018778452
0.099831419016611
0.0965678391561112
0.0995703992927865
0.0939895476215062
0.101872470766767
0.0983423576455243
0.101626326037244
0.0973367868872368
0.0971481502921768
0.0952188187620248
0.0988093225961277
0.0976174129869091
0.102395168570034
0.0954710954774754
0.0957953601046524
0.0942735791243755
0.102458425222687
0.094315348191171
0.0958319013483473
0.0918201150245569
0.0969144929199396
0.0868501605823
0.0930078159692614
0.0880466119361792
0.0947325129732345
0.0910424661748133
0.0912226964876958
0.083106886468651
0.0973904854694258
0.0923618973370248
0.0948643953490158
0.0861325530746971
0.0929993615719234
0.08383438203325
0.0991452318249963
0.0884956624505497
0.098084993733526
0.0908670983074613
0.0990567549959591
0.0797846793169926
0.0913369464074348
0.0880649180919847
0.0974672074413163
0.0896888249694145
0.0917428088431107
0.083136255965934
0.0910763960728552
0.0863711163519533
0.0915193017221174
0.086406071179726
0.0913523485929591
0.0868910707683527
0.0868988926402698
0.0868386609905807
0.0858347482335711
0.0899733251743321
0.084741226737868
0.0936291058774476
0.0818680087780162
0.0995513199405191
0.0732059197504694
0.10347283901323
0.0739571134792043
0.109156706702592
0.0604923586309052
0.11106340540377
0.0562201624141212
0.119383946834489
0.0556287602403362
0.118006410298734
0.0520975242216546
0.119580245524094
0.0559087110524093
0.109028712232958
0.0645711819298927
0.105366975497629
0.072409758418778
0.0955674608156954
0.0839637627992883
0.0846157083442954
0.0923953999824825
0.0781021174091714
0.0922683564176571
0.0783784331770454
0.0909142152230652
0.0778819810843036
0.0842415526501313
0.0835026894819573
0.0799216848707205
0.0829556481411227
0.0776960769797343
0.0838125161560531
0.0784191097399747
0.0829153817515264
0.0803238351713581
0.077053543212713
0.0811713287995709
0.0802610631251976
0.0801730943355347
0.0788593203936798
0.0771238168183643
0.0777169761659315
0.0795768729028059
0.0786907807200173
0.0759970784000465
0.0774708442298686
0.0785933066074722
0.0785243373876947
0.0785094092260035
0.0790407691911647
0.0783883140645787
0.0792455238068891
0.0799614886870038
0.0792542640586209
0.0776747386499494
0.0765617070899741
0.0795535004135241
0.0762254953356653
0.0775002755494165
0.0783388119711663
0.0817426676504614
0.0759781338131718
0.0777069837623035
0.0779535980669457
0.0764995742598859
0.0746194550401
0.0760632880956648
0.0766369782088357
0.075920698534087
0.0765354843823277
0.0753551994578811
0.0769371913058974
0.0782308580360447
0.0794072594474078
0.0762979580440896
0.0771135883805863
0.0787667290215422
0.0758639732227457
0.0770228375946471
0.0775531344014152
0.0788971597652163
0.0763882809562945
0.0775575961886427
0.075203136244069
0.0770965412011997
0.0741327696985494
0.0772613591726401
0.0783207799878955
0.0775791184857584
0.0769154093740089
0.0783066803763401
0.0759814321326595
0.0776865547799422
0.0743594350965919
0.0752390460470476
0.0738666587286061
0.0779737983736518
0.073595292117824
0.0780971317229275
0.0752192176966771
0.076454863364441
0.0745530072843099
0.0773173983897173
0.0746474353823698
0.0787727962496351
0.0772547426815251
0.0784754498261379
0.0775444081376432
0.0761093247875703
0.0770756060680753
0.0805314101349636
0.0764703196624203
0.0773430869214458
0.0768886166529357
0.0780092662210674
0.0737686958571285
0.0791105694796121
0.0755930492240962
0.0761484031610229
0.074542734207214
0.0780941785879986
0.0771265026803828
0.0780017247606457
0.0744545642793709
0.0776582488116492
0.0780056475553288
0.0803898750021753
0.0755316078144709
0.0789999133655651
0.0776981410066069
0.0802152067172159
0.0773568224345451
0.0782870598853831
0.076911589454336
0.0810815847469295
0.0749855962309985
0.077323845487731
0.0777094365675264
0.0826926024420964
0.0777810617836602
0.077667030062058
0.0795717337339236
0.0796561540284685
0.0775330961944624
0.0801118101950243
0.0771506696024973
0.0782553435598396
0.0745966811008022
0.0781422164872897
0.0786444828812483
0.0811604581825519
0.0782523739536515
0.0789172460710624
0.0797820822518698
0.0805157353734048
0.0789860761075516
0.0819730548491901
0.0781328273213052
0.0781712081699137
0.0799546185596024
0.0809446760349978
0.0768011887150069
0.0793104348683652
0.0781406330559327
0.0787096866116524
0.0767361720913495
0.0802838616626331
0.078762309046648
0.0799642198603481
0.0792616384616248
0.0826860170004314
0.0789265424755314
0.0806309923263158
0.0776566843805389
0.0828731220002489
0.0830423141759766
0.0846893322226629
0.0808749584696756
0.083778166552478
0.0793525016805925
0.0836594178668835
0.0795372745550013
0.0832777597917018
0.0810416824210148
0.0847354275570188
0.0824385565765618
0.0821134405334644
0.0791069595033517
0.0820808678142185
0.0789788198134643
0.0819250342680153
0.0798862688617172
0.082432578709558
0.0805836603345639
0.0832356979335887
0.0795571729805419
0.0808828244903908
0.0818320563486578
0.0838403328599684
0.0812227740326044
0.0820091078217624
0.0807966850876617
0.0832874946638628
0.0784657306873893
0.0779894701823318
0.0795014021953734
0.0785908983854997
0.0776225623360682
0.0810183425852949
0.0779363660812152
0.079053562637995
0.0771048191941225
0.0763851166969585
0.075406912366847
0.0809306793405176
0.0776853472279623
0.08035873408231
0.0770002333225835
0.0810921153633911
0.0741286455626717
0.07706588947114
0.0732968620652247
0.0778286014063347
0.0778582611129446
0.0775572553655822
0.0758158297774149
0.0811502681028476
0.0742418240398951
0.0769817198927911
0.0781606714896903
0.0787212864739439
0.0734010952602519
0.0756880061257699
0.0747327697923813
0.0787771026403354
0.0738827043435293
0.0764905282722523
0.0769290309099576
0.0776815018568775
0.0748240004964341
0.0769060585095618
0.07505125088582
0.0776126596513919
0.0710833541992085
0.0750287150657998
0.0733876051630096
0.0741871179636745
0.0738669308839027
0.0770809972981015
0.0753833213291922
0.0784858989403881
0.0743564338710598
0.0762347410144111
0.0734775723781549
0.0755469646325473
0.0746117402511526
0.0774153278369509
0.0741284484768771
0.0756598184814002
0.0711338765523953
0.0750069477965934
0.0720722697190995
0.0744415971716437
0.0716805477787977
0.0757755814312831
0.0716342548731531
0.0756967787084903
0.0724669672304268
0.0754388654380626
0.0732099670743153
0.0741529876154565
0.0735508311417554
0.0743132372687191
0.0710719214944616
0.0757794719080515
0.0733286933318887
0.0735308866214154
0.0712952663314844
0.0748385530199498
0.070934442770236
0.0748807070262302
0.0717399438863048
0.0734597554125253
0.0743387934634254
0.0762638221354728
0.0718602034073767
0.073487728600729
0.0707159213368341
0.0746456417106569
0.072200291127119
0.0738900483745384
0.0722854835496217
0.0731870372441257
0.0704600318662552
0.0733379332663986
0.0703647359827761
0.0725279575267077
0.0719811881443364
0.0734316553785941
0.0699841634439302
0.0716185261062619
0.0713652068470872
0.071751437567982
0.0687452247686898
0.0726008307183098
0.0681703785261356
0.0725270859712259
0.0701876525826731
0.0729033496829537
0.0696571356272236
0.0732996605748677
0.0703196459939596
0.0727032043322769
0.068269808824444
0.0690701289225177
0.0690519420923384
0.0703316915333928
0.0662074192664859
0.0725793246596383
0.0665975648187049
0.0695869011669385
0.069409611555087
0.0685694709234738
0.0676966822695624
0.0661379983946079
0.0669202133943866
0.0712249329946726
0.0677315321634986
0.070096844086653
0.064680751121576
0.0666725229394006
0.0651370979032832
0.0662055302203374
0.0642786476941813
0.0700815819509789
0.0684586543714439
0.0681661033100174
0.0610812064806763
0.0672989712396938
0.0625563960153237
0.0653109150661112
0.06095402342842
0.0651947742766852
0.0633669088183521
0.0666611625756475
0.0613421717946534
0.0653393436034816
0.0623127972129734
0.0643125077660291
0.0616773436858872
0.064619102530244
0.059006052900113
0.0631055538011642
0.0607256735172428
0.0639709076364355
0.0590198247555934
0.0635686993633543
0.0608956830491279
0.0628195857946231
0.0602476167283699
0.0621765962901637
0.0672830470092755
0.070940465544011
0.0607099282421296
0.0591127427906095
0.0605779034440988
0.0630839497748849
0.0600303886720263
0.0609116681435681
0.0591369668124906
0.0607072064219479
0.0600161300257733
0.0618701615591781
0.0571935860999544
0.0624845055299393
0.0604218565589029
0.0600420005560217
0.0578978071536639
0.0590177210265406
0.058322054133918
0.0610184339582743
0.0568526840029616
0.0586539242590067
0.0573414393857548
0.0598960934889523
0.0559775838851024
0.0576943623389715
0.0591613766171755
0.0653122456485589
0.0636906409373319
0.0610971732077975
0.058062458600455
0.0583122772587259
0.0557771750623993
0.0576282416825599
0.0576815017524235
0.058738370217268
0.0566711697823125
0.0573119250200358
0.0542074914850504
0.0592183227177042
0.0552674570756225
0.0577640912526853
0.0540828926843269
0.058899041593537
0.0541999697797739
0.0573172759048741
0.0552642349552852
0.0575445673560131
0.0514451071484631
0.0570195199910438
0.0571703413148641
0.0581487354802486
0.0533859232642409
0.0629520149695132
0.0685881086355523
0.0631525179398308
0.0534439866918663
0.0582287382093956
0.0523415287937755
0.057992051596721
0.0536991368485436
0.0546056327286169
0.0532590327394347
0.0587437061242443
0.055117068079998
0.0567594637091364
0.055353263402068
0.0596177179580832
0.0527850378294339
0.0544191546275614
0.0532551654671745
0.0573060920411592
0.0519914579884422
0.0558445188499212
0.0565538779940875
0.0681452096625697
0.059394480985804
0.0571076910674248
0.0522203680633074
0.0575107339618756
0.0666832114106372
0.0681325567581723
0.0523596760087168
0.0565134335506314
0.0543847157242595
0.0571210599290788
0.0525993296130406
0.0551340806085354
0.054796358916501
0.0596441645520763
0.0549352702810997
0.0584166249445381
0.0563983157326899
0.0541475377500727
0.053823360857631
0.0581914908642063
0.053589684590293
0.056044747958125
0.0509630246168729
0.0551252569598742
0.0524071421954789
0.0547467268029406
0.0512305606567819
0.0539107540743037
0.0554108161214943
0.0627304557688181
0.0539210180412318
0.0561590436841962
0.052232359888555
0.0522085977741977
0.0576397338568461
0.0670626902393004
0.056312389268613
0.0562157649671738
0.0535825931860997
0.0552044192378575
0.0554769387308306
0.0565475797777973
0.0533655383621623
0.0555282786522948
0.0523763827788964
0.054845354170469
0.0537207467133688
0.054029034341824
0.0498351609975986
0.0542755789266648
0.0546369038338623
0.0544609729830783
0.0537824930387079
0.0569741132239983
0.0532689729830363
0.0594528820156937
0.0597564042204834
0.0776263146165589
0.0659438602729873
0.0648312197096546
0.0572246749231315
0.0567055559305857
0.0532500506333557
0.0565597691127318
0.0522760096265735
0.058281456387426
0.0533480576030846
0.0559873100215237
0.0557884550281432
0.0532766229789864
0.0523505094154497
0.0560620018672144
0.052606309382977
0.0552285780614636
0.0530580190995255
0.0557442208220809
0.0514807164645532
0.0568057369655708
0.0540677493063562
0.0623164061306658
0.0604943787313865
0.0566814683559539
0.0587341284772391
0.0798185389411008
0.0754733909698456
0.0631844450125897
0.0599710480215998
0.0612902237346757
0.0551591303852702
0.0579723312513947
0.0566219677233764
0.0609661691288204
0.0570788832379214
0.0575596790022314
0.0562960853895526
0.0618966769047577
0.0548997386171516
0.0563664460137056
0.0616248845317664
0.081307700965803
0.0694883483505577
0.0628251406025281
0.0542682116905772
0.0666747067250465
0.0744161723462339
0.0676037270201218
0.0579518517615837
0.0647655688704972
0.056459533394796
0.0594365387030515
0.05669260435289
0.0601664244827896
0.0598919537109719
0.06268022926331
0.0567398140575867
0.059981192797216
0.0561569638154939
0.0631679840567462
0.0611831488564584
0.0729572966660037
0.0693103405369323
0.0630581548869595
0.0616230644708939
0.0647826982913313
0.0583730840328156
0.0632475435980133
0.0589528000117004
0.0612578153589237
0.071074914208665
0.0781495218127447
0.0676935246144018
0.079229671838444
0.069364210492289
0.0639299231634396
0.0615701776159461
0.0741709146500258
0.0677958352049281
0.0633233274205384
0.0710225570323286
0.0884876670263215
0.0854358103017607
0.0800313554196823
0.0699742609415853
0.0668303349999027
0.0672497543775803
0.0636926723503774
0.0682128458327161
0.0786496611943547
0.0683389898222435
0.0677337857208493
0.0624771854190964
0.0793625348462332
0.0776515546467009
0.0742461756029605
0.0689984827168445
0.0703554485515025
0.0716535890020293
0.0826043044866658
0.070436449169025
0.074478793366846
0.0841133178156069
0.106686640571781
0.0873898357622122
0.0793194570288325
0.0733037994127957
0.102669994347616
0.0775446459187029
0.0724401528637649
0.0705921508859559
0.0752876993704397
0.0700749905941173
0.0804656765728811
0.0950457572286681
0.0831512675860913
0.0734172079254551
0.0823616276882384
0.0738476224402437
0.0966487355083822
0.0870792424432069
0.0797977443601283
0.0797169648440515
0.0826351763195789
0.0803405196781419
0.121466636342335
0.0967215214562818
0.10117956081966
0.10450143148544
0.104500138850283
0.0960520569722316
0.098190991793295
0.0869752942434151
0.105320941399917
0.105196098723987
0.0992040054484915
0.0870710620422223
0.114216578110432
0.110363858650993
0.102133977235408
0.0982453409050777
0.100110703827212
0.093271097073097
0.135057521989545
0.149994920323305
0.133067113807228
0.103727645930417
0.112122506667711
0.128232988310613
0.114381771629151
0.106800541765016
0.108288474357058
0.106966289717979
0.108736508532366
0.109889828227252
0.122569479511417
0.111337710858921
0.119784748174459
0.112610318459431
0.120287829859033
0.132840507281271
0.172195540770763
0.153776973925844
0.137788108031162
0.154733899743412
0.152923272972948
0.136630778031052
0.130940824966333
0.126819111030698
0.14088013316013
0.135116445320183
0.135607856324825
0.134667260946646
0.16563127137824
0.154534047382569
0.156056209353237
0.158518372297189
0.153312352142505
0.149409792616998
0.179928643353848
0.277756165409194
0.191180867615569
0.174173892313222
0.181042399913194
0.185016854304445
0.244239000344024
0.193149317235773
0.184981652846611
0.186758054480311
0.191320307951491
0.201844329874332
0.213185340989415
0.216189319843676
0.231342834152058
0.222204860201131
0.227872529983686
0.239584405762206
0.319746718796138
0.290188945656819
0.273370284261535
0.255068894407715
0.275452266171391
0.277963427633865
0.272639566630584
0.279510296166067
0.282580360616786
0.302146883604433
0.34781570862017
0.310116569212396
0.310957754179785
0.321814020737911
0.358700261169077
0.317013999803217
0.392410521050822
0.369782891452861
0.356735785897844
0.352007287301722
0.364911803304601
0.364759242000906
0.368859826266522
0.399042952697664
0.409315794071401
0.386153103392166
0.401755066697967
0.394601183832333
0.409436375780741
0.408357722463983
0.426442974689949
0.413574415233129
0.476061404405634
0.448648923539259
0.598996663870897
0.453014471697581
0.432623388698901
0.428280175040748
0.447686283995078
0.475297780680127
0.467794857369917
0.472490752353067
0.474072732388176
0.426940539737562
0.447548108514291
0.435214191365951
0.439955778912852
0.430645400132134
0.445543762560417
0.430287431691853
0.478829271613855
0.44100006510952
0.493440265753506
0.497664291816092
0.454860108823755
0.440186524501943
0.441647166355234
0.439015023154867
0.443683819335302
0.431511258538649
0.447731634770155
0.462737077078843
0.448257902322019
0.429023368859134
0.433601691720967
0.462061252944454
0.450661910517426
0.424181517998467
0.425672312010878
0.404238430313853
0.419419108791944
0.401717357079967
0.431025558256344
0.459910243561954
0.409767890519465
0.394050610947684
0.399149428829971
0.390785033246983
0.399999353345928
0.390440355371956
0.408099059578797
0.396128090829079
0.391853492741731
0.393851383766251
0.392764329736645
0.387408434454004
0.392257677228257
0.382423912687088
0.389082999761889
0.38800742541537
0.396408951836771
0.389377234074959
0.397243389006873
0.380223586067379
0.390454143328904
0.386180704139588
0.398630708838311
0.388602628388667
0.385734874894941
0.39371522477659
0.388960483341887
0.383728343387212
0.389275933002093
0.382493001141691
0.389359344576464
0.385596402251879
0.392332772737065
0.38225271906659
0.38521382969568
0.379322662950776
0.384301301406019
0.378767921283319
0.387144726453896
0.371460141295172
0.38439800347301
0.374355700721463
0.454216229694178
0.397686940155998
0.376856248232739
0.367102080462331
0.371338671436053
0.362430345221561
0.362797767819145
0.403881783885334
0.380864952790193
0.358842968450537
0.35768239220881
0.350107259710705
0.370174100179011
0.353808211153369
0.341795910651798
0.347687082646462
0.338990023435665
0.386049321993601
0.411899413674668
0.412253861709713
0.424192115859275
0.353538345699974
0.330584183677996
0.339915437195106
0.367858479370908
0.323493361012028
0.328392605756682
0.315854263366443
0.372404983466693
0.334895760260016
0.317819083779049
0.319291868520069
0.318770615721302
0.340034296999303
0.34496372909257
0.318896090608638
0.338973697909979
0.342737744283438
0.333406172887426
0.361704793837315
0.370177240665186
0.332017957470567
0.302458736891606
0.298812283387482
0.29253437391227
0.294426248336048
0.360160110410669
0.29731168483626
0.301539129613616
0.274755568302673
0.27792221986163
0.283579209772249
0.296518700282445
0.287043140097707
0.285228683695259
0.313993452812373
0.264436277135829
0.289947037674297
0.293459786383304
0.306914397807205
0.317779799914572
0.274817228965427
0.261706092360248
0.297972706089264
0.309371986029537
0.269285392947701
0.280973340042936
0.244602473981448
0.260890693312836
0.270071804598291
0.247140030793033
0.265123283473582
0.2681391176917
0.265284770629163
0.307054049536462
0.316106786927131
0.292789873024745
0.250237992528915
0.235328605384918
0.233758546849864
0.237714951362732
0.235681683746811
0.229178552942157
0.263077024286461
0.251366870890253
0.228013449756774
0.298191400310275
0.242689486155811
0.241346248372252
0.241331194064072
0.235874465646866
0.247291426938493
0.275026534485766
0.286260142618946
0.268245556089378
0.265297029861928
0.280761358272841
0.254779399205116
0.267111270206188
0.259092470361265
0.271158095504428
0.270518741792338
0.293464325324307
0.281956766008036
0.291149613522852
0.28927688309384
0.302410750682064
0.320877402304146
0.348497027543846
0.301559486896438
0.360990897070829
0.345906659791474
0.39720082374001
0.351364462558961
0.345423679324546
0.350464213382178
0.35908062166312
0.36126208255742
0.366783605698841
0.380374665066579
0.417487494497205
0.372113416298807
0.392714472504354
0.379235042579746
0.399650103193056
0.391642900644415
0.439957037694116
0.420142116712369
0.487794045254291
0.460089442650837
0.436815828039744
0.426964460624545
0.41393940749882
0.426807934593163
0.432613574708627
0.421361333929302
0.427726019391566
0.428554625250197
0.45950460281198
0.431007993033659
0.435109697946407
0.435706210881108
0.441573048868317
0.439094159723562
0.451641260170899
0.447834078586841
0.458625193261584
0.446359731438277
0.460481126183844
0.454904093224133
0.56175645926615
0.481531204450477
0.477921280800639
0.475890452030689
0.484469693035542
0.485358662008518
0.490232582019844
0.505774611062963
0.500604226079679
0.487796425668392
0.501604120636074
0.501848360435025
0.511790279174908
0.515061517198581
0.546495482949811
0.502415899425764
0.531800725873176
0.510034250793119
0.560498489870323
0.579460104472132
0.537458538876104
0.546423340261728
0.53902502932182
0.533269334284318
0.535241711567973
0.541035742382363
0.542377593050706
0.545193616817952
0.545879897631065
0.552006771477287
0.550243041199045
0.545748651113814
0.552429877621523
0.548378784472189
0.578139223839476
0.549237452051665
0.543379194771175
0.542974704449598
0.547324702463865
0.537584751163391
0.570138886231
0.562566744797075
0.547629410267892
0.554992823602872
0.554274253862589
0.56387983875666
0.558978126591229
0.53065467817128
0.54782090168125
0.539383720727306
0.548030650067023
0.539624874935806
0.55439078879124
0.579092423375405
0.547702318821727
0.557990710039939
0.55021626854201
0.551883251106438
0.550536718700231
0.555409604081107
0.560053014065977
0.568693002678077
0.566814071414918
0.566016235256592
0.570150581796288
0.561439790844542
0.585610954323123
0.584690701765282
0.579651122987485
0.55739132304058
0.563870738513345
0.558374486152917
0.559177288881709
0.568549460036184
0.554573784936942
0.548528628874752
0.548939037849022
0.537588693178955
0.535763005184467
0.56380709901914
0.52880071367991
0.54101838844008
0.522584831293827
0.515137355192034
0.520990408195948
0.509184386094957
0.510795391638367
0.504089995922648
0.509627686444234
0.497308397566931
0.503023021162302
0.487784411604277
0.495427081822882
0.492542567204939
0.49766004401937
0.490754235411138
0.488982634012312
0.484960538163675
0.485134080141589
0.48953276224078
0.485177457226912
0.485871229573301
0.48146790999179
0.497585073449384
0.498725183296215
0.498143074097233
0.492020514580051
0.48424019416018
0.490219495396529
0.47475535459625
0.490999650644718
0.480836094430506
0.481382225448345
0.47805877913138
0.483508515080337
0.476238369088131
0.483044110380232
0.472502596395273
0.48133265152062
0.474249632436833
0.479506015632455
0.478473501485649
0.480278735069229
0.473218240856389
0.477894751095754
0.471507112413255
0.486254303436735
0.483040157309612
0.481487150125215
0.479808987814961
0.473342805452156
0.474684732507621
0.474676287803517
0.478024624621422
0.475640336698628
0.479226558955769
0.478886531338591
0.472930135924232
0.48095910965814
0.476215340077225
0.475151294679214
0.477269813474002
0.475803887123896
0.468114602403329
0.470705877116667
0.462911732079518
0.465110426679217
0.459211017792855
0.459407376227714
0.450913564719877
0.453140551466549
0.440812825414224
0.439589092751056
0.437599127689168
0.431883990467375
0.434739374097402
0.432082225523294
0.430292355375051
0.421567723623022
0.420826331354109
0.427169991480656
0.417792096849019
0.417319589695663
0.41305331284882
0.420129914780282
0.417108031041204
0.414579059074153
0.411784200716382
0.416247764468149
0.417156019804144
0.413678637765705
0.41413327877917
0.413925652806407
0.411899542292705
0.418066317308371
0.414077689846238
0.420700456738233
0.426088691960507
0.420628504306663
0.421675986804105
0.424861737966794
0.429632922631921
0.427798895677513
0.430446067531684
0.433696170678665
0.433019796784001
0.433831718037567
0.434839238702309
0.438366166350908
0.437480927716095
0.436969240764099
0.436320000547722
0.441132756567206
0.439554323683037
0.437619791143786
0.43808208633478
0.437360747076393
0.437114726480733
0.434722349206781
0.432127869841694
0.434937743524901
0.431843600873242
0.435938045451007
0.432574239425173
0.433495943420639
0.429585012827784
0.427358335450783
0.428907052889938
0.422103285310194
0.424275858825021
0.427135013562461
0.420030095866356
0.419862560206667
0.417762081434454
0.420691547644164
0.41835049325297
0.413970344917286
0.415513762300659
0.41193602965564
0.410768180706654
0.408926704510578
0.407379153175196
0.409673960476683
0.405284871750526
0.406118730794253
0.403181228893735
0.402544902111762
0.402760778977515
0.402192028245333
0.39902450250169
0.398351640035416
0.394977738306696
0.393387303511259
0.391468024992786
0.390204040997159
0.387200695008604
0.386715098534031
0.382637645429515
0.378462209219545
0.376139520200133
0.372839603767234
0.371255492752295
0.368670542575636
0.365890916720903
0.364579683622343
0.363327438201806
0.360195910239434
0.358267749138512
0.358249665960984
0.355570098866163
0.356524218141188
0.352136352898046
0.354639494129265
0.349859569048195
0.352148672401199
0.350619052460302
0.34846784635283
0.346515943456474
0.345349152615186
0.341393789119985
0.337159694375653
0.331986815877552
0.331191476413545
0.325036243343529
0.320489951898194
0.317233702444541
0.31592628046947
0.311299188870049
0.313432474402917
0.310313145617512
0.311179334645962
0.313341489560807
0.318886932244377
0.322032430185096
0.327803574515123
0.337205191848962
0.344987165993718
0.354840183497692
0.369818865122331
0.377476646528486
0.392709564779493
0.409361414269819
0.421869348342733
0.434214613590336
0.45292125329659
0.467239717192275
0.482121153150527
0.495770700896059
0.511273380592261
0.525298619375169
0.536842797666333
0.55262970115529
0.565707425467877
0.577312493299726
0.58576044791248
0.60018087666332
0.614587130811078
0.624109920214448
0.631340495288343
0.644510362801718
0.655575571277843
0.654768835434505
0.669575995270586
0.676889316994717
0.684257365941688
0.686752481815299
0.687403347307178
0.699295987103466
0.703738039885069
0.701614909802089
0.701971516915143
0.705931195796681
0.701231472801625
0.708904616793531
0.706492924356705
0.712124975304099
0.709603039943878
0.712685019645851
0.711687424345462
0.711479153095017
0.72222836259144
0.720949900653739
0.720196094441949
0.733197085096648
0.734692675787731
0.740333354834087
0.751502224026475
0.751122043730929
0.764611246575037
0.763395500286645
0.767341139994411
0.773796111055551
0.7891456174625
0.794405870808008
0.802398302606349
0.821768270885747
0.823202002628401
0.840635021416345
0.848254016346001
0.861970718799902
0.873874296540904
0.883005770974709
0.877302476084446
0.886671417705165
0.899826750258144
0.901300116207057
0.905539826702496
0.901882681675122
0.898900116108691
0.903372033533376
0.897524787443276
0.887308848363431
0.884008451744309
0.885057193570096
0.890290115695394
0.888427674520268
0.889104351673231
0.886639186815917
0.903596463179632
0.91022178705694
0.939396335443844
0.939920988070946
0.950324495342231
0.963892804852632
0.976549266651247
1.00102681978321
1.01309631818806
1.0256198364348
1.04273178966737
1.06220448057063
1.06821557477783
1.08986938409966
1.0968911906022
1.12848011331758
1.11924785892447
1.14140897870018
1.16370448986561
1.18143129322107
1.18900641356329
1.2212747870371
1.25391308873107
1.24187229841462
1.2852408812983
1.31897786125433
1.32662593961137
1.36523037183354
1.37564008484397
1.37434884829732
1.35987419001238
1.4091597872044
1.42478653201255
1.45556715282352
1.47478691681173
1.44514230485017
1.49198857098674
1.513666061194
1.46624812927467
1.49395314181628
1.45008477814859
1.46094389076391
1.50743783643373
1.48596368516449
1.51334631549826
1.46950991049941
1.4642437246906
1.504019350817
1.48969145434914
1.48660937645271
1.47500263252393
1.45319381186791
1.49112028222229
1.47317511175655
1.53885297212223
1.54084290162274
1.51885884115075
1.55314143432577
1.51138342277159
1.58428053461399
1.59824396130131
1.60516239811904
1.59886006417271
1.63511380859469
1.6240402733757
1.70857835162466
1.64130989534403
1.59015465789972
1.69546622629217
1.68435252854946
1.67610562802555
1.73207286522628
1.68271479543459
1.75354017383958
1.75756658038414
1.78923309921298
1.73075608424434
1.72373960999002
1.68083084594817
1.73647603759509
1.74778234886708
1.73188378300384
1.75781995707993
1.73578686082508
1.75325390980983
1.76053847434915
1.78862656157062
1.78241910016618
1.75279981959826
1.78338142276552
1.78067725635159
1.69526455718983
1.70218967215046
1.78866281238592
1.68704070606808
1.73153723992036
1.70572779177583
1.61549714660261
1.62604631966259
1.60135857836331
1.585320200433
1.54583848822102
1.48924166133341
1.41969857023147
1.37517402040577
1.35184737938699
1.29271509686081
1.2613748463982
1.25487826419039
1.2469332202261
1.22276653624577
1.2150847726407
1.19740884899547
1.18293916568664
1.16448308608527
1.15390743249787
1.1352470926295
1.12906035294317
1.11601808626728
1.111050422658
1.1165895355739
1.08824744702769
1.07928442973684
1.07699875089575
1.0399317661982
1.03438802778476
1.01317158251029
0.980096930679847
0.955685699517335
0.926430609257944
0.905458191000313
0.875750464570098
0.844037481759197
0.818180712009099
0.791180270874464
0.753752723368626
0.714585577932229
0.687981310956197
0.661034851597807
0.633477549332838
0.599378307525607
0.573412191720438
0.54444271774068
0.525568441435313
0.508716982699498
0.483813918272511
0.464670770872311
0.451303745402285
0.439556263880236
0.429628790519393
0.417450839214532
0.406810728582192
0.397111209716449
0.391856787116766
0.387987409715424
0.382906842893968
0.374527898220829
0.371131390496476
0.373165345921737
0.372016632541169
0.360785902336955
0.370713918178985
0.375078602396738
0.369549844211985
0.372985704726504
0.373207327796259
0.367755047862929
0.377415014080187
0.378589862582796
0.374086110526953
0.37403129895111
0.375284705844206
0.36655839900621
0.367156218671948
0.363988015671925
0.362661693530334
0.353117411095277
0.355557822167135
0.353612699576559
0.355055453857792
0.348346247124101
0.346387141314789
0.346370084562917
0.348462853360967
0.343112886637504
0.34834638548037
0.351365039254299
0.353199103925318
0.353225995141089
0.356476083148446
0.359800836715122
0.366927833323428
0.363210120357771
0.3703756362088
0.368800301339872
0.377558334790176
0.373428195636276
0.375382463665924
0.371218186795029
0.376595872177079
0.381330548979701
0.382529472185275
0.389045556253548
0.38247613392297
0.382302314052794
0.386309041812271
0.390853313901601
0.392724125639657
0.395417364475581
0.397371709987826
0.398611413047035
0.39750266420701
0.399833769706436
0.405119751595611
0.415066380971572
0.429112863924566
0.430339715802715
0.442196817129241
0.449145381097642
0.464007428910091
0.469832817238129
0.488365139279843
0.502299950032436
0.512310666668781
0.521587477330098
0.529124345407342
0.519142483039498
0.517333338844324
0.522132026256773
0.512061658767302
0.501387496517192
0.501134699722849
0.477253776731004
0.476943304381779
0.463751028821203
0.466109773670311
0.466251551079546
0.461426704195559
0.452506132565285
0.459028346399826
0.454367458953435
0.46564606110775
0.464712978116063
0.457311010433947
0.454524728212738
0.460949734376292
0.457019063347432
0.453102565570171
0.448908653734335
0.444472171914853
0.436839342635319
0.438422473550695
0.435602895062684
0.429275501332358
0.416732596279327
0.420731498142464
0.418193204188899
0.413678213682906
0.405209687162187
0.413158716788698
0.395269383450774
0.398672395125215
0.39566575084717
0.397899667859795
0.400581802551229
0.395790998268471
0.396263383665843
0.390719647891304
0.392681696654087
0.385064924577728
0.371808935926016
0.38058834681445
0.37717368115016
0.374071919636028
0.370133262029003
0.375370091057014
0.374144253021431
0.377211028536255
0.368416191017161
0.369412568017987
0.364039075340497
0.361073820478213
0.359104036721517
0.356531155038038
0.359468106067581
0.348274334726564
0.348888813951275
0.348381386204711
0.347104241084222
0.346827172139184
0.333858813009768
0.343239251852872
0.337024850211173
0.336312428190757
0.338739075317593
0.336399810962949
0.337446185403139
0.343742204844248
0.342264002078625
0.346382318935548
0.33589110486977
0.349289807727745
0.341735588011532
0.342798730596607
0.34556113217954
0.355736934888399
0.35112061700757
0.338824497792297
0.346084788215817
0.355700569476836
0.360050695486642
0.359238245211416
0.348131800744602
0.361752454676389
0.362856711107631
0.363320449766247
0.364754953230041
0.374590744059891
0.378342754800903
0.382987364475612
0.396435199426428
0.418660038696063
0.408402711546387
0.401029188289895
0.403507207875498
0.42497016824069
0.434926557706589
0.427713190206722
0.424432963688543
0.457693717791791
0.461770107246253
0.490280483724135
0.495469314979598
0.501378067202075
0.491439283341213
0.531999689224946
0.550018044755716
0.576151990447249
0.591415419659782
0.592973246448961
0.610775828869874
0.610607817845836
0.607347370482788
0.638723781691858
0.599415441115458
0.610498776833597
0.62330542480877
0.612503618294892
0.595161638011087
0.597841364285294
0.587066087427226
0.596776323057352
0.579969388330498
0.586074175781077
0.588605942885077
0.59408539548063
0.597283529307573
0.589157686696691
0.593110379910304
0.585896783194022
0.575085157979686
0.573534023641736
0.545835669986201
0.593915223938473
0.568120269172099
0.555339312368602
0.557271818113277
0.552910638842777
0.542354208805227
0.520906257833703
0.534369236372517
0.551537853892943
0.536835156927923
0.52594717037921
0.527905838093894
0.539903648032225
0.54527346298153
0.532816950699693
0.524639872764153
0.493872287063959
0.523055521656889
0.550900843806937
0.506842928979988
0.559102921145347
0.545457245706758
0.503258732121064
0.515053859055872
0.508174489920369
0.52248066963691
0.561307287617919
0.548735118515971
0.565713566035744
0.53115102917651
0.531091737738707
0.523469795169952
0.501001938178091
0.503017149378526
0.55995929606456
0.523254377909741
0.592845032460046
0.587640749679322
0.548395504209144
0.603633491568393
0.593850178434643
0.594633107245345
0.559823721429211
0.558541509023497
0.632532542827387
0.557738524494252
0.552112627378124
0.601300033603003
0.66375603081113
0.661651662594509
0.613928968012544
0.607901402045984
0.604384829196563
0.625335183185041
0.636300319172841
0.644800320513376
0.674472412701498
0.689397665469395
0.756387847207165
0.734448638283724
0.700317275398074
0.659738214440508
0.697334318339603
0.778355920730258
0.771931914235511
0.757674870781013
0.719529227409424
0.801740387979844
0.785462861875334
0.812353420849541
0.881364659717852
0.755524028957153
0.758895092624844
0.703117462419149
0.711941145161443
0.715668302893569
0.652870650628541
0.668971441335716
0.780867299009792
0.825486520248414
0.740576992051303
0.700435948163328
0.726812091895215
0.687971175311503
0.703708206667636
0.667901979605062
0.74444271320205
0.75600813223275
0.612114251802803
0.721607073182814
0.792346911970932
0.852795973366158
0.63625002523844
0.592563332998526
0.815868713014478
0.724835081412198
0.650445959673051
0.645358853784316
0.844710068815876
0.926193157982656
0.696538735491437
0.790012638241688
0.759447755160875
0.955687574321674
0.75552502130788
0.564607351545753
0.777458477674937
0.934447877406811
0.923726197618805
0.710123321824684
0.731070344221096
0.654398742627989
0.653477819369411
0.622005613796233
0.584010725736737
1.0560871220337
0.784790513159016
0.737020404948962
1.58675588395392
1.39399466241228
0.827991762762454
0.516769212478762
1.04438511041294
0.901328204868764
