3596
4000.36533379555
650.420452594757
1
2
2
0.0958911553480647
0.107558910196788
0.0861230424948334
0.0969068844821749
0.0923358469667459
0.0941254789338076
0.0833432700474771
0.101422832591708
0.0863727748421862
0.0947814151452617
0.0863770904107744
0.101735229996604
0.0875279824534389
0.102346596976116
0.0845131502234241
0.0925833288737163
0.0792861721185372
0.0955762941803793
0.0779760297732632
0.0957024246575601
0.0783087014071109
0.0989759796345941
0.0843479140279763
0.0956846231008777
0.0813444282573755
0.101947305412092
0.0805094008781764
0.0940885934672916
0.079701800304444
0.100055641025692
0.0897378118781424
0.09852092955485
0.0822176130279547
0.0923471307629428
0.0813404936961564
0.0933190914256941
0.0856498538436649
0.0942031055795989
0.0785647195161221
0.0993266385319232
0.0913835591267395
0.100732047151252
0.0884173656013056
0.092440728171126
0.0769249007197915
0.0967231223556821
0.0810148464199293
0.0865858548312489
0.0811015762435875
0.0981684139975483
0.0777615729889524
0.087854832062846
0.087890454517474
0.112316891694724
0.0848097796308395
0.108661041902584
0.0846918786590978
0.0947931984220126
0.0835422574485919
0.0951593112625246
0.0934913162913994
0.10604233889711
0.0807288385299555
0.102684700895612
0.08030781978366
0.0969482625053008
0.0728875171248897
0.0929346608554243
0.0692487804113727
0.0946512464574488
0.0784026012890427
0.0941842358015029
0.0926553600503507
0.0923366177091676
0.0768138215239339
0.0945688030751642
0.0723683181063032
0.0888126734728266
0.0782588782745517
0.106436532152615
0.0792386152150524
0.0914402999829845
0.0776208165992811
0.0911557994379425
0.0761562995371596
0.0995112803570342
0.0765409893403796
0.0944290698671296
0.0933334408056513
0.0927173495433291
0.0753705729495809
0.0829065805555131
0.0775211346622807
0.0851763909571194
0.0731783498658542
0.086206084299554
0.0737423981937165
0.0924574703360695
0.0759394728844831
0.0877606212031154
0.0945745753306151
0.0883941444488765
0.129253633867896
0.0805736067845707
0.120986058938336
0.108964628372016
0.0626243773523511
0.139336743873247
0.0790763893195115
0.100055422715932
0.06763248957375
0.0926837291098161
0.0714309368488581
0.098629901759536
0.063200478628806
0.113144060794492
0.0998337919286386
0.0869627374723817
0.0775089997644537
0.0824411551772373
0.0681870289753876
0.100761607527117
0.118872150379487
0.081019747142348
0.0821570063444371
0.0797995337475465
0.0632484951141964
0.116865182134531
0.107528195529355
0.0783503461158145
0.0851393939046058
0.0804741588943009
0.0732436558158545
0.0706303728151875
0.110169497740213
0.0907309745940349
0.0801495167095265
0.0732002650318324
0.0943516196339085
0.142493950533653
0.0811644391367388
0.082607826526958
0.0604055304718114
0.0917132696516769
0.10691285709933
0.0956293102641627
0.069261200971525
0.102882153670551
0.086624409332312
0.0745660590139952
0.0687631338825071
0.0748616532476442
0.0841533870677808
0.0899948345674246
0.0437565588919803
0.124757597995179
0.149746804407495
0.0816134892510886
0.147660607305797
0.0771312579412809
0.0834092783014299
0.0738679007454288
0.0730475321927375
0.0771715633536745
0.075114983164961
0.0738512859513249
0.0784460829651269
0.105470234895768
0.0695525491375214
0.098200287356573
0.100398111667178
0.0898423055049423
0.0613334014510125
0.133336184136428
0.0851639896751004
0.0709754521987709
0.106730755382553
0.0850935822946924
0.0717023269330598
0.0862212430162779
0.101696826297856
0.0723708638103781
0.075241099994419
0.0811720578603925
0.0786672688552846
0.08852439243546
0.0753705655994926
0.0740610572708669
0.0814647140232531
0.0617478857157224
0.0883338196635335
0.128603400463875
0.117275335146859
0.0785174867558815
0.0809775795189353
0.0456282662312947
0.0997187731886756
0.110385646822013
0.0651401254119336
0.0793651186602686
0.0653260518355863
0.0773059642002663
0.0679941529265634
0.0780914532722648
0.0708351911045067
0.0565425284899563
0.113262209282648
0.0922935813187671
0.0645889667956617
0.0732428091055604
0.0785795309147233
0.0767740625595563
0.113444512176857
0.113585583097399
0.0731742442894361
0.0805941955497807
0.0690743746574377
0.0962724912736654
0.0903378287692898
0.080301957337678
0.0697905822363406
0.0777710405359678
0.0655566189028298
0.0790288802532568
0.0681359762842417
0.0774478470338426
0.0711632346427682
0.0777969263012788
0.0699296855289883
0.0806168426781522
0.0786860864529556
0.0847957484606229
0.0708993139481587
0.0729678046514788
0.0648351830543791
0.096817372511253
0.0990876472037137
0.0771097929401282
0.0773369168152519
0.0717912311522361
0.0677636680584126
0.0744497844212579
0.0790969456196329
0.0762762316024026
0.0748586799132101
0.0718637177415781
0.116786674148351
0.0837247549326387
0.0687493636263287
0.0755673021933363
0.0903410752788334
0.10056148955252
0.0751078330575602
0.0889268091801066
0.0685427006617297
0.0796616849798258
0.0739366691725094
0.114215179222635
0.0834658892766847
0.0792803513131222
0.0875229725527519
0.103747916970567
0.0687449967654885
0.0835139865560736
0.0605393125796031
0.159644088757465
0.0925350588434919
0.0804809595664426
0.149262298635193
0.103557545163705
0.0752857628037446
0.0965477629054505
0.046921235372611
0.190212990527982
0.133228403134993
0.0917889512759255
0.0802359085767303
0.103427764250882
0.079886862278675
0.0905613797869683
0.0873779508272905
0.0902142459358666
0.11787055065372
0.124062813418834
0.131090064085322
0.0767118484357898
0.0979093781552415
0.118116924286824
0.0821081134210701
0.0971264916081595
0.0843121409301033
0.0898014485566225
0.0925857079697169
0.11419948494958
0.0930598438482669
0.098643534826887
0.0796006731174175
0.12202978135333
0.0908811544334388
0.0954103087200699
0.0849431758363503
0.107942108709788
0.0796915114158446
0.0890594416732816
0.0865346831095923
0.103316930755318
0.0817172796453908
0.10307456198435
0.138698404332042
0.112509007674393
0.0817754966552993
0.122067768015009
0.0906267750472734
0.0945460028203233
0.0853818220769673
0.102456832836561
0.0884254653431646
0.0985606130973416
0.0872050550331404
0.123722326878017
0.100035274867716
0.0970379569567942
0.0937778232730462
0.09386990347163
0.0872813681090348
0.09759414117799
0.0965683198696502
0.0911835648720778
0.0869479056347401
0.0988954513077435
0.109444538572609
0.13424641145911
0.0814531538844532
0.125722436406547
0.14340645564274
0.0997870650784251
0.0995625790481926
0.102629649149952
0.106242654201981
0.0915566157466474
0.0969217505607284
0.109014563638008
0.119298039995955
0.127384038149364
0.11237147574229
0.116126661623049
0.115907646282068
0.175783397568692
0.163215466149644
0.130786728473807
0.116152862042578
0.106932788886708
0.139406943699279
0.159818758622125
0.115012176651664
0.148999785383345
0.102372479185873
0.127835968837001
0.113927969358719
0.128594234645978
0.119132377134622
0.132383095793599
0.120361020322084
0.125363991077038
0.127297024263928
0.134714279397487
0.126192238497975
0.134481124406288
0.153056476880686
0.139066034033396
0.129049530143104
0.139935054473908
0.121887745537047
0.160313254224629
0.165641096101312
0.17811817949374
0.181965311051883
0.163021657291539
0.189622439940184
0.151101853861568
0.151926205031585
0.146818870633083
0.153890356652663
0.157819733485762
0.15231893562142
0.159841393512937
0.159516883565548
0.163416221651306
0.164132864936191
0.162942933707406
0.158056819017821
0.168455341268481
0.186754549373901
0.174271177609345
0.17382543753964
0.178096584787845
0.17775043134525
0.246330135786705
0.219575207783109
0.21163320116449
0.193328200915432
0.194419792798835
0.171226162817854
0.198869343885808
0.187066739543551
0.207334606526738
0.201458598852618
0.248169676609202
0.22113182374872
0.223838996477145
0.229159913664428
0.207338355274881
0.223738761477233
0.22023160794475
0.230603806628983
0.268969848857528
0.216837296114138
0.217405916633798
0.248854872568519
0.268503223702292
0.244055251694808
0.265274301203309
0.236610492174092
0.233630084174441
0.2310470341481
0.252138640998821
0.236811656988687
0.248953551041654
0.249090644470334
0.264341189340674
0.258887863112383
0.261659440838728
0.262550171141899
0.286322353283734
0.284881878704149
0.279614245212794
0.281128140276808
0.286246234026417
0.28756865264685
0.294834667118762
0.311152398755872
0.324735084815573
0.301570549690532
0.330615214427314
0.290901444237975
0.315960015616063
0.307187931487114
0.302674086385143
0.305820859512595
0.32470415001293
0.329388726876067
0.327705455741816
0.317051079537166
0.335957128501123
0.332092349420724
0.334204771544201
0.348840893898006
0.35342651049286
0.346685397878945
0.35397547594017
0.343532500024875
0.365879062991834
0.376845770907933
0.418383749531161
0.401343089251845
0.397768634800761
0.374554644769971
0.397013704100911
0.380124464862789
0.392615680360767
0.38459009241433
0.402774284541753
0.414010793720563
0.415655971565291
0.411412356147199
0.404898420394089
0.406260032990634
0.417879800036875
0.424408046611698
0.436472576190868
0.421131331328895
0.427708670909862
0.433153939976519
0.44106126220528
0.440582665464737
0.466007524868377
0.454613583143084
0.475479288708215
0.470029291730366
0.46659950549636
0.451958395897167
0.47275741885567
0.482701943077292
0.471938600421783
0.475340807061996
0.491636271487163
0.478232967517517
0.472322217426734
0.520970538573838
0.503262096999389
0.480656001209844
0.534182177770524
0.53186492176625
0.525161322581716
0.572364088773693
0.555693323170232
0.527440012760839
0.523862902826572
0.522821498005229
0.556320115883185
0.547628554388851
0.550005916772953
0.558304305775195
0.569575767102065
0.567991480202729
0.5706099760782
0.599032189921309
0.598388979104279
0.566789287179715
0.600754837797838
0.600939917595819
0.603437444067498
0.627612964019873
0.623692170518184
0.636966464222447
0.651529621122403
0.608618779799598
0.596103294644403
0.633344028930169
0.652490029483946
0.607708339702146
0.633368562240696
0.644607573122387
0.66240851096653
0.650626293754199
0.64253459711252
0.694826086662679
0.682535614147135
0.640212193957003
0.683863426349139
0.674871445999885
0.680382785518131
0.730476510359169
0.708646628588612
0.755977902715558
0.730898155862672
0.712978244953572
0.75134608089714
0.763117756233003
0.737306585429692
0.748854946087539
0.759261844763159
0.752346289576928
0.739559942464134
0.753860545400989
0.758168395298199
0.753385417602891
0.736412926299687
0.762188651910028
0.75167564346742
0.767967237380309
0.778917942161224
0.801727741556688
0.788990403909444
0.78386105849428
0.801233192945564
0.824188388140714
0.760530339226499
0.781479146610528
0.8174896601282
0.808216283837464
0.834001107096996
0.857184215028083
0.848596669340422
0.840826972916919
0.823492708674267
0.842247697559776
0.857849199622645
0.868840069437292
0.858345539206572
0.911327244120325
0.910289564972292
0.879377146951144
0.901139919920168
0.921927440602806
0.906370668439038
0.912332816200703
0.896528824324863
0.921262233101788
0.878130351134148
0.899198364730677
0.881202607227008
0.941816675343473
0.927419177108137
0.909716720898075
0.965389173899021
0.944990715257346
0.96976038634364
0.987743422533611
0.900455915812436
0.953976751947613
0.990802881110915
0.982933829388393
0.90706281021938
0.910484008330993
0.995490866655337
1.04158404248876
0.943829575517281
1.00840371272272
1.00696515646739
0.992709900140676
1.05714888720207
1.00947332397733
0.979203109898994
1.00408365850964
1.01246126307716
1.07746084479849
0.997695093854035
1.0500898603231
1.04243313438373
1.02547011962278
1.06890960271984
1.12357233886204
1.035870980594
1.0973210003305
1.06031443622444
1.00692956964909
1.04803755210237
1.14651546620583
1.06558589261887
1.12905396105534
1.08269554761569
1.09640526842647
1.08284127460115
1.1151233360832
1.02932303936254
1.18255803526633
1.08668947463846
1.10563760373582
1.04755523190119
1.13856662340983
1.03712331937383
1.11995990489109
1.08656325869941
1.18501691115577
1.15605352399793
1.17594321747255
1.16451462993884
1.14903232985759
1.13547469272991
1.24121681175015
1.09847746673443
1.20583527535869
1.18766073384913
1.20182974364922
1.16410762980449
1.23169532933468
1.18636293681659
1.20490631711009
1.16341895796639
1.17806145240987
1.16507511134457
1.18165823369915
1.212464156139
1.23562209678073
1.15196252946602
1.17127660929225
1.22738334663269
1.29763496930131
1.11880591502893
1.17218385890508
1.20426685285571
1.29480413087158
1.18719457150001
1.18713916754838
1.20589972056221
1.20212696570062
1.15276576230278
1.17513964695856
1.24348038445202
1.30205891932031
1.17955495547606
1.252085455549
1.23627437704122
1.30873671071666
1.2710813414255
1.30230245935435
1.27634969457465
1.25741369801448
1.18319606328206
1.26734275708757
1.28097410603429
1.32260724816138
1.26467709367459
1.31406879504982
1.22564833717516
1.33805608472635
1.22325875576426
1.2406702475131
1.28293519333036
1.28011887170795
1.20714902883083
1.25571975584539
1.31958345999809
1.35871173992935
1.24226815785666
1.32003055613422
1.32139523598178
1.32412485089077
1.24789312762301
1.43507764954353
1.30391254332502
1.33740739134383
1.41080624015997
1.36779746238071
1.29697393017432
1.2930739976065
1.24666446344859
1.25541951074047
1.26300638930523
1.32493933675794
1.29819902459439
1.33192935324364
1.27234961834168
1.48126892631956
1.28132598575319
1.27109272990878
1.35886889449069
1.33627317871434
1.22275917952453
1.33950530939569
1.24267826716822
1.31048971043793
1.40830801908039
1.35890787764604
1.24592528475182
1.30262694406052
1.33371209566575
1.29890596607612
1.22387105809006
1.37771454453389
1.23570558619585
1.2542244684776
1.23391110114902
1.2899255287709
1.31322411135718
1.32230115343167
1.33877290043211
1.42406877154834
1.31957083968538
1.31389823479538
1.2261769366437
1.26712983947731
1.21806299282592
1.393418639336
1.31186160871063
1.32618140010312
1.33802913519284
1.37769926007089
1.29528615792872
1.36488452763229
1.30696323104271
1.34422223810998
1.25624364105726
1.38697756962164
1.23262482945937
1.34368162558292
1.30200862884662
1.41595572340648
1.33529331752803
1.30789206385247
1.3035236961066
1.31870624275487
1.2707180091659
1.22444867973174
1.26697085206367
1.32482580776274
1.33189460968094
1.45555237641875
1.21691576272914
1.34282554305612
1.33116214447994
1.29595901542806
1.34537545210004
1.38607873875445
1.25836537342764
1.29322388866453
1.27931724892864
1.3220971491733
1.22881212141831
1.3005067461548
1.29809535805233
1.28148125032005
1.31338594273334
1.30160194932115
1.26945057399981
1.33138411007059
1.32707707761284
1.28448907735764
1.25486842213868
1.24836779026724
1.18978023627468
1.27348237526663
1.21772092515779
1.35068337085139
1.31986224010916
1.28613408950249
1.24470965146678
1.30329376305119
1.24026683980503
1.25746351470351
1.20992554061309
1.24656594023227
1.26373046547515
1.2778859625496
1.17079511709917
1.27463777535643
1.20796735513388
1.29353068366454
1.23604980339978
1.30616218893796
1.27050322635057
1.27691912616758
1.27562210218835
1.26181029705668
1.25107155451405
1.25462868505611
1.26519491634676
1.27353763906486
1.16600358253082
1.19510903914484
1.18504053229474
1.17653291738904
1.18813960018768
1.17988018786818
1.18378496993669
1.23368396542305
1.12772015772333
1.25506218803136
1.19989585100261
1.1710113603334
1.17636313736267
1.23632436261998
1.19922405598411
1.18746944031299
1.20184275256375
1.18619744334917
1.11751291189531
1.15782066486251
1.18176881928064
1.18406260791659
1.16025621801276
1.15589488936208
1.20183048517695
1.20283393951868
1.13245206403863
1.18307424680044
1.09973218433171
1.07961797982777
1.09841297301304
1.12707048422652
1.09097420622
1.14012795603204
1.1200908986699
1.17086003209087
1.07159842751791
1.10834711876813
1.0942570954566
1.13051301717033
1.04348142012202
1.05278229027275
1.07950526535257
1.10233099031321
1.09398158577868
1.10378282842333
1.05020078076442
1.07531366818407
1.04552632237172
1.06145032063136
1.0902295532101
1.06693853472032
1.04098796837817
1.04303755278981
0.97816099284338
1.06082450427237
1.03208069652505
1.03265222594399
1.02320128112871
1.04372379405306
1.002222715543
1.05954556577464
0.980550480884185
1.03536541143848
0.947224111494591
1.03029480976586
0.979720267227263
0.97699327198979
0.965986463554174
0.996899713264169
0.953938171433353
0.992339851109971
0.948412363856202
0.951607107204547
0.935946140171753
0.976676839725117
0.909348332708154
0.927111113450678
0.907488108046658
0.950435762587434
0.923136503153622
0.958470664897633
0.917733638286875
0.938065694090304
0.911742993639936
0.92014281097241
0.900415277245998
0.894458287306951
0.884520093175214
0.914973122371893
0.865632262963
0.885335465041581
0.874216169519506
0.866658141581581
0.851797574142764
0.873461660295037
0.838404263690323
0.875872945144035
0.862144886340082
0.879047594673814
0.842991818226957
0.843177417179737
0.860646457571444
0.846184809737098
0.83215653224688
0.846913809272482
0.815592636192097
0.83002623285005
0.785339021682776
0.801065649333966
0.811296903692838
0.798621896774013
0.800730697522677
0.797216342129091
0.775039462104452
0.778627603468614
0.774449954020932
0.784419181357668
0.765173848080402
0.784571101969214
0.767547835387082
0.786101811565502
0.774134780367655
0.739571414692243
0.759443347825202
0.761370510200148
0.73719389525069
0.755440397353651
0.719202070394973
0.74539205159159
0.731014892353578
0.727795760527466
0.717273431733471
0.726273572174761
0.713089185727487
0.731470308339967
0.711803511654023
0.709327136140349
0.69487828816537
0.702697821242119
0.695122599641308
0.695959049451287
0.691511169548384
0.697366121840458
0.68308235519482
0.69577686206887
0.683475704231692
0.6711724639052
0.677850876041505
0.685853594348928
0.663560094724801
0.671875713665349
0.657096132853789
0.662523201436862
0.654718218422136
0.657840278475238
0.64416891423462
0.645821075132185
0.642404628480244
0.638667972696629
0.641776072418599
0.639031967740543
0.631880018932835
0.640715240620608
0.618442633381247
0.635818710611254
0.5970932565988
0.618900763746195
0.619611106585716
0.619387860387383
0.602457718713723
0.618340550611908
0.590542074007159
0.611824533780502
0.60209442230833
0.59302324690829
0.587296020698342
0.598453657934586
0.584046196333534
0.590403849890474
0.584784033313494
0.577959381505941
0.566246111285252
0.572271971584138
0.569824524657379
0.568749351437252
0.565958456794879
0.565757289456141
0.55532387922773
0.556302423579167
0.557921144790622
0.55622396538715
0.546442204675977
0.550154269592946
0.540315158870184
0.544645549244079
0.538369466313068
0.541864642518736
0.524327855485858
0.531458236511649
0.52895635064325
0.535712642829718
0.529763568169074
0.519165912709156
0.519823577647972
0.531287608374914
0.510443134094675
0.517301458551357
0.506691085488335
0.514702871769913
0.500079859610675
0.505715467837447
0.501951476527219
0.508328687634095
0.499648883822639
0.498401037408579
0.494320049895143
0.497827211828383
0.490703410843713
0.492640134564917
0.480322894606178
0.473894547537521
0.474304690146604
0.48610963829299
0.474613920169387
0.484762568558679
0.477354365623635
0.483261198184187
0.469590269392197
0.474279588958455
0.463354526197192
0.463598977283375
0.46741475309444
0.469026063837585
0.461033032752757
0.456888665188726
0.454775272772055
0.459080051810978
0.447622190004028
0.452321948545249
0.458957917512124
0.447710853509208
0.450687993728909
0.459166884727105
0.447172706418771
0.44341705491572
0.452006738648381
0.446723860296824
0.456139188333916
0.454369592524277
0.443325378409988
0.439884431174702
0.462967790987295
0.445326760497186
0.446912258291963
0.455357228901091
0.449634483310454
0.44830798525067
0.444815639589204
0.458907135736541
0.45184670646502
0.447737664090997
0.436563631643934
0.461845764146214
0.449050128156181
0.451556711171735
0.447384678630401
0.459666544066045
0.454420068877615
0.457999519991406
0.456365787285366
0.465227922557689
0.462653090544607
0.466310984193503
0.465980788668268
0.465450550875088
0.476793068894657
0.476793340692267
0.47284370452011
0.476068537224907
0.472623832458045
0.482779395874064
0.47904922887214
0.482546510258456
0.483089052044922
0.497680279881338
0.4850149831601
0.494002101759598
0.495180463588087
0.504131873802567
0.501837320834774
0.495610245664162
0.500003133577065
0.504172311457655
0.510274612894222
0.514019332754448
0.505943444199814
0.52083018049174
0.513449366034159
0.526627597422904
0.523853214670132
0.529241447703676
0.523787794213015
0.542163162830855
0.524067174785599
0.543430681650534
0.547475823234785
0.557888878702235
0.55344667218052
0.562176001431671
0.558821770857821
0.560198720177064
0.555228941194003
0.565630132094167
0.579219082371003
0.56953934229683
0.568616235619978
0.580366151446715
0.557578234146511
0.58445993844447
0.576983391826057
0.581511451021109
0.571224168063388
0.576973617696424
0.581030186375284
0.582661854247719
0.595149829665422
0.58744792136606
0.574258178079553
0.574226954240238
0.585828217276006
0.577380061328886
0.573094234282594
0.591392018306307
0.572501501914767
0.574569812772341
0.572608712985673
0.578730415870073
0.56981127046963
0.56536829408985
0.571954957877526
0.57359450115092
0.565249303303466
0.5667414202036
0.566456252582047
0.573135121346164
0.56404030416907
0.576588019262756
0.577745152038609
0.578346656552672
0.572171597061235
0.579936960313713
0.57348529550237
0.583086909056829
0.574413364999363
0.57450309125268
0.576525600370385
0.577780308113306
0.572127177812519
0.57880615588527
0.577426001120909
0.58340678572375
0.57081538806899
0.568875265839981
0.566424150590981
0.572254686997866
0.572916280274891
0.577856635284125
0.578427872847246
0.587574692522835
0.552856124317599
0.576023521859144
0.559610789248608
0.572169174701194
0.565028141763359
0.571375780195894
0.561450981895271
0.575325245454319
0.5520990867924
0.565586658693706
0.560785353786725
0.560478537754449
0.550282832961606
0.550048596331122
0.547299587990066
0.549427611161645
0.552243743929257
0.551007408811115
0.530617621151671
0.526787194503529
0.5243584132114
0.532147610806939
0.520748067930614
0.515383767120312
0.514878594660553
0.52428358574353
0.510940889399349
0.511441382386021
0.49901679880571
0.497590453214811
0.500780136014333
0.496088795045279
0.479529235558506
0.486055294412937
0.483913821792522
0.484378089437932
0.476970328373973
0.470561465210695
0.478185852037986
0.478596426792557
0.470199817957511
0.470638039869018
0.455036038259789
0.460471900871713
0.451395720384153
0.454670077707991
0.447204722936266
0.453637832535266
0.441164527163951
0.453335609083283
0.442183753418455
0.442345237068045
0.433398868065659
0.437071814815071
0.43075160732169
0.426223178152224
0.422230692830781
0.418867202795804
0.415215366341244
0.41675267231244
0.414884195033891
0.420992032725603
0.414764904130044
0.405771031464891
0.410806522993821
0.417421115548347
0.408417514947152
0.407687781651709
0.406782741209426
0.408330671489267
0.395325654942457
0.404022996478168
0.393972383775818
0.395121213995087
0.396473214346062
0.399904062160316
0.401792174003401
0.399016102012011
0.391333083101855
0.394089383497191
0.382113208839884
0.389174841991738
0.381729014960278
0.385463175528695
0.385612248821707
0.377594369639
0.379591665120295
0.378762585845566
0.374406854211883
0.375096021462427
0.368510360784847
0.373302621036765
0.36807870374489
0.364694130914856
0.368772316875256
0.36440488044411
0.371960892864231
0.36417315141896
0.369084704713406
0.365643537678241
0.363076060452275
0.361480628083739
0.363480957349339
0.361726273905317
0.356221376733026
0.358511498757512
0.35583053385067
0.351355101195735
0.361410992134894
0.359345300305092
0.344669573986765
0.357462824981101
0.354187503386395
0.353745369621291
0.347746543310381
0.354301156993279
0.345699460208225
0.350172056831618
0.341389551788292
0.343115957526532
0.347406676543111
0.348296886324094
0.34011227098042
0.342179131900262
0.34017645324845
0.342880419498528
0.342891095499968
0.339871243600284
0.334601641784921
0.343461951971681
0.3452044469745
0.334963382014846
0.338033093180751
0.33855378419473
0.330993404251153
0.336096764300895
0.330682293779865
0.331210136981756
0.330700036054496
0.330538075507477
0.325833288084498
0.333147508289637
0.328802081164355
0.328496519346113
0.325192398812804
0.325267304973235
0.323851763984203
0.325681062852979
0.327677147236724
0.323821881176362
0.319388424342148
0.330233125324863
0.328218718169092
0.319738524051091
0.323431050762236
0.324815114717643
0.322786682340665
0.325599760801765
0.316991773334381
0.319675037691334
0.314188333261977
0.319913347028738
0.32050464022993
0.32014728029907
0.320883401777712
0.319714781040605
0.318652015077189
0.323219833388063
0.317730593697648
0.316897575627493
0.321253768894836
0.320474484492018
0.315941771692794
0.312386288560523
0.316365745275245
0.316823739653589
0.314164982390894
0.317254880797628
0.315042669185585
0.316313329103066
0.313799084692936
0.313941128155224
0.311145765240074
0.316579232695182
0.309091026906697
0.309050654273811
0.315414868497686
0.314588767567383
0.3098426883033
0.300795466012389
0.303957719242115
0.311633526614829
0.306950187922575
0.306572586136132
0.309608726273313
0.303349856629554
0.303641337240058
0.307360444823054
0.306969429137602
0.301995533963438
0.298504849111245
0.299683795508203
0.30170796354366
0.297358554741946
0.296906431829833
0.298683783476367
0.299947435513189
0.298130972393404
0.291988636460168
0.293978248880452
0.295461781966196
0.293947426333773
0.299333424171556
0.298907166097439
0.29046545900102
0.29405757951445
0.289489401824942
0.292044206128896
0.294527321663176
0.295445541719498
0.291530488619488
0.287163536405517
0.288250015203594
0.286673934455965
0.285547357869152
0.284884464890545
0.286214365888262
0.28153938494441
0.28411413668191
0.28276062221834
0.282268400152827
0.278876066776504
0.284241490197444
0.281174894399081
0.280102364269764
0.277446523613149
0.281125642463939
0.277492379325273
0.282182094550009
0.279120357311007
0.276446232480079
0.275109736809068
0.275036453020684
0.272396340307776
0.271258489908442
0.275804012364269
0.270353901515987
0.269700947553193
0.268135324089821
0.268330423272019
0.270155722666742
0.267233513737969
0.267296614109934
0.268596493755025
0.265646840715097
0.259302140857938
0.265431409077232
0.262255878630144
0.259345974424569
0.260132452761038
0.26131342481291
0.25989858734995
0.254536460999786
0.260664123823006
0.25217007052344
0.254100955120426
0.253981872579475
0.253205828936634
0.254691700512957
0.250508031659386
0.253176654723899
0.252026105261367
0.253156636766132
0.251059046272121
0.244261433506483
0.247815166267221
0.249563877756521
0.24774968159481
0.245830751175405
0.245053198402813
0.245341696939719
0.246875913928242
0.242984635090492
0.249656540759751
0.245706902540841
0.244152842207301
0.242193545307731
0.243972089985805
0.238886425636865
0.242283117480571
0.243599353895443
0.239023268484815
0.243613659509639
0.241033497617661
0.237572312323974
0.240467883309792
0.241041805542603
0.237054538940293
0.235010039090193
0.238733117505134
0.23480759059047
0.232333580467082
0.232561012211677
0.235975962033325
0.233206892698383
0.231313285009276
0.229274775377387
0.229108684423535
0.230218114373805
0.230388185334574
0.231123035212242
0.231419085304636
0.229562621439333
0.226282108280773
0.227771916197832
0.229260783739163
0.226271074861087
0.225817044337523
0.231946094841811
0.224837392813412
0.226599503528431
0.226093070297777
0.221208575640678
0.220919144843358
0.223614286132079
0.222728418620406
0.222904088241841
0.221290983808407
0.220340001658846
0.221526406802626
0.222253075445622
0.220449253754792
0.217798587742317
0.223039907960671
0.220888424222563
0.219935588937033
0.220082609608164
0.219743238057075
0.218252505626961
0.217782233103118
0.218965851977583
0.218418676799797
0.217324200604938
0.218519035776566
0.213708163208988
0.213888216524195
0.215729162306274
0.217763789249653
0.214114298228343
0.212455316517917
0.216370368941166
0.215723791296637
0.212497635085454
0.214930248476849
0.21489702298411
0.21460625695564
0.212973546270732
0.208971180591321
0.214519071379732
0.213472199413503
0.212519567391813
0.211071704915157
0.209087593039033
0.215098735811869
0.213944338645246
0.208680108065972
0.210162979802654
0.210260270339186
0.207733633112497
0.206326360928275
0.207024241275479
0.206490109162227
0.205897556282388
0.203542297487658
0.208309736314366
0.205693112457466
0.203721635710153
0.205022103226595
0.208209990578143
0.204577480931013
0.202859899427529
0.203656534933748
0.204760188795279
0.203461475322855
0.205977705268091
0.201780425748951
0.201144795974192
0.199419031608417
0.204999051239197
0.201706495407847
0.199639000396157
0.200175438027158
0.19946949538151
0.200547322057159
0.198886123369254
0.199047914208335
0.20005636164056
0.195850572195227
0.200469593049163
0.199140619584514
0.19873002740101
0.198609695052485
0.196992923174849
0.193890447956879
0.198586270823416
0.196116032388089
0.198381166446616
0.200835636930579
0.20106980479979
0.195524535211382
0.194185817165946
0.19317411688222
0.193044342491902
0.195070189943403
0.195296747339939
0.189655001177241
0.195178467373002
0.196157566228564
0.190394395780421
0.192143005816246
0.189646936595306
0.19143866661279
0.193914043545709
0.189873620332824
0.190813689462662
0.190123029151265
0.191480041157797
0.189118473177833
0.189460392994042
0.184270725863053
0.188486401602827
0.186759619249974
0.185609421839664
0.184379344507137
0.18482307144225
0.182102574182406
0.184805272334526
0.185376769753338
0.184821574733576
0.18327832170091
0.18366860152651
0.182481343646727
0.183873659007731
0.177253822527032
0.183058380825209
0.181502980050227
0.178150800183993
0.173437377801498
0.17505395509435
0.177204018721617
0.176515005548965
0.176671791244153
0.178824357394063
0.17746041192252
0.175338700148381
0.170785992974112
0.175573759182729
0.170944052993313
0.173803372913312
0.16917921960752
0.173967908294202
0.170315548601592
0.17721842765698
0.17314611179529
0.169838423373173
0.170042465891229
0.173103515322963
0.169616259569156
0.169616782314946
0.166869774939179
0.169062500549815
0.166111912827848
0.167161503473946
0.164506212927382
0.167442077668376
0.165179744993317
0.165977019309628
0.162035412383241
0.164644172017274
0.164180344057994
0.170093567902337
0.164918995521435
0.165824838269449
0.159432787816228
0.161418099958244
0.162497284546711
0.162312847569458
0.159602227911068
0.162427127434748
0.157542671602536
0.159019137185811
0.155098865181602
0.1578113215695
0.155013704236515
0.15944813950994
0.15642871049714
0.160037785712006
0.153984117546584
0.15628471336095
0.149828666387773
0.154383102134244
0.151995465625215
0.155301974123243
0.152741347598898
0.153493117111726
0.149404118288401
0.152553561023442
0.149317776345616
0.151180077256775
0.149498011818961
0.151816418349942
0.144779929015998
0.150554033785542
0.147630747530073
0.146399981213255
0.146182242375175
0.149050282524359
0.148342502241101
0.146656275571425
0.14334755658641
0.147181783385829
0.144299086977134
0.145322901434643
0.144715509312882
0.146572998469123
0.141149376262185
0.146349066928163
0.146037400912723
0.146070324295661
0.140471748907882
0.145405359045931
0.141173973400847
0.1441006364092
0.140811606129836
0.144859943740985
0.14159325568207
0.147710152745703
0.141169294461597
0.146106794987693
0.144410922351997
0.147810763513829
0.142350881058554
0.145139926557798
0.143525809142672
0.150299160969362
0.146628615981578
0.149532877033493
0.144363005546876
0.14656528562952
0.140212624763884
0.146467348792011
0.134579151145277
0.1422877716116
0.13919788883646
0.145599477394745
0.139823796028627
0.140190454799395
0.133562017480364
0.141471980760953
0.137416481256026
0.142218631282973
0.13280104198593
0.147440389553055
0.138633665951501
0.138931273132109
0.132435488704107
0.138359727407933
0.132618848210893
0.14684304776072
0.129810145299868
0.144055296455388
0.131790303442471
0.141294366421874
0.124726405028025
0.141546519190932
0.130784283523045
0.141846590967458
0.131692189769624
0.138068705341607
0.129955034105614
0.140471615661247
0.130346491850902
0.138607354602054
0.128306015035903
0.14079054080638
0.131306259798802
0.134419731035092
0.129323701198879
0.131111378596076
0.134973307339017
0.130826648094579
0.138941756880458
0.130502947300994
0.14729543280794
0.120990162224069
0.146694103948133
0.117344337103616
0.154672230407978
0.110543170188151
0.155275837587382
0.101472167049798
0.163815169929545
0.103298839892806
0.16146438321121
0.0911416661717942
0.164954475559014
0.097740993577472
0.154848142410573
0.103889085603307
0.15191028852276
0.111718023348321
0.145568244689623
0.124937044445327
0.129046882504976
0.132688955695837
0.121009014912737
0.134469379302047
0.123269854733033
0.132801307526964
0.119954155619736
0.127140697025402
0.125430747788799
0.122467065481698
0.125781097401142
0.118933534109413
0.125674572421628
0.119745175323954
0.125811012296621
0.120596523489682
0.121092920523755
0.122475532451415
0.12050184191929
0.120690292546681
0.120974814734185
0.119276379951157
0.11976771586203
0.119577785403176
0.122796433940019
0.118993534168892
0.11771223387868
0.119901387073365
0.120134547671501
0.119798466341135
0.120037486630247
0.118575183727712
0.12121437400889
0.119693550369744
0.120312826339203
0.119064582492917
0.119287734420859
0.120464271326019
0.11606125281853
0.11953313704641
0.11889604673433
0.119941608270445
0.11823835565909
0.117579113388522
0.118414552753456
0.117829132932478
0.118582915342302
0.11982171156342
0.117034591820793
0.115950147896128
0.118017386628994
0.118047720635163
0.119520243459337
0.118965964044025
0.12209927226297
0.117120536774443
0.11754943861189
0.121040065476356
0.11748902579637
0.11840407572739
0.118336312184302
0.115439189489382
0.116932156375336
0.117567951368579
0.116680556675458
0.117956971406161
0.117851590362889
0.120152050087692
0.116079398279147
0.117001918328511
0.116985430533523
0.117561169907824
0.114663142743986
0.118208553659253
0.117585261186583
0.117273367585235
0.11615243646849
0.118801336176824
0.115268337026325
0.118932437797293
0.114628970604659
0.116060193096955
0.117011111867239
0.117787120152992
0.115960848468499
0.119320775257893
0.118865310314783
0.119214111704839
0.117653974038861
0.11901911211854
0.117624984878621
0.120146792929391
0.118780408970502
0.118330468950298
0.11694311443414
0.1186478043918
0.116451504656521
0.118734855287692
0.118078460127747
0.120314003412221
0.118291511235992
0.119114809736591
0.118792425457332
0.119769325380068
0.116313987645095
0.11822273674368
0.11654131655716
0.121021850383311
0.11806974632164
0.119802669420264
0.1197925629156
0.122750318291775
0.118764748385396
0.120254060716077
0.117913394437233
0.120254518404203
0.118110725681241
0.119322660539754
0.118869183848597
0.124423765503173
0.119461946712542
0.118904532598918
0.119982937535714
0.120097817801554
0.117972891157194
0.122175309484076
0.121832131583658
0.122857941480817
0.117973696297393
0.120524430627577
0.11995679653133
0.121814736774241
0.121059484341937
0.120704531699305
0.122397099907821
0.122086743569705
0.118938863872371
0.121058554255215
0.119652961547938
0.123262557098139
0.12426101471106
0.120582588592445
0.119759644488625
0.121382177546556
0.1198813176918
0.120892904945314
0.119060369634264
0.123735619051669
0.123213737728978
0.121243223625077
0.119654172275361
0.124430172967934
0.120717452316455
0.123261572033063
0.122242739662483
0.125303656559842
0.123360531520106
0.126693328128383
0.122380633003019
0.122319913760225
0.120449447147765
0.125595110103611
0.121720814865144
0.125302105421062
0.123718270265215
0.125556310705935
0.125029612167367
0.127003149777076
0.122778161445818
0.126191100037085
0.122499576020515
0.124847544766017
0.124870938641328
0.126289251207748
0.123223963605851
0.124532702115008
0.122266851491593
0.123315364325025
0.123789186368355
0.12572778860301
0.123030292008929
0.124101311819745
0.124089838280772
0.124957276088616
0.120965480212701
0.123699105842061
0.122297044765036
0.121484160962459
0.119776237397359
0.122253529913717
0.121209273963901
0.120278692765234
0.118835262466337
0.119044235971932
0.115322524812539
0.119886181286303
0.11792157963047
0.119625340459948
0.116692214483048
0.12137962293228
0.117757045320497
0.121028328716082
0.11775040645878
0.12071032368386
0.11966940848324
0.119044476224444
0.116499575077428
0.120655672513959
0.1162753959381
0.119316930071782
0.119311237781109
0.120430744705079
0.116448852620821
0.119196090287566
0.11611128339471
0.118102583826117
0.115118807980024
0.118648051525957
0.117205512670337
0.118559613922685
0.118604237096364
0.119104394612885
0.116016614849534
0.117366224143277
0.111499248226706
0.114194045253248
0.115095574437507
0.116756344194144
0.115751832465466
0.118990904139446
0.114768701380901
0.117188978571595
0.114421840166209
0.115923192630444
0.113588936178282
0.11574334007643
0.115515578114539
0.116729510412565
0.1136250051702
0.116915282463986
0.115176407203401
0.115863571872906
0.11225507073266
0.116997000387292
0.112515030898588
0.114881323969045
0.11155375465268
0.115292246184334
0.112425147501878
0.11589765170484
0.11342611015313
0.113898910067713
0.113711111959284
0.11348715680474
0.11093547430471
0.116592091260265
0.113180339347967
0.116067835849896
0.112223137850605
0.112577676578375
0.10889589264407
0.116540673453573
0.113775008964617
0.113127337367035
0.11413739262012
0.115616290012648
0.110313365801206
0.113801351747013
0.110391144466327
0.112059742355363
0.110606983192916
0.114960781386603
0.112008985810325
0.112263724616286
0.11137665173946
0.112479227702235
0.112387102640969
0.112670043335195
0.110455603882506
0.112153723051137
0.108636701198357
0.108476175359797
0.106645525799235
0.109644666924531
0.106822617608559
0.112422605542911
0.11178601759752
0.114465764021518
0.107465690006086
0.110767408059902
0.109645346951754
0.111008836402411
0.109221817771379
0.109836794891958
0.105812616487043
0.108180322632109
0.106289549690366
0.108945177318688
0.105543815409432
0.106421455677956
0.105753221025178
0.107245553668969
0.104021700176844
0.10455792155008
0.105251671393255
0.102693871511349
0.104194551469716
0.106407500213088
0.102351355660572
0.106308980391304
0.101774737191783
0.103651459926033
0.102858029464652
0.102918175635391
0.101954201826269
0.106995242230226
0.102406337433529
0.105748147798005
0.0969917795525741
0.101849667797378
0.0973889752689294
0.10274085169741
0.0977906538315637
0.0997007008537277
0.0975448220468601
0.101342656797482
0.0967740089115714
0.0986024637583544
0.0950787453591124
0.0993492586607963
0.0967079844537639
0.0983864303016224
0.0960109977698108
0.0994753170883826
0.0944505844338527
0.0974838748096808
0.0932648788439488
0.0992601811973545
0.095473500699124
0.0973356809844368
0.0941242327947521
0.09576421959482
0.0991304625803592
0.102642981339133
0.09562492890665
0.0938505063273986
0.0953529292001218
0.0978728835970324
0.0944307394424405
0.0960832733262802
0.0933590665788959
0.096002703712107
0.0922301252558591
0.0954223881627096
0.092244879708452
0.0934856423147781
0.090605279555611
0.0933399600770457
0.0937785177324645
0.0939174417285976
0.0896931713535928
0.093465779761669
0.0911312770500862
0.0925965824540906
0.088771934166832
0.0923259807309663
0.0906030613596093
0.0915169386021857
0.0911401771251175
0.0954410619989237
0.0948888188719619
0.0920378162144872
0.0900057832308703
0.0900564950757682
0.0870038246231593
0.0886452680735815
0.0903422147306525
0.0897987695328123
0.0881130287031864
0.0886533264560546
0.0860279045314627
0.0900297203700071
0.0878496598013967
0.0895958080122965
0.0874438002187066
0.0907129528660513
0.0857610561477881
0.0882491758536445
0.0861968173439019
0.0892999017885551
0.083347243648998
0.0868428980819693
0.0874911449965825
0.0888791281192168
0.0848107496090301
0.0918474265958399
0.0972145637611549
0.0918424669815638
0.0832679410489971
0.0900629404614693
0.0839555028560126
0.0880970990176426
0.0828878057846385
0.0860876037004689
0.0844390097506749
0.0898421066132403
0.0833578836775652
0.0874552541285153
0.0839209821856362
0.0895401562132099
0.0839109932947236
0.0854665458641037
0.0809212673424193
0.0866512106166051
0.0798956113728464
0.0850623103656071
0.0864201283956673
0.0963638553207408
0.0878898544735065
0.0863754470650036
0.0812100548726124
0.089112173625572
0.0926172770389023
0.0960213541176509
0.0820393862077228
0.0881611295796391
0.0810984143616558
0.0835768105635481
0.0778787782254471
0.086796078140163
0.0832303520309388
0.0884800097029924
0.084450772584968
0.0878310546949299
0.0847427103814732
0.0830640518607639
0.0812656552498856
0.0849428152025995
0.081206224677119
0.0835197320994753
0.0803933799921647
0.0823505882315279
0.079981641286616
0.0866236085681289
0.0801725516727731
0.0825306909096441
0.0824337290663181
0.0885319010275302
0.0816842308091322
0.0850588940032257
0.0798420684858219
0.0818882945322449
0.0859751248568669
0.0942911205010765
0.0852037029037592
0.0817978815038891
0.0816596566045411
0.0828509482392925
0.0834242529911679
0.0837865528323971
0.079600636548901
0.0831348977140662
0.0791094968349024
0.080377929554551
0.0789772886895275
0.0825747885758357
0.0768407421558288
0.0806712602760486
0.0793809744251325
0.0830319361093514
0.0810548586186199
0.0825999747939041
0.0798052095858682
0.0865450445004376
0.0865684624591748
0.10476217584444
0.0948989236383036
0.095190832675014
0.0837672192712499
0.0821955547370591
0.0795762903639679
0.0812753464664462
0.0811385119820949
0.0855299889533617
0.0790266075406813
0.0791710303359725
0.0816569270173726
0.0804477451294273
0.0770264897628117
0.0827183954257641
0.0805817621384141
0.0820601786957234
0.0787634578479543
0.0816314863262982
0.0788302363411331
0.0796243050042516
0.0799213185091058
0.0878036167528316
0.0861961532006829
0.0812088393063319
0.0869528065237232
0.10333040127407
0.102133786199754
0.0871023571349729
0.0830383469429503
0.0845201153165969
0.0801874117024399
0.0833515732264618
0.0824194089473297
0.0861888415480781
0.0785786815555583
0.0829841791227399
0.0802443702226675
0.0867163822876996
0.0819324800316798
0.084077539943492
0.0899174325298474
0.109068199347498
0.0935342308486098
0.0850089821141513
0.0808397604241961
0.0975732707522069
0.0976604393600444
0.0912720692627269
0.0839418667987095
0.091686014521319
0.0827476363425644
0.0850831745806797
0.0803269439062534
0.0848332153231397
0.0855042696101665
0.0871634479594813
0.0801267652840213
0.0831165302152466
0.0825091838724856
0.0862057678332675
0.084694855182847
0.099359500404077
0.0917036403991925
0.0878521995268044
0.0867200565504947
0.0896869064596484
0.081741748320293
0.0868624845586452
0.0840674182449001
0.0863812756333437
0.0951241710581749
0.100769886630483
0.0913570372466098
0.101857964540423
0.0942856688845949
0.087565252977572
0.0864184993705008
0.099370995310172
0.09005804366968
0.084934676179759
0.0967138432012881
0.11355624983427
0.109506116052731
0.10280148141537
0.0931512135211448
0.0893517462756131
0.0922916907832028
0.084090519728836
0.0924303504219569
0.102154561118577
0.0952696648461991
0.0887186293321898
0.0896415542024644
0.100845410945164
0.100168384381712
0.0960490024648145
0.0921791668951174
0.0935582276055519
0.0937505647201527
0.105732954660505
0.0941448854298165
0.0972221933809037
0.112250265842183
0.132151438986533
0.112727349383921
0.100783215094762
0.0971643674025549
0.123506506698949
0.101622881623016
0.0937977837561407
0.0944399779675723
0.09533150838477
0.0937576540460934
0.103977050843037
0.115297840648971
0.106046971302127
0.0959474027160337
0.104199011376847
0.0989648189266893
0.115123550583731
0.107922902056448
0.10192863057761
0.101941030166415
0.105022902411865
0.104540146999977
0.143525396883216
0.122270882369053
0.123744827299754
0.129225461263193
0.128881416836212
0.120044198848165
0.120579495264239
0.109848543459446
0.128887178525617
0.128345298987311
0.119419037131198
0.106571285941997
0.139104458552978
0.135175228400596
0.124216090711796
0.117880151005258
0.122676212934984
0.116284757317125
0.169734265704595
0.175543153543864
0.152748187763508
0.125001355988061
0.137842287853146
0.151871040992873
0.136878240500415
0.129102001854471
0.129601547599477
0.128494553173769
0.131954008505131
0.13198705679892
0.147387590846531
0.138297984348021
0.14375513133448
0.13600280116717
0.143956172129142
0.163194742100524
0.197675049214965
0.178814711660088
0.163744809152725
0.18070477224732
0.184861622659727
0.159029331615521
0.15800352191258
0.151671269204421
0.16772980490526
0.160605409597691
0.162373087073732
0.160049635912993
0.192991797622415
0.181201783362182
0.183677404557224
0.185920282972757
0.180802109254917
0.175515843258071
0.208301146939639
0.296858687994079
0.226127724452844
0.198514944184123
0.209346858821216
0.217264574520401
0.275297686549622
0.22980874343338
0.220571326355577
0.220920693116282
0.229099964189066
0.236741743035424
0.253873787238488
0.253099101600803
0.271578335497685
0.259160469790716
0.266348824846277
0.272009455434906
0.358614871526034
0.331490382132713
0.311747048654392
0.299212296704938
0.322561815728411
0.323054415281876
0.319662709699473
0.317739424394779
0.328840628756063
0.341221185831945
0.400181359211502
0.361653893735223
0.361921861036959
0.374984797997585
0.404542831370411
0.375811620330159
0.432308354367049
0.432950336181131
0.409642362135246
0.40961183171915
0.426823627041149
0.425493757034199
0.438921950659459
0.468267668406956
0.472594317830431
0.455254843123038
0.468069904700645
0.462000645720974
0.47565648500175
0.478328774865954
0.489330840760725
0.491383899775622
0.541961786123602
0.536808263705112
0.719722768316137
0.540671137212481
0.512301881458124
0.507590316807688
0.510607260323362
0.538158781571775
0.543517746155893
0.551521703653271
0.551222381352653
0.508462163221735
0.52408816392402
0.522911244982595
0.534951808680376
0.523734755846553
0.533700966393891
0.523485865301671
0.557458746684781
0.519985973258286
0.599801894861626
0.608163091696069
0.555001934199063
0.527763553060618
0.53168248816631
0.524344017850032
0.537077593092189
0.518331332352523
0.545167752435883
0.545567501700703
0.528786656150815
0.508471255528085
0.506166358941205
0.541089388861433
0.544648678594653
0.501226812640953
0.510361001408395
0.483635396675273
0.495109294426897
0.47234075381722
0.512223122169435
0.53549671441192
0.490098536508823
0.477899037999545
0.481603419276706
0.464977686853108
0.468992149194452
0.462290802312289
0.472355226420199
0.46506456901291
0.469013871743464
0.461103672888444
0.460728557134292
0.451927221998359
0.45923385284065
0.451921315336987
0.460833854536664
0.453901524927558
0.460688616361473
0.4469659855771
0.458398855042149
0.449619328039389
0.459982065237679
0.453439150354206
0.461897055342948
0.460553420273089
0.452240762154142
0.453148966735595
0.454902043924469
0.454701805348186
0.456392901821561
0.451286772138717
0.459535754486413
0.441178801036565
0.459161548377696
0.450726355890005
0.456501047948618
0.44796875606627
0.454945293580551
0.449477807099582
0.451156235959151
0.443474306334333
0.462076090512579
0.443225207083542
0.520935663384965
0.474654843415552
0.440607153865353
0.442641523986081
0.441359982777809
0.435138888999461
0.435097320010735
0.476178451601985
0.455520002178998
0.427999599190582
0.4256337023061
0.420731865550392
0.435829093169881
0.424672818894844
0.41838637390827
0.416247115049979
0.405312211023144
0.451276632605992
0.487293002766415
0.478837582266986
0.491307845481859
0.409137020190555
0.395767360223273
0.412256124671575
0.442084452239696
0.393666232000948
0.39384427491969
0.381519064976896
0.43949616586025
0.403830277902145
0.384055078673826
0.379925569858379
0.37638018195497
0.400602815133
0.417073576100261
0.383575138219639
0.401118445282918
0.418219828424138
0.402438478581569
0.434477911200689
0.435703848535644
0.394200741824149
0.356466290465055
0.357522518707093
0.35430442953899
0.35409416827242
0.412330908180085
0.355164616005498
0.368321923888853
0.331867027064269
0.337204361342606
0.333523802762149
0.359018191502186
0.343878117841272
0.344750029391979
0.37322745394736
0.319577059252296
0.340890290106887
0.347352150730799
0.367201556704392
0.380455938339519
0.324950693819279
0.317439612085017
0.358334562959655
0.368016377231741
0.318394327427486
0.326636841688531
0.295008227759085
0.310746098118496
0.320595976309012
0.303334905446124
0.315317046406085
0.322777145779424
0.3160618091178
0.363229922399386
0.36989552080465
0.350490142602823
0.290550841761309
0.280838512543489
0.283002332540185
0.28548421008837
0.280655654420296
0.277034705182008
0.311897038480872
0.292295532193651
0.27488573676178
0.347176460252385
0.286730505027995
0.284821831383868
0.283748807841185
0.287548061566483
0.293471242437865
0.323091325365973
0.338863644729738
0.312852789065555
0.307643309768968
0.335922913138034
0.302246161760662
0.31041571939639
0.307102901177414
0.314125230140639
0.315677024964047
0.339606619178006
0.327900998435977
0.334255447527911
0.331262201545018
0.349678141010719
0.367306336060698
0.393628527848399
0.348047579956376
0.413931231199672
0.390154753594881
0.456808597462272
0.400091624676457
0.401073097336243
0.400259417997286
0.407962920581983
0.412539851217658
0.415205137191588
0.428695523606003
0.466798303096737
0.431927422205149
0.441771967563337
0.435327038175553
0.455422177241518
0.447900791782198
0.50021578228826
0.475071904124373
0.544075813148345
0.516427890421214
0.495945680273925
0.478668821140446
0.470172005042621
0.490932469796078
0.489798155439442
0.476867067172894
0.488343009204788
0.47964188291743
0.529156389138893
0.487794711369731
0.502978495454186
0.501871346518063
0.504996668004031
0.498263120081839
0.50707972895345
0.510330228159278
0.513174348135252
0.516449280885471
0.523705706960982
0.506405956532385
0.617914511017789
0.539084397441876
0.534332685396382
0.536009389741794
0.550114411857653
0.540972012614656
0.535559750012009
0.570576379922689
0.565442334802418
0.557921494021381
0.568133891160056
0.563860274250983
0.580130106336445
0.587269602675985
0.606463313958536
0.565238770046031
0.597717702149867
0.575670082409691
0.633025558819773
0.648821667747559
0.619539545451591
0.614784577429861
0.604537750252709
0.613158393646939
0.605736367476226
0.609665955149619
0.60998339927026
0.620766015969216
0.613997653726709
0.615818484429904
0.622312270744388
0.615223550356659
0.618910280055392
0.612243008374114
0.64920373996464
0.620142815790516
0.614658435874512
0.604441746586127
0.618473273730552
0.604482193787889
0.641626262719854
0.635484080363084
0.618011668584542
0.621583855588633
0.626196997455628
0.635265290052678
0.63895802732038
0.606054228246338
0.62159473242454
0.606849664434157
0.619022861015886
0.610845726158308
0.642791536308164
0.653131884666745
0.630005121076183
0.630821486122231
0.619037998420622
0.624135581781973
0.630660294995867
0.642420854091538
0.635243555369836
0.635600533716542
0.642296456993524
0.645238841055484
0.641708626340284
0.640882363939653
0.658981329108217
0.667230095137867
0.664598735619073
0.638493034010535
0.642494008569839
0.637099796752696
0.634330184623304
0.647184583949511
0.636863695319881
0.624261991673247
0.63019965053728
0.620127514441463
0.619098390805952
0.649776312771614
0.60428021477878
0.609482911312102
0.610544580751662
0.591954415543936
0.599891981777811
0.590032086179973
0.586093045184241
0.575736585917998
0.595542719142085
0.580148584859389
0.579396623530315
0.570547850570764
0.56787147130543
0.567702194865172
0.574293261277726
0.570599517679199
0.567788477164598
0.56772628058725
0.565171223409633
0.563932114417333
0.558406063594208
0.563243910187719
0.55783042338207
0.573002040241986
0.578479934851386
0.568171844122363
0.570937695694988
0.561765410898463
0.568021355298521
0.556478348261144
0.562702086663543
0.556087941436554
0.564305058350208
0.555026016661614
0.564137076982496
0.55878747860437
0.558204309691189
0.551915599095009
0.554476114312426
0.55105088880888
0.56337996119334
0.549448923367518
0.557315513839957
0.542569696792565
0.560397721068226
0.55091562485276
0.565409011340144
0.556019597886022
0.560677914692791
0.559569915138067
0.549138630826024
0.5567905809073
0.556522843368544
0.559164648212712
0.561254225702137
0.548709699602127
0.548056390071952
0.550965781761599
0.554342840944045
0.549305271341476
0.557305459277719
0.549671011480831
0.550501521874066
0.538872736654406
0.545355961488609
0.538525970384768
0.536243895070099
0.532422618813488
0.532850716852673
0.526357688932519
0.525568760581666
0.51731174609657
0.516494740144648
0.507550020308104
0.51056838665563
0.502615687771783
0.502079459759161
0.499282235328014
0.495620967735071
0.492586267416348
0.495477585899633
0.486308979275498
0.491159842873023
0.487184728559768
0.489467866761523
0.48158103819357
0.485081259842141
0.481061000909821
0.480312943820029
0.482784847172563
0.488875273026934
0.483732303020414
0.483849618033522
0.485502929475071
0.483878249714876
0.487098542579263
0.492405912521329
0.491488047017034
0.49172746772196
0.491545761322038
0.495469387620585
0.493077170540702
0.497868156258595
0.500429046599514
0.50488475056954
0.504039634722857
0.503238075262034
0.50333089904517
0.507092460872145
0.509495859182231
0.510194916240689
0.509534083687471
0.512130089452916
0.509402515083408
0.510114402877432
0.511409581574889
0.507595136813312
0.510237836215859
0.508636553205116
0.507411692659522
0.503801867866433
0.501196582711824
0.506194060911952
0.502200218107074
0.499478583908748
0.498636242419905
0.501309925053706
0.495211163822099
0.493671676548778
0.488001943981444
0.489513962725924
0.487507063011393
0.485795502639044
0.484247780587147
0.483734066941175
0.480990989872827
0.485764698951694
0.480626471138147
0.481632462144002
0.47732219650327
0.472618523045242
0.472460756907241
0.473253734425152
0.472050366842123
0.469828921883711
0.468632319954773
0.469595988675669
0.468822112783784
0.466496094204575
0.463177817994471
0.458794694999533
0.461666700757648
0.458275039797095
0.455969888028359
0.451658700183905
0.448548122282269
0.446149930970184
0.447412305295148
0.438840250702506
0.435048085132019
0.432214330932488
0.431964887922837
0.429768442954728
0.424238927827543
0.424161274229244
0.420280137797852
0.415192467740534
0.415074940494534
0.414512361795252
0.410250397655736
0.411948321668763
0.40741558321226
0.410000053825362
0.407151230464171
0.408009010603857
0.40183499020086
0.402365543175193
0.399126991041645
0.397325743599846
0.393398099794472
0.388225146924505
0.384786092263287
0.379001250914388
0.37675978900731
0.370540808163357
0.362824267972277
0.360970108745399
0.359708494654971
0.357916664608717
0.356163903685204
0.358378029880548
0.358299059430145
0.363694230692129
0.365384848051535
0.368365440867516
0.378178389875385
0.388160906528481
0.397156570240458
0.409914588535144
0.419403004224391
0.439536703713669
0.452952454836723
0.466957165744073
0.479725287166315
0.49786476000231
0.509172802246073
0.528421756645499
0.54427475163057
0.562929307790205
0.575827083276624
0.590549090500712
0.598272997596357
0.621439291788485
0.633232031376026
0.646214260411975
0.663418983716362
0.679553556712377
0.690518291871587
0.70048900214896
0.710272277007824
0.721602540343085
0.728462508289541
0.740461985550345
0.749296611904469
0.754532733760891
0.757989482653722
0.766959414105522
0.768496275844166
0.775426729721835
0.773028888138812
0.776324769015376
0.770685688521367
0.777081064999338
0.78485286306524
0.773643356893347
0.773287676774798
0.776930745013382
0.77810874560855
0.787382367003037
0.779690271925999
0.788926506309474
0.781533074110874
0.78982730094271
0.797033085666456
0.800557081411245
0.808864043286809
0.820300230453595
0.824570509235132
0.831510255067087
0.833329119750632
0.843482717920651
0.851151995018425
0.85419954352848
0.869030051092855
0.882924550239466
0.888761629765911
0.905276401760982
0.918098437438117
0.928368724940481
0.944627392520883
0.939928691481517
0.958228150262337
0.966882743371501
0.961792690777015
0.977963755626832
0.987221478645491
0.984012163476652
0.980106351293947
0.983784246486939
0.978769954858781
0.974894787136612
0.97151713124605
0.968678945559746
0.964259768411405
0.951986738880521
0.974347006997931
0.961952005722402
0.970201190782078
0.987334199552017
1.01016589760377
1.00320965732311
1.01483861133294
1.03275250711588
1.03697581585662
1.05748363113465
1.0669841960929
1.08296381904413
1.08223159855564
1.10060129240413
1.13627821512191
1.15663331761183
1.14508313625292
1.17140849796084
1.18502657955062
1.20135581060492
1.21245087024197
1.23136979468818
1.25550108552567
1.28014781820273
1.31141496422559
1.30014117456049
1.35819361753814
1.37846674031968
1.41299871264919
1.40975840422096
1.41278765356962
1.43949812070992
1.47369298595955
1.46500645288488
1.53568757489728
1.52264929750479
1.54470701135408
1.55267483853547
1.57173123833053
1.59912193349945
1.61822507316956
1.56114044808592
1.60037085733083
1.55456716069176
1.59327337252503
1.63961735268569
1.64866838401493
1.63288858124985
1.60507342031052
1.55624793379899
1.62630160582282
1.59185234509118
1.54527198950462
1.60133424472329
1.61581291337325
1.6318430747264
1.62624533196876
1.54570675396331
1.64799465839839
1.67295277216672
1.61030450158355
1.67075246677947
1.73746050556316
1.70064756990336
1.74218173594089
1.77222791958162
1.82028291791246
1.8242172238296
1.73914606309346
1.76724942822454
1.83737998040152
1.89439339877129
1.79015134996125
1.82654454497099
1.95962944945585
1.85449763405993
1.82562499130746
1.82286446250208
1.95926208539505
1.79377239491138
1.93106359378085
1.92783908846826
1.97004192475387
1.85651408514372
1.99094530684891
2.02858843317861
1.86658729476734
1.92687408301564
1.90113054222345
1.90553006875984
2.12958357825321
1.80987673653204
1.87697322011535
2.05930595032946
1.96258323355881
2.09853739934593
2.34456040008032
2.03067919999619
1.91948234073588
1.87617634168619
1.9937632356911
1.91598339663029
1.80846079957945
1.77171215877816
1.83791736318173
1.64491241895702
1.62299344886627
1.62777842567342
1.60197100228335
1.57272921588531
1.53996325247836
1.53387470690729
1.50439534039553
1.47923904628574
1.57545739350121
1.47722383586091
1.45383068742083
1.40529018793595
1.44189981762473
1.37273917553488
1.41153384048555
1.40408748439027
1.38832955462569
1.39108558728589
1.3968709163966
1.35075985132733
1.35332736493672
1.33868329225467
1.30738567415233
1.30435593952369
1.2863999290737
1.28819312526448
1.28582346632398
1.23098255475688
1.22966941547697
1.16697498519373
1.13838496034049
1.10931878181362
1.0607767451793
1.02405072586561
1.02118154273273
0.963392369849461
0.929114498318756
0.884950665624393
0.85762857677031
0.816537712550058
0.791613408928163
0.761886639310676
0.730282877416477
0.709991937887666
0.686768800742456
0.660531496531971
0.64655690065825
0.631391749460288
0.624677655563798
0.607086561605134
0.597227343911524
0.583933248954575
0.582345978580518
0.567402589444785
0.566495679495125
0.562311943438775
0.568574155600967
0.55663679534966
0.561354176504916
0.554992208596255
0.559256838550195
0.561945371720219
0.558893313229746
0.556433261114629
0.560928870927518
0.553104805922505
0.561790852155878
0.553027728328266
0.549366784269141
0.550956689972681
0.542720653245523
0.540488219398951
0.538035843660557
0.526902112907171
0.534489916698879
0.529271196673158
0.526277243950467
0.514760573578427
0.516952428900149
0.51377767644899
0.51131217332744
0.509666474644592
0.514201051030821
0.516987943278776
0.515867377309129
0.517203882158084
0.527812559149117
0.51791387679029
0.523949385821122
0.526649299084202
0.53209471540819
0.525706179670224
0.539323888760656
0.529660269146147
0.539446705423915
0.545454799534129
0.540850194261874
0.540302065361741
0.55678336240061
0.556093579635549
0.541144073731583
0.545263155864679
0.545666243681123
0.547599941146991
0.55499892869531
0.548794716548147
0.551901232594471
0.551516098974088
0.560908210575048
0.564902118357118
0.567048445972786
0.57423323147845
0.569724237097475
0.585114170457787
0.606999844901437
0.61267926315167
0.637926691090452
0.651079754556466
0.656836785681265
0.662809908996847
0.688124709180931
0.681014354934447
0.707917538128893
0.700555997263045
0.697679598323457
0.705817317315102
0.694385853692099
0.680804968331852
0.693373741768976
0.667799715333384
0.655996749741602
0.650795080580738
0.64902256290882
0.632738955758463
0.626176753193198
0.625101491496652
0.646394956048243
0.634753573832005
0.630010761433715
0.634352944118725
0.638095545393411
0.636182367750457
0.649291613590279
0.646460656008334
0.640501965935379
0.627218817254853
0.633936471982392
0.620202131982555
0.620107514280497
0.607697024068294
0.603263371467036
0.603923644304053
0.596687360355943
0.598942869786292
0.592669027379146
0.582034979858662
0.593228458121696
0.58230908859981
0.580065532991311
0.582877926670633
0.57544180470132
0.568423153077573
0.567861234479133
0.568097410226653
0.57624338274467
0.575601241809014
0.570494616644984
0.556004508840553
0.566073756206971
0.54612424412376
0.548090791217763
0.55013586293822
0.562713708697796
0.557749760875414
0.556662382143417
0.53437942796951
0.541320019962425
0.538989151807548
0.535059567658686
0.539381997724206
0.531688923466372
0.535844119295912
0.52141808712822
0.514604414277454
0.528708263305096
0.523573163709347
0.511049420482359
0.512108436624103
0.527360927601836
0.503010961633634
0.497309492787517
0.510102130266104
0.523633818044445
0.500979042355293
0.505209438416097
0.511946376327633
0.514249530683378
0.511998465781085
0.518398851623125
0.514014886697726
0.519288786761017
0.513671653831621
0.523417751299916
0.508951825461357
0.519004244170578
0.519184091314636
0.510195185615743
0.534338185293935
0.536531322996207
0.523491423977725
0.535180201193223
0.537868389589125
0.56151685974822
0.550341269158711
0.545791646872966
0.552355530244774
0.560442665942235
0.567251062742453
0.572462039584163
0.579668460743784
0.582769848014485
0.580736151982624
0.58816379670343
0.597255637190174
0.599813202499374
0.61445200626027
0.618208052782207
0.624948669462002
0.667008472635346
0.662580447317634
0.7079732602073
0.729528903870375
0.711501942397042
0.730532482441504
0.792318146064863
0.780126562317725
0.785603729540831
0.809185977318933
0.822782062674166
0.824343514216232
0.857723908287718
0.810467747329726
0.82433584843458
0.783312893695135
0.765779578258005
0.825796197878101
0.857589976984308
0.814099782286087
0.787130669033472
0.805460747566637
0.855483766096084
0.776596172983028
0.840850792417417
0.83861993094334
0.810911093927661
0.84689409674988
0.842743020815824
0.785334383449247
0.799715065821555
0.809473470243756
0.749095351197747
0.766354700678777
0.823431008993461
0.80460332479477
0.752764382358719
0.749930459543449
0.822457222537055
0.753004118104051
0.76128978738947
0.807341757197329
0.815775555001796
0.76158859762337
0.763692863275593
0.761530131474673
0.771353397132227
0.746399752238615
0.769507204071982
0.821523825514194
0.772762037825745
0.753190261556806
0.748089567079168
0.731930547344887
0.749066086890285
0.793878616266437
0.806161778307446
0.786275976768851
0.758371891134043
0.760100238759232
0.765777619326177
0.765633964962719
0.750607659729501
0.726289294005643
0.752590473892797
0.745565594288232
0.867349072039419
0.827965361046399
0.78370743356277
0.80744990668689
0.887739529224502
0.893976798172657
0.82061001012975
0.826906283656739
0.824963746735098
0.807547660337336
0.780725423106435
0.782858280467614
0.854593109226462
0.772862261310426
0.78083326196679
0.817873646840489
0.828501847719906
0.879962616461117
0.866695935842947
0.860370929159933
0.943237103959772
0.90066376594695
1.01721511945336
0.9183143714683
0.990674569678506
0.965511739358977
0.968708361415939
1.08003238216327
0.986638061575397
1.12662797344664
1.10928566713162
1.03031426482728
1.0608785321552
1.05206393172605
0.954908733395932
1.09766370076392
0.939892463864244
0.848632060057901
0.867744050366601
0.923692040854344
0.995133881349055
0.948740295538493
1.02494116034288
1.0130690596152
1.12079462037217
1.25786954344415
1.00369408542755
0.894754232760846
1.17207838616834
0.989743545844345
0.880589836872332
1.13063838896031
0.932347697030229
0.987158998168854
1.4709809089494
1.07738405554703
1.08273452056738
1.04617344887773
0.888013517776486
1.32724723501085
1.16660191608659
0.9342790236221
0.860295247285965
0.785528887103226
0.97641988563906
1.13549620643746
0.846447621369147
1.05117079538886
0.94242840951237
1.18573379104241
5
0.886379434684612
1.11668932914002
0.960277208042928
0.823468175428089
0.674722132611931
1.08308163792563
1.68964121589671
0.815107696134964
1.0492012340218
0.842779548778495
1.08343670057297
1.15970169250695
1.22129259618045
1.42481037411304
0.762347893010101
0.840672367594828
5
1.35580873622795
0.692620686871916
