3596
4000.36533379555
650.420452594757
1
2
2
0.105447023738751
0.117761062248031
0.0870380938964697
0.115679694806628
0.106617216595279
0.11389633452631
0.101755835772815
0.115190032591922
0.101812998130716
0.116244221643141
0.0980487808782273
0.115813207123706
0.0974983959740105
0.113506297270353
0.098632446343566
0.115521490447905
0.0969932677101129
0.107173829130891
0.0910398485240787
0.112272449861896
0.0909080429671277
0.118886204774674
0.0954932981426001
0.107287869479709
0.0939589444788814
0.1198972787128
0.099115083801674
0.104073494734184
0.0937057182717284
0.122842290819
0.100265382912475
0.115783281059681
0.10051776387308
0.106702337395306
0.0980563546794461
0.106225834919589
0.0987180257721058
0.112127250440195
0.0979248119064574
0.114473197163281
0.104059637332609
0.107864344071502
0.102627008947677
0.118769489404022
0.100417241351424
0.108528767337131
0.093155153064111
0.101473063400021
0.103662202306777
0.107477522416302
0.0951061980644889
0.111427396424253
0.105036995613441
0.133638626421962
0.0992943002445313
0.12156907756601
0.0978118318403213
0.1141698279417
0.0940852469885616
0.106110731312241
0.116896950414897
0.121696699390955
0.0944814404520946
0.120995125788008
0.091493322725923
0.109176004818282
0.0873166235055941
0.109417675993397
0.0888859943828558
0.117869608398808
0.0881288709546835
0.117085474562494
0.109248241082682
0.113675233307181
0.0948599950017392
0.111584341153605
0.089873857755806
0.108289105297693
0.0920822533447177
0.122134659851514
0.105608769323378
0.114063878575835
0.0940299804740798
0.104193263852694
0.0985387280442161
0.13010489475837
0.078219261280659
0.113746720134365
0.112383949612147
0.107075784156255
0.0904440025788781
0.104872453568675
0.0848544962921824
0.103355777061848
0.0855665417444414
0.106847418515947
0.0886504390549788
0.102947944916038
0.0908298774055472
0.111216818643786
0.109611871262318
0.115517258637492
0.142229244882139
0.0882329176374829
0.148369102057873
0.124053579705395
0.0831730451308854
0.159226506788704
0.0844749686631417
0.114395109244109
0.0865918663181704
0.109507067933373
0.0825290429152701
0.118815789583784
0.0731673564403666
0.127394206235258
0.120852663624648
0.112071840324481
0.0873909342293097
0.0978744572937215
0.0734392935741492
0.129576849117299
0.135633321677756
0.100721888063269
0.102635603941467
0.0979745506757326
0.0779572517310259
0.139960307676068
0.122920302344196
0.0962141354363472
0.0935373997436346
0.0903516207574025
0.0938809161838428
0.0924875768944655
0.12987843882639
0.108762155557584
0.0907748267309989
0.0916947082008017
0.105640143273271
0.159895916769432
0.0995950143824628
0.102202988298319
0.0755389109154932
0.114993619859483
0.128719734561182
0.109538957853817
0.0862250918966476
0.122249155553712
0.104453559856648
0.091092556548197
0.0876476543945192
0.0969952929925507
0.0959053232129315
0.104980954953529
0.0464774307983932
0.143790658994437
0.16583817615268
0.101830487170557
0.169798908976769
0.0928310030335435
0.105718528458327
0.092385717501382
0.0883150448891148
0.0939555764459565
0.0918389992719763
0.0884669001818499
0.0910305613985943
0.126135899657907
0.0877025706175512
0.106308180962497
0.109158599527938
0.1089517547033
0.0771090430357666
0.163908572881372
0.0978340157632179
0.0924702470381761
0.118973390446499
0.106566486767879
0.0844555420333723
0.100521086489241
0.118313372050024
0.0925559605618379
0.0978618230287753
0.0929504679002148
0.0921813800822421
0.116436844975942
0.0940700808587399
0.0979837972023897
0.0978243327840413
0.0746646018781228
0.103171824426214
0.143827981097193
0.123287515162097
0.0820070673294312
0.0947084799040967
0.0672319080950793
0.133042831639981
0.131488097211191
0.0767925538549111
0.0988822096881801
0.0801523830209014
0.0926266749456119
0.0846881767143283
0.0902617069348115
0.0850761177356804
0.0793756983389829
0.135615049227364
0.121607751668213
0.0906546023865987
0.0873173419381453
0.0965884420326522
0.0957934845379118
0.139242487596511
0.13452566284938
0.0922111677406642
0.0902829083123055
0.0830114453674246
0.121142644643703
0.102789483744139
0.0935440426805591
0.0906279568400683
0.0964583605369196
0.0898017649822995
0.0957283757348318
0.0828099406706473
0.102097474662769
0.0869463127286923
0.0921158854550548
0.0861635677642238
0.103898032363554
0.0991974999739049
0.100341025477111
0.091287906327703
0.0968444926957429
0.0760134393601225
0.106493160012657
0.109215630287131
0.0971764405086128
0.0901266888959006
0.0884434010589457
0.0901028478652838
0.0907501074602605
0.0940800134588159
0.0930186092109205
0.0929012219389555
0.0905415759270416
0.139200491622522
0.0988086468208906
0.0893739578185456
0.092809967762799
0.105972661110853
0.119518225776087
0.0914915022817493
0.102354977686795
0.0812094239572518
0.0921884367990174
0.0851604353795406
0.130132259781732
0.0948465275689941
0.0928040873929128
0.0966408822217825
0.114961253628188
0.0852940879366366
0.106058525843059
0.0708181137163828
0.175805802301301
0.112143383157367
0.106186538410682
0.159477034249805
0.113760288080634
0.101792710307412
0.10835706967169
0.0525078652010857
0.22095061149362
0.143543706003199
0.108002640052701
0.0957729931443695
0.121255563455307
0.0894501085788318
0.107897340841775
0.105448454196801
0.104052221760578
0.133654875234896
0.130509365290872
0.154083720485657
0.0897287066391469
0.122634860221565
0.136739220694291
0.0949021902664156
0.113411375347211
0.094931149033566
0.109040040656317
0.11695930161495
0.129112142817604
0.106607225833789
0.115213759418907
0.0915137985875547
0.143231970415936
0.108901516180625
0.112627815640037
0.0976476873054018
0.123785217293951
0.0913734375049635
0.109045249398615
0.0999932077494987
0.113493747547237
0.100192823162267
0.115760047465531
0.148655937390999
0.126875516837849
0.104877233591303
0.144416685171574
0.100797045186561
0.109510498094454
0.0991430643907307
0.117984028249633
0.100097395013804
0.115622686388857
0.0986523199307607
0.143072181531631
0.107742085379487
0.11158312060237
0.106665631316486
0.109724935003722
0.108156434689604
0.115949418105049
0.109299041343017
0.108401961744143
0.105119433158191
0.116423535476988
0.127403980937494
0.147092374382691
0.089221970200684
0.148722963188928
0.152976832310204
0.115067054542054
0.115411440309864
0.114980306287209
0.1223962213707
0.114708056156652
0.116920240240038
0.120570630201717
0.132038912481353
0.142609053722065
0.134669215011995
0.135508754383682
0.132625352405874
0.192894089763483
0.189754483160554
0.154022625787625
0.130180002592792
0.116732996128367
0.153285164699029
0.184208593501209
0.135399568776557
0.176690901259188
0.127382523833735
0.145834367277404
0.130365389569722
0.153131408457632
0.138014964387439
0.156480145781668
0.143463130577858
0.153683724447801
0.144865754239544
0.16069163160708
0.154920148986668
0.162791067788194
0.198054764096256
0.172852342823457
0.14954211983345
0.16981186634077
0.15408288279528
0.19953829083598
0.199683413930091
0.206921907606967
0.214350549836608
0.191897284084429
0.228362341593931
0.190283841860425
0.187217637365937
0.185014083405511
0.193285180027001
0.19667755403698
0.192205931935305
0.199246102329805
0.197740088859674
0.205542883481119
0.206563305640139
0.204916181309808
0.20609658944296
0.217957787201818
0.23724730675284
0.220577425944987
0.217174052032222
0.233619971668499
0.231982812012509
0.282831767361432
0.261673815984627
0.247616916651575
0.232696396110442
0.259155646789498
0.229279289785015
0.253738354810273
0.245862908037537
0.270115401076053
0.250698064450255
0.299287157695152
0.287719019808435
0.287150994030176
0.282745331407018
0.266954978814561
0.289710680999555
0.289026426725998
0.286378903900876
0.324152931118082
0.290312296210726
0.291578204696045
0.315290069551226
0.326552698990718
0.296649644481214
0.329089548502698
0.296138217795316
0.317495634893177
0.303843706878485
0.327737462311851
0.326449710514922
0.346478565382981
0.337531103845644
0.338945006163446
0.343112170219427
0.351893314747789
0.342204073448655
0.375419927926423
0.347319726489435
0.359691589932136
0.368603398790819
0.360777866391445
0.370264207741756
0.376513371250385
0.39523056969418
0.42898633843154
0.399614667051215
0.423017200581241
0.39864526370052
0.417550446154011
0.401289312385713
0.406328414619245
0.409378612432373
0.446791094437726
0.429592210446191
0.434787427740708
0.426441384957863
0.44275688748322
0.445013975958921
0.436205870600782
0.448807408360443
0.451286807368248
0.434764107305291
0.465243932805343
0.459690401454406
0.484227335898154
0.50017990599677
0.524389027805496
0.486501080342247
0.515991751481617
0.469292546548489
0.505373323199287
0.483429029964091
0.504197998585101
0.527420882876547
0.537703277947816
0.527165697516111
0.538230622759297
0.518306349356948
0.533675393876109
0.525547049459099
0.547730044736826
0.551817423657799
0.542256639888007
0.557506705581486
0.585101089622769
0.570743693619242
0.584359400288079
0.582934003614896
0.618920450656281
0.585090526218591
0.592385399120494
0.636478735556439
0.621975216719335
0.589793884396676
0.629812319210566
0.615139068207147
0.62289783530987
0.615679892572293
0.619722630138702
0.649919406902132
0.681764982346382
0.669103121590949
0.648503820021626
0.652946680492504
0.682768279831947
0.677899454414983
0.71516712938961
0.712452287541164
0.675278546792301
0.680154585629978
0.72953258348904
0.721553966868028
0.702205972655839
0.684039483782935
0.734485305727408
0.737697561072399
0.74524488831587
0.738628849457495
0.763396205222101
0.745212454574841
0.740496581511679
0.762126351887105
0.811525449945995
0.766130235258166
0.764112261851688
0.783923922932725
0.801337042914865
0.810668145462332
0.800223755128277
0.815110236327263
0.852823181838864
0.817857826663351
0.823632005539399
0.834913205716186
0.822606801792746
0.816614211865064
0.862735038876836
0.836020553171544
0.86956272238353
0.874853340189596
0.860853029452302
0.864856084235307
0.885805261017822
0.892722643371426
0.907374650218457
0.952582080368295
0.927931923821539
0.917241710811959
0.896663990287453
0.933861448280021
0.973567268507075
0.914241004821923
0.936643177223942
0.935226582911783
0.950598827314592
0.997559567899755
1.01469236485992
1.03809292240395
1.02348454014384
0.93341240537139
0.926227668084815
0.963452936438014
1.0013628738009
1.01316799882944
0.976765030750127
1.00521473274731
1.03028704009298
1.02342446087503
1.05215432924575
1.08325398047777
1.02280990841462
1.00386451239602
1.06741753094897
1.04907178090014
1.02001908857678
1.02328137200779
1.03725160294686
1.16405270062172
1.12048708523506
1.04957321409692
1.09579179902517
1.10417406614776
1.11180628502337
1.1743123489188
1.12205342349104
1.09194379245311
1.02561799858661
1.10581384865554
1.1602022390465
1.13194274732148
1.19166828920742
1.15545000691595
1.15457802279205
1.20042304239016
1.13768970264875
1.269334368076
1.24083525169311
1.17110371517624
1.25279642330698
1.203187549788
1.21411436100253
1.16155980729813
1.16575045265601
1.27904578417697
1.20341268048919
1.21663044175916
1.21073712697863
1.21679064547405
1.22019995759456
1.2254052589917
1.19466279536356
1.23919007055249
1.21155020244301
1.19289917825625
1.27360421034098
1.42516209841224
1.35206976391811
1.3767989317461
1.38874497057611
1.28582073809303
1.28484977550208
1.36607677848767
1.20787024415813
1.26574657649158
1.404362909408
1.33677553486153
1.34724006042525
1.43636909844747
1.32030867921006
1.45582097874219
1.52546256043299
1.29576794737049
1.44141466404964
1.6690537377753
1.36590309699938
1.51927576084751
1.43753774720628
1.44915739829779
1.44711857284737
1.27700433110776
1.49386006353143
1.41650423810523
1.3414891922006
1.40451713423636
1.33773878574531
1.5307022074882
1.37327695389735
1.41400961948976
1.43935066577038
1.4162355050243
1.43409849937109
1.57657038430386
1.40548328158059
1.32073444515783
1.36086141781796
1.50111892153207
1.47300073426041
1.61632344376499
1.45803030511567
1.47283095443462
1.49943519742357
1.53030188198362
1.38814315544164
1.54928840556158
1.52374192778083
1.49356844224736
1.47821427070166
1.51085449355767
1.59087844872274
1.69215034087348
1.63720508302716
1.8261243230282
1.43161986722873
1.4399564351943
1.4470734126786
1.52386888977371
1.45184285595965
1.44932869364889
1.51369329617265
1.62901097830481
1.42049856499641
1.47160388200659
1.57501259369812
1.77237030612275
1.52884910875607
1.43505582621917
1.53336294911175
1.56429165214936
1.56809791039465
1.53192153310248
1.53275566382443
1.57897858395108
1.53441121404892
1.66126996246246
1.64678737896421
1.73848753743315
1.42424088913896
1.56965507411326
1.53359415364719
1.46748275651133
1.68797552889547
1.76990865906727
1.63607612653761
1.7562034285497
1.68759002848824
1.84230253955885
1.68238628654667
1.91937639783222
1.52969561112954
1.64151209700513
1.6257271167793
1.59619655945975
1.73375862295116
2.56246657875549
1.53199441860672
1.60407405655115
1.56354329298041
1.62040818592809
1.54338699832141
1.70356076811528
1.59675893419568
1.83500724244005
1.6556136260837
1.70319179132789
1.60220952525998
1.69928577820482
1.70435845932168
1.62350112093967
1.7513996722203
1.5516697937159
1.63793199013327
2.12522559651997
1.56343218031461
1.45352886624155
1.53690406518178
1.77528822027323
1.7046363842977
1.85453683896232
1.82745017016638
1.66376230108996
1.66123005343495
1.72791642190756
1.78374830738207
1.56324596178397
1.42587137720844
1.65318871521848
1.61481300959926
1.81713731269177
1.7664818576676
1.79011688641051
1.84914631651825
1.68792141476644
1.48598066780759
1.60312130492496
1.56219358927274
1.58505599434139
1.66108391339587
1.74844116274836
1.67226621843864
1.54332799739841
1.74184690684009
1.81186147962887
1.64527620324656
1.75099691400916
1.57825080627059
1.56186468941195
1.52421063873165
1.7391658309883
1.82168673753639
1.8990772602763
1.78170810473148
1.63737525554191
1.60731241584124
1.5683517335244
1.5148616544835
1.59246263589643
1.50453812133968
1.55304236284392
1.74888224309096
1.80729680972352
1.63253481960405
1.9624653369069
1.72134040416616
1.64044142262503
1.69767746110187
1.79034129453815
1.72730060997009
1.93232753502446
1.55161896527871
1.60070793290516
1.62548093384673
1.85583359925569
1.59718264510204
1.6464194073378
1.66982887684272
1.686722211988
1.56213170222141
1.62715078547368
1.66084578866659
2.03325275225442
2.02547699159538
1.60157500584911
1.55048150690421
1.78529754599243
1.83767552112128
1.50931727681661
1.51386943736566
1.65636798298472
1.57449784837165
1.65148143770869
1.49275518508014
1.6108054313318
1.60405969216714
1.81600592105598
1.86541899235948
1.74918055138837
1.62445242685971
1.62092407508797
1.60933646168471
1.60293707974244
1.50371748212475
1.45263015806453
1.47659652360696
1.64241468090463
1.46738126823093
1.53339010827959
1.62487573141422
1.7753101415555
1.52962537713339
1.58489203864097
1.55607446420452
1.62395130184016
1.55058904205445
1.60599846284609
1.40115688524838
1.55749168987629
1.52311986315076
1.55259226264859
1.63828242897222
1.63396743164204
1.57979876484767
1.6075337655308
1.52665319617534
1.68351257848657
1.4973030084534
1.50089221816009
1.56326427239019
1.53352372553895
1.49519811620733
1.47143464822925
1.39488540737533
1.57145521924611
1.46427627573226
1.65277774423765
1.49002037449798
1.53358206751978
1.43307988776325
1.51108220716039
1.42735314962329
1.5302025906003
1.4861398048945
1.45501691869925
1.44145084651966
1.48397883550812
1.38140217717393
1.41263759655915
1.52191080332457
1.45685078660088
1.35622740555989
1.37619760306977
1.45860247945999
1.40391786285945
1.41120402379409
1.43921648120157
1.34172381942794
1.44949369910982
1.33562948306574
1.42196804317968
1.33585830027213
1.33684883089623
1.29520983253561
1.46451334072314
1.35497027015874
1.36891802964087
1.36794761077768
1.36808788744718
1.31544176386588
1.38743819390591
1.34126374626195
1.34037875185772
1.26421549506254
1.32825112206903
1.32354267644396
1.32970728142595
1.25516789664711
1.29929403759914
1.18934730947222
1.32586856620968
1.28406068466959
1.286971667771
1.30338786688931
1.33243842379912
1.23556259159426
1.18512707870678
1.23014099596121
1.2738369077862
1.219732966708
1.19062372911946
1.23987296813043
1.26638227936177
1.18493659344576
1.18558393303463
1.17859249840704
1.24761839636487
1.16953176230242
1.19860566320252
1.1813360910786
1.21293718417154
1.13535999308477
1.24910091786355
1.17389659785828
1.15390414615129
1.12714082531307
1.11918602091522
1.12680555322882
1.14951323307418
1.09982664797244
1.10950274539243
1.13784359599949
1.11035488730645
1.08886606467729
1.10494201170603
1.11554293098503
1.10150637715697
1.04484359803985
1.06522536528672
1.05965252369891
1.0614463674369
1.05395930274756
1.08963482513994
1.06079655577331
1.06442029014841
1.03144169773637
1.09518463433896
1.03323216631815
1.06872307095133
1.03868354255282
0.9971599589842
1.02693160351053
1.031906133801
0.987100194864474
0.9997423231563
0.978450572926007
0.963363944402494
0.960885033490436
1.00896208884439
0.981157440431671
0.976488082636599
0.97482052675018
0.967031229810686
0.949808510816237
0.946260677790905
0.932873833116174
0.956834803751734
0.949684968132694
0.928367522431876
0.928337831967167
0.924091742244908
0.9249249655627
0.911822436213381
0.906940485430416
0.933391555264086
0.936703523715557
0.883594194564222
0.885142637655561
0.908957427360594
0.887606307160711
0.909124617217426
0.879595321355697
0.882745977728596
0.858648544690585
0.860059876167095
0.846099977525005
0.862778801115619
0.83571506552295
0.84533053655322
0.861330254259783
0.841184049866235
0.829730980110202
0.85893556370048
0.824251598109154
0.8291219263606
0.834890859479851
0.823462480677313
0.826395810895512
0.829336605505973
0.793310749034509
0.823613523659291
0.812821945933313
0.802512922974789
0.794447173460685
0.795823936233127
0.77383949230424
0.782723544561011
0.791900450108344
0.778839585495569
0.77162733564771
0.775808428974227
0.764704527524624
0.769645543520468
0.755542757660291
0.763437022887136
0.744710368448862
0.751288077792052
0.737983844627325
0.744124414307664
0.727105095606327
0.726654506499146
0.722418494555103
0.734639651860927
0.721722021267896
0.725852608423296
0.707921769707151
0.706200186874536
0.689751192508036
0.712659918852463
0.705311827962532
0.697181384755356
0.678802969904125
0.685777213440703
0.680125127790712
0.696207295394662
0.682352442661464
0.682225452030296
0.679454898762816
0.683585021550232
0.670449756748213
0.66021756039609
0.660769245166413
0.658473443259465
0.668265494467475
0.654146689583777
0.641781941065353
0.649233873400226
0.629045682108695
0.643517987297552
0.637606814811349
0.655551941332974
0.624660947140328
0.626635413587746
0.622514495000227
0.625005388976953
0.614647681163614
0.616391222933991
0.616518537826974
0.610038058917072
0.618153917169701
0.609989802450482
0.60025248482751
0.611620930034056
0.588796819174615
0.593855351480229
0.592372060839292
0.597304114774905
0.583243031733109
0.592000335912754
0.591505884602935
0.592561136046684
0.57373096681156
0.586002468444799
0.583062925802079
0.591690589413776
0.558064896207271
0.570677512153785
0.560966984988001
0.577143931870487
0.574736002523701
0.562318063400494
0.548448431685327
0.579898837687169
0.562885284023259
0.571866949338245
0.564746877006303
0.569822555520278
0.559666554474375
0.55917522460626
0.557416646883132
0.580367874576682
0.570505283225991
0.579271852912757
0.577206797245904
0.57537317367785
0.574424378005058
0.574313935203846
0.567600676152602
0.568935272726093
0.574863515299977
0.593915384329363
0.581956161165334
0.586966839741096
0.583124843271518
0.576709587695752
0.586766595453802
0.596133164091965
0.585005662466892
0.593237954583593
0.586285869660956
0.599976289829378
0.605465542029538
0.601337491938967
0.609952869560356
0.610149729012045
0.615826682954128
0.620309661262191
0.611296581574655
0.601579955046403
0.61324279216734
0.620204873777657
0.628182113357187
0.637590025155787
0.646851171543352
0.631925934624229
0.621393810258359
0.643570249331301
0.637642324172924
0.643374029863283
0.644635990643627
0.64818308840072
0.661430191791254
0.673077755884923
0.643300554609559
0.658881477758489
0.660425421752674
0.677329587666319
0.682961169359983
0.686215476576692
0.678459507926941
0.692336865523427
0.68655717484814
0.699711430112211
0.686803728459201
0.69926013290058
0.697269913313483
0.732697865661774
0.715858250460554
0.735316098047887
0.722704830011588
0.738133321425861
0.736615226926368
0.743010384319457
0.744730370904065
0.727283451026049
0.730179110073224
0.736510071292075
0.7395028736991
0.755336299946531
0.728801969458369
0.741195841752768
0.733748975299381
0.735500109989267
0.736368080803841
0.742565395387852
0.727051461914233
0.72739900031901
0.725256407227998
0.73416654652513
0.717907785575075
0.727113986798061
0.712453072840245
0.729783029786032
0.723727101258687
0.741468665291804
0.719421921027472
0.730812151100093
0.737196673805993
0.726678858819778
0.719362852680324
0.731678369983782
0.708241420097249
0.719602965166777
0.728789131059684
0.731046355961735
0.724254409918703
0.716262674214721
0.713582492147264
0.722227262226531
0.728686419734539
0.72077288316164
0.728655945954616
0.713583180382418
0.734040144545254
0.743136747637033
0.71596816858818
0.7302724136022
0.734894711573278
0.72936771752653
0.732143958202225
0.710983268835694
0.699601035214182
0.732858723351492
0.722594497466726
0.727479840360205
0.719962116327957
0.715780463356626
0.715132452257723
0.725761928814829
0.69986984715242
0.701001438483944
0.717375787645164
0.722341256995018
0.697159890593416
0.708641079501575
0.690061197723149
0.699103055638218
0.701125473398352
0.706405690841773
0.69698608918964
0.699353295636528
0.667552894077085
0.681820518782206
0.672318337807035
0.681903853843498
0.663888249507408
0.668097475713606
0.65670942503497
0.653671162546982
0.645819066644514
0.641090210675104
0.635173692707018
0.629744151406685
0.643724898983449
0.637755453358883
0.615824079320179
0.629954918709771
0.612314683695681
0.623773188613022
0.612719314660963
0.599876889658641
0.586463198058278
0.598869443913312
0.573959116142941
0.585507626100839
0.570992144942234
0.589846506879733
0.565722099145635
0.563001448635195
0.570750567475868
0.570254932825121
0.557711425960253
0.55649091554133
0.547994511993808
0.55327741901093
0.545331550546829
0.551916022171107
0.540038836300336
0.539968627257959
0.534666698389918
0.534790032742464
0.543205387436095
0.535866912414325
0.528496160930294
0.520509085286098
0.52652947242772
0.521212793550051
0.509570289604095
0.521474258970805
0.516434481451976
0.515778725197738
0.51002454642335
0.513656395705479
0.500113440992101
0.505849751634874
0.500739822571677
0.495550199774153
0.498156835361639
0.495744862592931
0.489634268637632
0.4880172029421
0.484625188471191
0.492724711900261
0.481317755345466
0.485704543482645
0.476037100746569
0.477081652602054
0.476500823768043
0.478462048889966
0.479191950628167
0.459109715380714
0.467608929259774
0.467982227917496
0.46679300358422
0.454800023783087
0.465217886863436
0.453587393145678
0.45967966572399
0.462023787544105
0.44792045889778
0.453624998674575
0.451309921183589
0.453659000993044
0.449590955061478
0.449151904891907
0.443139159389324
0.451916259142198
0.446921172220928
0.447305313173036
0.441309399063981
0.43816582240142
0.435290273673148
0.439952898309196
0.442071802709876
0.43815256114279
0.439612921466637
0.441489811673095
0.428354559446157
0.433729957304099
0.429073317574591
0.435129980875329
0.430240381723605
0.422602691525266
0.425848785457544
0.424462573736431
0.425976652835317
0.428116335291924
0.422636530314633
0.423277971534874
0.42068401895075
0.417652023187742
0.414489311861681
0.4180188409421
0.413462766098195
0.419405990931448
0.415524469102982
0.416272750010742
0.41614618062513
0.420261308922818
0.409246479495952
0.412676642584798
0.40696195471584
0.411493842252377
0.410106366864258
0.411626401222654
0.406321576710602
0.403016470629051
0.405789111368097
0.405321534777725
0.402661792438975
0.401694223848533
0.402022486081927
0.393863719483978
0.396942246430478
0.403433387462801
0.397616357941734
0.399028574425531
0.389996956866677
0.399192011266618
0.394944523708385
0.395576050290454
0.394299244022308
0.398204610232089
0.392567045299005
0.398054550318014
0.388818927483124
0.393604412554426
0.398174695108928
0.398012442528272
0.384717465210801
0.389203327112159
0.395481487000793
0.389129590128967
0.390730570545974
0.395276027178224
0.391264221038563
0.389447817013408
0.385824210333512
0.391667855479171
0.383956048903429
0.394196297256171
0.381678500324812
0.386890825899042
0.381010459346233
0.38267992580223
0.384334413706325
0.385211003256538
0.384688597946663
0.384286898515082
0.379430276140484
0.377850034160475
0.383857715409499
0.381750243240116
0.375337071519621
0.378472397978505
0.374355914150938
0.380891136361703
0.374319640437362
0.37285123431228
0.378392394554592
0.364918104242503
0.365608868434856
0.372256440842159
0.371657319171741
0.369092690548217
0.367683709028831
0.359947533770867
0.36296706280707
0.364776520836542
0.363538062281208
0.361228727387658
0.363083757904341
0.365441562958019
0.353254329908355
0.363571130621458
0.362466555787231
0.358989972132883
0.364220644960678
0.365331229458228
0.357572176019603
0.354364882539035
0.353365604572547
0.349763394177796
0.350430304282179
0.349731797348368
0.350631466434116
0.345585942805571
0.352242020705314
0.348109453720734
0.346225844024642
0.349746637304399
0.351431860339558
0.346098635767318
0.347312479739004
0.338705747696406
0.336919499282051
0.336476807349929
0.343921949265937
0.336562192221545
0.337804090866974
0.333337692517745
0.332505599806106
0.335840804973808
0.335236175021433
0.335143750644195
0.33497442532291
0.335701248471243
0.326910797727866
0.329738838586379
0.32805773389154
0.32529237951441
0.327492935943654
0.325093342667887
0.324907287759467
0.331426893985575
0.323198961467759
0.321100228463327
0.318410332601931
0.31854258533848
0.323760046769495
0.32324530891281
0.319607697977294
0.311871466070502
0.320000266966507
0.312157579798535
0.317328156526411
0.310136427633167
0.31276334712705
0.307420058858875
0.30900498970044
0.308791668352188
0.308083900127055
0.308795606306992
0.307248958726556
0.303964695550316
0.30333900912295
0.304671740877189
0.303047687088381
0.302836870087597
0.298850407330572
0.301839420078579
0.297556517083641
0.294653686782028
0.298812526832242
0.299706974232594
0.29525490264384
0.292194119546486
0.29594891807409
0.298546998681841
0.296720481993042
0.293453511391042
0.290370306811635
0.29097428420309
0.29042793208234
0.291701693908685
0.287993819119011
0.288845137660195
0.288870387807483
0.291025379043306
0.284821388968666
0.291377832900048
0.284932786562571
0.283302844829739
0.283825993127794
0.288126757409837
0.284803913488284
0.283160273515545
0.278173072784713
0.282897191311529
0.282128180111066
0.275986841946398
0.278497005660165
0.274251825342504
0.274241803855343
0.274406910403243
0.277325048228817
0.27578263983607
0.274823755205366
0.278658759438255
0.269693980168596
0.270208282503919
0.270409286714636
0.271288078070045
0.271806371603981
0.27090339934507
0.268175206398809
0.272100161994968
0.264302740477859
0.268230186887198
0.267801363549731
0.267957730236181
0.27373206349672
0.265911429338161
0.264501050866898
0.266831566799193
0.264659456615227
0.265947499352819
0.26490838092793
0.264320805152641
0.263282207373744
0.264816104529256
0.259416393425999
0.258998853967868
0.265270541405853
0.260752556590854
0.259981904567336
0.261415835468057
0.257033120787603
0.258989251366256
0.255887447704656
0.260486485839785
0.255291044144525
0.259160461158532
0.261128215348194
0.253777206493231
0.258774668795084
0.259209994397159
0.25533239567813
0.254860549221251
0.257791305249435
0.256997354429895
0.254622401211252
0.255099970614916
0.25510208509739
0.255732308562749
0.253302036132488
0.255082201836317
0.256486346815824
0.253411982851604
0.249307188145802
0.247354133927638
0.254796909329841
0.256793911460239
0.257055479945268
0.251579976046755
0.249856807356696
0.246362841125743
0.248117046026928
0.246790457927649
0.248616743000704
0.248687717011339
0.248843359845254
0.246355133781835
0.24163492063712
0.246006458553013
0.245473922021805
0.244598744263911
0.248184535007579
0.243014663441764
0.245040585882415
0.23919055262194
0.244014027477747
0.239203913819475
0.240147803717615
0.238840223564775
0.239011719228491
0.240840121296093
0.242498298799228
0.24211142296591
0.2379755363085
0.239702528365043
0.240871055355202
0.240852301851273
0.237780212879245
0.238077508765371
0.239504155180654
0.239097964566794
0.236525068791682
0.2353582493469
0.241555431407271
0.237481264689012
0.234234165947323
0.239483568529349
0.237369834658179
0.236507194091441
0.232181840372642
0.233327466475547
0.23482037286767
0.233130591393191
0.234845962549842
0.235336726894845
0.238564623510635
0.229268375747825
0.231063018929192
0.233722300782719
0.229918928091797
0.230244569144555
0.229685199610364
0.23210234853135
0.229745360750509
0.227286975578167
0.232326720347944
0.223300683599395
0.224419512653243
0.226490516526272
0.224802023459536
0.223758552169561
0.226705906973634
0.223829262903973
0.227159626608766
0.222512169183819
0.222718727501213
0.220117726657843
0.223665252681622
0.219617789624526
0.221473730924072
0.215994472875586
0.22105442457794
0.215773236276886
0.220425291347481
0.219135630622824
0.217188113509065
0.20933863098245
0.215899081812607
0.214177686557652
0.211586878221452
0.211126117200673
0.215923734455428
0.214401442246601
0.211028385071257
0.211567659443669
0.2122791095904
0.207960046436838
0.214492427709809
0.206530949535836
0.209182920200173
0.209064196065799
0.20990082053924
0.207262802470608
0.206158333134303
0.204469171815336
0.205811327405513
0.208744982316806
0.205424906941289
0.205938370576993
0.205125628237665
0.202021817681828
0.205087821544409
0.200527023781165
0.200417156268365
0.199909285812552
0.202768173847519
0.199438343290946
0.202186754776287
0.200687035741815
0.20312530842492
0.198146995028353
0.203532350578232
0.198211779298354
0.197784914295528
0.197382943052372
0.197962456459511
0.195061867309931
0.198035171125088
0.192199414114742
0.19491572361991
0.194902932735178
0.191762118255409
0.192562070977692
0.195864197113998
0.189799132503861
0.195553993038894
0.187804241760307
0.193050932177548
0.187091838630085
0.191207182628171
0.187159656789365
0.189558194961985
0.188905372122696
0.190110239333443
0.184618453227983
0.18715681639855
0.183441457786479
0.187467012846892
0.18543797031069
0.187523370073106
0.181704890662935
0.187628220170905
0.181871414383485
0.183442933493912
0.182254165045302
0.184248744433588
0.184042547847021
0.182821832724765
0.182683785026104
0.185917376276338
0.179456955256983
0.1814655624663
0.179109095682968
0.181449306732678
0.17875181695334
0.182365492208129
0.181732080713178
0.183242941040591
0.175220758001384
0.182454411360754
0.180837729083204
0.180547692969685
0.177474249490253
0.18006558780591
0.176709659023779
0.179395061804969
0.176410101019958
0.183035116096536
0.178855799099701
0.182185042803357
0.174402740870382
0.177098763015762
0.178004623114894
0.18264738467794
0.184049738367096
0.185878137443856
0.17956225813207
0.181134749544189
0.173572723573265
0.180751899795281
0.170488707723846
0.177050225179251
0.170068879902423
0.177122258786029
0.170350650128613
0.1732086195311
0.170551907402941
0.176331675297574
0.169634434973391
0.175182293055459
0.163606489157764
0.180020602261882
0.168231930782577
0.176313150466113
0.164657891923653
0.171710480656325
0.163879730375105
0.175368065388796
0.16206048021456
0.180308822965716
0.167393930523048
0.176682819872524
0.161944107970056
0.179077673894119
0.166919373148493
0.179282650514735
0.167107172710218
0.175398629270339
0.162697777083995
0.170278089947264
0.160308016507404
0.1717030454633
0.16012653839094
0.171296046020692
0.162439052743453
0.170249949833643
0.158470367782193
0.169132087547141
0.164417183620681
0.168983192284994
0.174019462100796
0.167423919298147
0.173669301983742
0.15497866987058
0.179017383369736
0.154553163655764
0.185534077735517
0.145039724206006
0.186783664091831
0.133751883272749
0.197684732539444
0.137914486266692
0.197518197937668
0.129114952963641
0.207975193986938
0.132836527668135
0.194764789350732
0.140907333647131
0.195531870593154
0.146679655151442
0.181602398331411
0.156013116787677
0.167239745665082
0.165165887180183
0.161452889838104
0.168946884453519
0.153616796877207
0.166163274030363
0.158298075812517
0.163662412402974
0.162288075867978
0.157857504291614
0.162620042365309
0.156357097121407
0.164902819089873
0.156333953796459
0.164819038858166
0.15770123455169
0.157732450718748
0.157463535982021
0.156839911172059
0.158756748783316
0.158451726050292
0.154580158178779
0.157364886952964
0.156155749531621
0.158508803227446
0.155292889510079
0.156449774203016
0.155940313412092
0.157753524419073
0.155384364019927
0.156369236182029
0.154864562018086
0.15789385581681
0.155455923410188
0.15758904285839
0.156148587026252
0.15560588098158
0.158370666816177
0.156580870440495
0.155714033336966
0.158982166673664
0.157943689782845
0.153662502691737
0.155200664481088
0.15518202858193
0.153544176529153
0.157414000220806
0.155227775602175
0.155558101667385
0.15398332832228
0.154637476148764
0.152986068233992
0.157897935649915
0.154539655709449
0.158039888145852
0.156739697846454
0.157018253022732
0.157469259930779
0.156215167846628
0.15677604238899
0.156948878048104
0.155020119288972
0.155272654426778
0.155104379453196
0.154733807211543
0.154081583961134
0.154107484171272
0.156466200847418
0.154515682561161
0.156622136819936
0.157957069922547
0.154803862883726
0.153964968163673
0.158105112519015
0.152152216543312
0.153822803777946
0.15344564823011
0.156582094627813
0.153358973586996
0.152810758755019
0.154746830099697
0.154778611376968
0.151616584899022
0.154623004678511
0.154704070613552
0.156829444684224
0.157218650174898
0.156072630053397
0.156367081999281
0.157021774774913
0.154309083375828
0.157183629390577
0.156621928299105
0.157263452964354
0.155946620471105
0.15662495210862
0.154487984892062
0.157650783130628
0.15681441023303
0.15721959231462
0.156479781251571
0.158426727453628
0.15759897644321
0.158727843132135
0.155772103588783
0.160251527237959
0.155970894279294
0.158338381454663
0.159297291502208
0.160206312809989
0.160888635569603
0.162470946520211
0.155630708795767
0.156158813478568
0.157177256382642
0.161444326602269
0.155979563243775
0.158315290784963
0.157290399551577
0.162051831982389
0.161911028454462
0.159611194124078
0.15955672133268
0.158197573320607
0.159027326172862
0.160672927049857
0.159974106539927
0.159702122148361
0.15589478567704
0.15996285700479
0.16069589762599
0.160111787281055
0.157688012209101
0.160598357642648
0.161350460718081
0.159459842538293
0.160199013780004
0.162493686067571
0.160093046986736
0.160595871240777
0.158953058352248
0.160694960918362
0.158918569542721
0.158984258923575
0.159736396406607
0.16128064455695
0.16046270295179
0.162737128100152
0.16270695609977
0.161770576110003
0.160323519521205
0.162441180379552
0.161833396924954
0.164166616365243
0.159542016442212
0.162306655414816
0.161785597579353
0.166134582534096
0.162730474537107
0.161616411389417
0.160814218969395
0.166025317512311
0.16121042022819
0.163270774674133
0.165122108598198
0.168794106931877
0.165289347301534
0.168195083444378
0.16565462575966
0.164809016802014
0.163727419599321
0.165076161113121
0.164140399369535
0.164888231585387
0.162197131133017
0.162882258111863
0.160811614493703
0.166035256836434
0.165605637235017
0.165326312606102
0.164339143284256
0.165129628406182
0.163033099619699
0.163100176077049
0.162869624925502
0.165256889993016
0.162474575379425
0.161517353412639
0.159993179150033
0.162243837280138
0.161596585144916
0.161251327679953
0.159994554720132
0.159061612008772
0.158078050623376
0.160930529958427
0.156866195181443
0.159430041414632
0.157219316698336
0.162409417616139
0.15647492858642
0.158845515944819
0.157251398463723
0.160198714162733
0.159383259366417
0.158965044008297
0.156938977890806
0.159970780223022
0.155041619092431
0.158436132458044
0.15903999968413
0.160779026180146
0.156137374577327
0.157829238384123
0.155536792917752
0.159400192236637
0.155960291779913
0.156839885679799
0.156653468040945
0.157564331142222
0.158040263531426
0.15965552827311
0.15402301874175
0.15610414644477
0.152786331134239
0.155964849312386
0.153054834574501
0.156765607236933
0.155908895468966
0.156247460004784
0.155502618464304
0.154615268619582
0.154044661373141
0.156469983719121
0.152343856864035
0.153978367213836
0.154746971838296
0.15783167997697
0.153994767983273
0.154909997722525
0.152870632602925
0.156378356507592
0.151575631787847
0.152059719368867
0.15175217628656
0.153738843116912
0.150990869744936
0.155822746770567
0.153012674508428
0.155369125535035
0.152164918057965
0.154871109215609
0.152607315603736
0.1542307901779
0.1526347332872
0.154460327482243
0.151514377717081
0.153697943085166
0.151211655465542
0.152386303554849
0.148762193993759
0.153488009629356
0.150355861793462
0.151702506400531
0.150891012990561
0.152881490327124
0.150423945270228
0.154253606248249
0.147670700703833
0.149403280709402
0.150737592729468
0.151629613816902
0.149000556744389
0.150805656775587
0.149825293120485
0.151774017953062
0.149958225925913
0.149810882044725
0.149732108008985
0.150372960324465
0.146453349672553
0.147601256624515
0.14608474529476
0.146543576455466
0.144266735691272
0.147637505210992
0.144975054334566
0.148257441473847
0.145281204221184
0.148453664935165
0.145291979360714
0.14938572064825
0.146685447111837
0.145727278901218
0.140470869329252
0.144422896324253
0.144378452067938
0.145686104900676
0.142402051948091
0.143801860572225
0.141670467817253
0.143753301495917
0.142841268601421
0.142109695354482
0.141655536627907
0.140792747133031
0.14053285565938
0.141356440859499
0.138877100836431
0.142395984870635
0.137742705914955
0.137501934979013
0.137326963321395
0.138059558828611
0.13662710939827
0.140854480541095
0.139051843080949
0.142771310610589
0.132566417772482
0.138262390751781
0.134646480737326
0.137197699373517
0.131626198043022
0.13488258741057
0.133709835354316
0.136303351692418
0.131733797113323
0.135816809359934
0.130116465933077
0.131497754691621
0.1306813737064
0.131766534728592
0.129497826988581
0.134463960080216
0.129227972528586
0.131896838835225
0.12747438777096
0.131223762173399
0.129030958160719
0.13152520291766
0.12730161310201
0.127424027863166
0.132929262972627
0.13845306088574
0.128260343084605
0.129220366139579
0.128575160357426
0.1283155057706
0.126128308603469
0.127904817064926
0.12518376024669
0.127406272363712
0.124501776077423
0.127889105630845
0.123156685678636
0.127585326765507
0.125631282518169
0.12494573375232
0.123657270747032
0.124688035691664
0.122213068763721
0.126435811918718
0.123696102136856
0.125089543310344
0.122983288038622
0.124526765509227
0.123114096611358
0.120943377764915
0.121841833922026
0.128217813645828
0.127504377981826
0.123767004472631
0.122046433355796
0.122380169629857
0.119652645871246
0.120716197747592
0.121799946750419
0.122219766807278
0.118997349137829
0.119664875061863
0.117004164757996
0.121552868453002
0.11932638706844
0.122568878179325
0.116683403691155
0.120028335468641
0.120009173417496
0.118351030613082
0.116681566150751
0.118060233263127
0.1139701665237
0.118147939413155
0.117461866849631
0.118694010709325
0.115045290533765
0.1240222076224
0.130786576840683
0.121639078339185
0.112085126209497
0.119250239827669
0.111792834494528
0.118548661807274
0.112722258453032
0.116948520377726
0.114247682965496
0.118072020323418
0.113290416483059
0.11610001917241
0.112425478815625
0.117054776336576
0.114459750725922
0.116163250671778
0.111702993946138
0.116107513143296
0.111241667879032
0.112878867570252
0.114358539476489
0.127343232756305
0.120167978636833
0.116594326160843
0.110694951375293
0.119033686693655
0.121158968087614
0.12668969485563
0.109870746557499
0.114984176817267
0.11212683100105
0.115493094821311
0.109631451318744
0.115333280910421
0.113963130567095
0.11835007895447
0.114214838362794
0.115604921320695
0.112322528634324
0.111432903480511
0.113911046799204
0.116487884515173
0.109325027622174
0.114057150316121
0.108141708376626
0.1088435890274
0.107898577323059
0.113167705196684
0.109598440705545
0.113417380002996
0.111566263796882
0.118115643688773
0.109780821614522
0.113079211920449
0.108983958236211
0.112110318054171
0.117144240494439
0.122939593940351
0.11402232703388
0.108887716628986
0.109183728832325
0.10956065581802
0.113104797774593
0.112195492217933
0.109168627594054
0.110163216087407
0.108584938389347
0.112707803310547
0.109373898882422
0.110636262683184
0.108811734467204
0.11143452121349
0.108145410911066
0.111600608894359
0.108052539713976
0.111899458893009
0.10820244785099
0.113110017615689
0.115299451678777
0.133924519205831
0.121328007417289
0.125278296235789
0.112142563761837
0.109769836899776
0.105581400273591
0.109482229073785
0.109360994482364
0.112089840452223
0.106366669121408
0.108830140738888
0.110609096391193
0.109468384483174
0.106238000610537
0.108844863864982
0.107693608988597
0.107030246257308
0.106456287141015
0.106686549468699
0.106391209213664
0.106200428584353
0.108595551645338
0.114327378827487
0.114409014614436
0.106891080771274
0.113373449684209
0.127576297953577
0.134330156306538
0.114971837508136
0.109471742571726
0.112273412442934
0.107576852380902
0.110433604615866
0.108653587759184
0.116049725459243
0.108835939327529
0.108726526344215
0.106873431154232
0.113318025243637
0.107456615410006
0.109736288958265
0.116657100644245
0.138830738361377
0.123451571868339
0.113116311904644
0.106567123412432
0.122784206449275
0.126334292144119
0.120304955609976
0.109063571814103
0.118297840757179
0.108086831868022
0.113971474550382
0.108477026283118
0.112863259835238
0.111325250664927
0.115659336744581
0.112750189769321
0.112972735282062
0.109272271816638
0.116535303159296
0.115607282176096
0.124653155390882
0.12119828424968
0.115236397819537
0.112798170496905
0.115696380166502
0.110483831814616
0.11328569170637
0.111125368728903
0.112164001088934
0.1240423202085
0.129578525810898
0.119114111297415
0.127797958852154
0.122897902413008
0.116900078878327
0.11645834903375
0.126813542553904
0.116475225683189
0.115520493406695
0.123859139087654
0.143431015478013
0.139901873325451
0.128840790176041
0.121164637662071
0.117167224086069
0.12281741064599
0.114441515441463
0.123195355264116
0.131013578435771
0.127590377753651
0.11675730124621
0.117623160356148
0.129479626082606
0.131006818845829
0.124822013617858
0.123455370466122
0.122824213313438
0.124523345344195
0.138045551970181
0.12592234559465
0.129179515133207
0.140031969642532
0.16328179816822
0.143790799888198
0.13195047611011
0.128921471548963
0.155139574757505
0.135636741137976
0.126192924848593
0.128034490958961
0.126251316738696
0.124510211500226
0.137077585352242
0.147143620178157
0.138401415575437
0.128298894701784
0.13826568246775
0.133636348848398
0.149986173834542
0.145511809611136
0.135510765739398
0.137020455142335
0.137324877386365
0.144105932063285
0.178369036999257
0.161929108190463
0.160083540785847
0.167321529927002
0.166384689449243
0.155794346010982
0.162493110150634
0.151292633411938
0.168560272864192
0.168484835246038
0.159446254138832
0.147337455126625
0.180782204314465
0.177236244638804
0.166454052402954
0.160818948602841
0.164850362427053
0.154725313501592
0.20943872832691
0.220263558154669
0.200638629391734
0.167940588922454
0.180646426424481
0.195090661625946
0.184604488832569
0.176067143145915
0.17617463656687
0.173651355087867
0.178848319067742
0.178378806868697
0.195026840109247
0.186924102736946
0.190555588408459
0.187767183596632
0.196865030144722
0.213130812338726
0.255102247746478
0.229442408460887
0.218551112472039
0.229891098889688
0.236792605865579
0.214532337014765
0.211545260901472
0.207035812172966
0.222412939552674
0.214939775337416
0.220346978362974
0.221269836131784
0.252354131315271
0.240160283649021
0.248064550480326
0.250220374305313
0.247982316880081
0.240659255954098
0.269506589781276
0.36376890154952
0.300476629385633
0.272503049033941
0.288503366144146
0.286655623760999
0.364965721482391
0.314047269789846
0.305501531246057
0.309428846588265
0.316538116607103
0.32709245586306
0.347129790036407
0.350983408025217
0.371081346765636
0.363734805745207
0.369175388407994
0.377809064054315
0.477272435445992
0.450261074211208
0.435308050742001
0.419334118276613
0.450075765272887
0.447564308455825
0.449531802602659
0.455901974926214
0.467544456083588
0.476467905106346
0.540950919739657
0.503309664430824
0.51577415515792
0.525193271962261
0.557070956251734
0.539567619391768
0.591523922346044
0.596143044581118
0.574087635354975
0.580765153205115
0.601210618649811
0.606019348500577
0.620535642200834
0.655429883389025
0.666117269601294
0.63752459445791
0.66188141865759
0.6672971148237
0.682123264338342
0.688157360401078
0.705530147508363
0.700178263674671
0.752569837232905
0.738423035802016
0.877204565262209
0.758484994499991
0.724026950012044
0.721241519955305
0.724935810024818
0.772694693386796
0.773640767229957
0.775079496577878
0.77317277624941
0.727295629602739
0.753656683309549
0.730761232270742
0.749262900846783
0.747922632994144
0.764684187180907
0.746814588335172
0.784287416197803
0.751139018335473
0.820976223658324
0.834184185486121
0.776245705298624
0.758744271228268
0.753119618068757
0.745851121410387
0.766507695045497
0.755255488809667
0.771059176819742
0.780492594521873
0.750758992301687
0.726794196580923
0.722554230431077
0.722297025027491
0.743878492406661
0.687839265770244
0.705483500039213
0.692463030662855
0.684269477678648
0.66147768866856
0.701147589266099
0.732140219047511
0.668121858636152
0.65712609450661
0.67470394767208
0.652666965955742
0.648390466208605
0.638045406671229
0.655327075862883
0.640019190184072
0.632518088705553
0.628583168387739
0.643612309562294
0.617388651483511
0.631068685946149
0.625584249468985
0.628560987268767
0.618942803019971
0.624661149390709
0.613238899002336
0.626506918140369
0.621243820026787
0.62904461113478
0.61872147000972
0.61815963675441
0.623512485947197
0.625984663509486
0.625926462013562
0.63403304078044
0.619351985025754
0.625217911480438
0.617574684200314
0.616198179414187
0.60875715948402
0.628844147930399
0.608638941567389
0.627205840440801
0.620493631940704
0.624632503621825
0.607170710337223
0.623974883000875
0.607833432704154
0.626551107163389
0.613656710060996
0.693906821134574
0.642744755162333
0.614875003007672
0.613433758251192
0.613909474003666
0.609794259872914
0.592998161437047
0.633934217108723
0.630284492863542
0.591331115138188
0.594777165747407
0.585445202051184
0.60961817556897
0.584557735524025
0.580602781802922
0.582651119938082
0.56371313467726
0.615595888239161
0.649603730776221
0.623147582628552
0.656071564115845
0.592524061986662
0.563445023287313
0.562827312480595
0.620636881361103
0.572889759825312
0.568990420616223
0.552052857015335
0.608774346031848
0.568644016430644
0.544895542736366
0.540508853878337
0.537702603291836
0.571323615083416
0.58289806114394
0.547148555605752
0.560542032116981
0.573031112305806
0.555722041125113
0.581191197720603
0.598240580576755
0.555483285194084
0.509644322324957
0.511091316845318
0.503779855109478
0.506448925707746
0.572838055811869
0.508770346607696
0.508292349206017
0.482343302313853
0.475759853268829
0.48145822886718
0.499065103048458
0.485034340345911
0.486433987134052
0.512804365698406
0.459893146242358
0.467641126338904
0.49071566079303
0.502096897080296
0.525648021820065
0.465104309871646
0.449079161744682
0.485828525860142
0.50008418473854
0.453319785919537
0.458953732870434
0.421694630586693
0.434194167308967
0.449093189051921
0.423265152407207
0.440683501513645
0.444609288897835
0.434956106299318
0.473684167946697
0.486083736432263
0.466995349049158
0.410061080930686
0.398344047304335
0.3909595318564
0.395375328751307
0.390116649763279
0.387697421590015
0.423041987323355
0.408220717460953
0.383295081952253
0.451953605010009
0.402510737772459
0.397634985063824
0.397497610083038
0.396110517965586
0.401691290089486
0.429000262701963
0.44693365102616
0.420968787166859
0.420533117686636
0.444132700534818
0.413339043880389
0.416795422215755
0.418462617641047
0.430644586824121
0.427325792164692
0.460067658564314
0.441053937470808
0.457423626482325
0.457079751073138
0.468532047133863
0.493174740887895
0.522696190711043
0.476623544698695
0.545905898902584
0.529453747912854
0.587246390881167
0.546008478799185
0.549442752135776
0.548564287938527
0.559725335059131
0.559975080805254
0.567741815097755
0.579430845878811
0.622713751806544
0.586370392519727
0.600557238535622
0.592365051555212
0.614117341000955
0.606030600326069
0.651049505324967
0.638083568784297
0.72229721238299
0.698304141019551
0.668127112955973
0.662483556854589
0.638016018819877
0.648193647401018
0.661047989798756
0.644787634120317
0.647315538998795
0.655889931483469
0.698181806329449
0.660956314118032
0.66783539002777
0.663603182778378
0.66857072224245
0.672790310101354
0.689084871279435
0.678061550937536
0.687384162757469
0.682818936233724
0.701049168704757
0.679710244020608
0.784515208930618
0.711891500195215
0.720564438946445
0.725022187419496
0.732753534463579
0.724159847328161
0.72615492107204
0.74825214192346
0.755826016365972
0.746783723512145
0.750140194762684
0.762164360263371
0.769757925733262
0.770903138183533
0.803635655170651
0.765380818006611
0.796779779845559
0.763757607121178
0.814989812578184
0.847801849161106
0.806985517026536
0.811725892628012
0.809371277453425
0.807358101486933
0.818624118233584
0.810784939934084
0.828185912874878
0.827615365798277
0.823097513930651
0.815158668365285
0.824327332917183
0.820187325820203
0.815950324060731
0.811572752704393
0.854517474827656
0.823763007207576
0.818423198959999
0.813264492712792
0.821770042557183
0.815021347572396
0.87187398368443
0.839760803355836
0.825828733477825
0.828386654829597
0.827388730283709
0.836052314851386
0.834499054259538
0.812451513569561
0.829222147731338
0.817879678160367
0.815901749230129
0.814213251283019
0.831105488678543
0.846345654551608
0.82990586227645
0.841114534367491
0.831788374022155
0.823384345011774
0.833321118005496
0.837553357715439
0.858532442371657
0.842311312800387
0.853226202402871
0.865816321100825
0.860475757539635
0.857459313156965
0.866181295484028
0.873006668714475
0.866688135427072
0.847329035761157
0.854671226349633
0.847887745858537
0.858780768748366
0.853046035086484
0.832890155198604
0.840597073892258
0.830299323993387
0.830271661656887
0.814823247596387
0.84993620677347
0.823492771521439
0.822205020054961
0.806954160736168
0.787488071263438
0.799049904665367
0.79250927869195
0.797677726042375
0.773993741336807
0.777503613663732
0.765834089362847
0.775983928707481
0.765398484252315
0.763405643488874
0.76058203338074
0.765938004767187
0.750424333387836
0.757566593519953
0.752927763696949
0.759172601978712
0.756182567354853
0.752047638621224
0.754589217889446
0.745501789716384
0.764727082140309
0.770271041871493
0.76908052629189
0.761204712676649
0.747406474794568
0.75384394723549
0.740405607104797
0.744478294144567
0.737455280777216
0.742181496120492
0.740550844051017
0.751791454209681
0.735152624118312
0.747303839401925
0.738826579023248
0.741759646672792
0.735442410642103
0.740477615726566
0.727175176186189
0.743560852647878
0.735244717789896
0.73804848595087
0.733733082926989
0.745177672253653
0.746998592778193
0.751191431663619
0.748960587667643
0.734977731312697
0.729028137229789
0.733286898066866
0.738255552849774
0.74650290431183
0.738427170004679
0.74192388578053
0.740715301215717
0.742097335394425
0.737880250192539
0.73173055697333
0.733744306192945
0.731613955598095
0.73134561593754
0.732497904448147
0.719424397476207
0.723911977516319
0.71155970387452
0.701002007356532
0.707665397901983
0.707779661052724
0.691183120936247
0.692724951308387
0.683108114630961
0.675226774078915
0.667716136182347
0.667356685539576
0.667487470781117
0.659807139483859
0.660324015582409
0.664030745184893
0.65799772104125
0.65932534475486
0.647498392314755
0.652509486782821
0.649408270962008
0.652404368278311
0.645970402501058
0.65360569486051
0.646172942526462
0.648161699952502
0.651266066449176
0.650348508361868
0.64779329828628
0.647520420716671
0.650217370965104
0.651483190935257
0.662978646164046
0.666366048424938
0.660729721236623
0.667619966846477
0.666591719277207
0.673380627895544
0.666140815824928
0.678091327926766
0.67502319066959
0.673915560078019
0.680258082407258
0.687586738788577
0.682213133965103
0.687383594323565
0.685971159514853
0.682447203933962
0.679630671481686
0.690503983698095
0.682983979327073
0.68763767863972
0.67951802620342
0.680763195687163
0.678058592528287
0.679148156201743
0.670256569648044
0.678982794582085
0.673258473140362
0.67566869509229
0.66779986718748
0.669298914659002
0.667448421292732
0.665409924761977
0.659390555483865
0.665467788370457
0.657971602607069
0.654917867103071
0.657278172770077
0.647572800021096
0.649303732624032
0.645973502606869
0.642426020259736
0.643102958762169
0.641251730054319
0.637100619730537
0.635255734613695
0.627495343398109
0.639741685275186
0.62971644784489
0.626649957299008
0.624441635982455
0.628747164476945
0.619893360764888
0.619624019837603
0.624098913189759
0.616108419191626
0.610757802564054
0.608168574290771
0.610420566565905
0.60258908948159
0.59770366232162
0.597062419075855
0.589032807358807
0.58604436559864
0.582387319292767
0.578723902270048
0.571337077326687
0.570310165090713
0.566113229229857
0.55913589777354
0.560855450790186
0.554287130724472
0.556444853006044
0.549885247265959
0.552700899586329
0.548098669150715
0.546693617736186
0.547220731328782
0.544215895969644
0.542959631235782
0.537711412183488
0.530829226037687
0.529500956308829
0.52860934284322
0.522694865207651
0.51961103970626
0.510786157455995
0.506613145196271
0.498974327428489
0.488552984665596
0.486692489936484
0.483774847634014
0.477363455921704
0.474274739768586
0.481157978499078
0.479282023697735
0.483395197826396
0.489338647476244
0.501024007536268
0.509518155101262
0.51988567028865
0.531064516696081
0.54864305735813
0.562241017719608
0.583604332490416
0.602310327760926
0.622639772635787
0.636840653090195
0.66273096320793
0.678983577012955
0.706693346036661
0.724308709399132
0.742660639988087
0.763894348237565
0.785911189206041
0.813529454177004
0.822809628092588
0.84309546255728
0.851629783854311
0.874203956778293
0.893918163560054
0.904384387391517
0.926115119212814
0.932371073594396
0.946153388671594
0.964333383509613
0.985369999575878
0.978231148639469
0.993923297459185
1.01781579838791
1.01094879704691
1.00326982344145
1.01985628256463
1.03104589852832
1.0272425529869
1.03775362037901
1.02855106613787
1.02666399113781
1.02788193884889
1.02949319716277
1.03053497531637
1.03023210619729
1.04241779278043
1.02736459137557
1.03985373614624
1.04013110876992
1.04730707338777
1.06093438338948
1.0528986806841
1.07170786329222
1.07244837988151
1.08657181906477
1.08319840194684
1.09661134992116
1.11203173753047
1.12311272659143
1.13667882750339
1.15287258892353
1.15888277232653
1.16838755341564
1.19435934319253
1.21404958340731
1.2091423130824
1.24518086908452
1.24430344467838
1.26374494717098
1.26970272093439
1.29140674888557
1.28026368203089
1.28543289564255
1.28304523601692
1.29350734981261
1.29320857958754
1.28974747919701
1.27137810793204
1.26363328015772
1.28036765256158
1.29002477867245
1.28611331633195
1.24756436526397
1.2864486257739
1.28300406498668
1.28240568970128
1.30200076453851
1.32013219154801
1.33929232109586
1.35029458767656
1.3535612609685
1.38110876050151
1.41383028053311
1.42233770873134
1.42296930347552
1.46949263909811
1.49403498584499
1.51030584955053
1.52441117328365
1.49500899264217
1.5639947530023
1.53557397878098
1.58202596493067
1.65041721107165
1.63532132321526
1.6576661120405
1.66072211202113
1.75715515927239
1.82171074413595
1.71958586084945
1.79893698998796
1.8165488636864
1.88645351412767
1.99399792173754
1.8606395864305
1.94196299811973
2.00131608869821
1.99600831742969
1.96094697681587
1.88094541364415
2.12246878880162
2.0057984562546
2.04173882396149
1.90698779743665
2.01898937075075
1.99503652017824
2.15506215148092
2.03084792563983
2.22428669857609
2.11672894654582
2.19470210233323
2.11099554360028
1.96093353527645
2.09427106377055
2.18162498460749
2.12274954820268
2.14209739346484
1.99465859326457
2.08863852522196
2.11544003354004
2.25434714983164
2.19408816624436
2.25400075698781
2.09024404079385
2.15633767642414
1.94002122152946
2.08217262694565
2.6240949023049
2.33285218577575
2.22511105611157
2.23083248759236
2.33760418974363
2.34250432476071
2.51513126613659
2.83584611546434
2.3408870496114
2.22603304757986
2.54894576249221
2.19383019416461
2.29053646836767
2.26947358422993
2.6311369014722
2.65302463173038
2.44986577054813
2.6068858558513
2.44787164656364
2.26618573166944
2.41991944799424
5
2.19612335754612
2.30829567074379
2.20551841970938
2.64944306090764
5
2.59561087346783
2.35919854309709
2.70028903225717
2.38659749108742
2.37492700327396
2.71513580045246
2.96773112133606
2.13496249120294
2.52916018697924
2.24960148922819
2.23436662608147
2.13208622738045
2.32959267768055
2.09536713980673
2.07774125115962
1.96818856779776
1.85223518370748
1.71632493265576
1.92007078621255
1.81767780416751
1.83902763952008
1.82651621568074
1.7757957413537
1.76413966529084
1.83651932281146
1.75182908611836
1.83676380731462
1.73593707392438
1.78959314550391
1.75468071155604
1.77361262697697
1.77526088056458
1.74428651465164
1.68683938611891
1.77169677357012
1.70610970442402
1.66734623769294
1.59878333346136
1.63086487520673
1.53123254489531
1.51479946327745
1.50097634263552
1.48472562336394
1.44927912758545
1.44753898514148
1.39462467823399
1.39180690806285
1.30872564142168
1.25206799060198
1.21135768818561
1.21793784583535
1.14360703097309
1.11204375302006
1.06600955019966
1.0541484194585
1.00912007539105
0.969659471259039
0.930858082970549
0.917976325024063
0.870643537709606
0.842852754679992
0.832820761907077
0.82190346318479
0.794153279068357
0.800607712916838
0.774443300250561
0.77235823487201
0.749286349457844
0.748827810714282
0.740555655200373
0.746390917027508
0.736441473661963
0.729452380115877
0.724088468815471
0.726699792563482
0.733445212383159
0.737200226851539
0.726161906929029
0.745189245013045
0.734543864882971
0.729841391225563
0.715365797933682
0.717618937577433
0.719379846778238
0.709799017185502
0.702211110787186
0.701411804703837
0.691567797300162
0.698727954845154
0.677278680322561
0.686101659228223
0.683071644414149
0.674845955027976
0.673709150425845
0.675903237269583
0.671563596303965
0.675644861079273
0.676959042522047
0.682599086301324
0.678722454297133
0.683350580357718
0.694432170732682
0.701512326562083
0.700642906119912
0.702755221913336
0.705669796030134
0.717409929070753
0.710926104179953
0.71324284419232
0.716362465896663
0.722609232632259
0.720588954764948
0.7281286724274
0.722686650098308
0.736787421483915
0.715065088647617
0.719086587734752
0.730451973963634
0.724936067453233
0.722563713851825
0.731642247110698
0.73459927754804
0.732949178835333
0.734350185414372
0.744808456514757
0.767346125203447
0.789066603973387
0.797779567885877
0.798588128127018
0.800529039406305
0.841263619355942
0.845697308098463
0.867085761484254
0.88861605586608
0.929905743128406
0.916359023089482
0.929416328076389
0.943162701894023
0.901383971553572
0.89055626537341
0.908836581847038
0.907882052537789
0.911190276072991
0.879823319861649
0.870288347600252
0.854980264531038
0.846630785582951
0.8299206609191
0.853538391188227
0.820558052751099
0.843488820189821
0.850336321253836
0.856640779475781
0.858449190528136
0.87239567174894
0.848235447670737
0.849275317833272
0.857103360805772
0.865366738407183
0.825882798546073
0.811404433026674
0.835822723113903
0.82406252908137
0.794711919591049
0.816497855807311
0.791884311766093
0.792370691658898
0.796483235613
0.783337341181687
0.760155627691703
0.800075784000687
0.76498192861211
0.773966578192243
0.775895375145232
0.776956229671932
0.78926035214271
0.796816969409266
0.766159768734465
0.759378908533354
0.780507748258829
0.778374271583256
0.745907900945909
0.757466251796846
0.750361589875469
0.753489988259655
0.754857766432339
0.753933523373666
0.753078887687785
0.76109369286628
0.738190750764598
0.7323466020076
0.741255938964806
0.732793950614854
0.715967299124063
0.7249205459887
0.716542317536669
0.708338450774732
0.708945637811322
0.74509244522651
0.735311423406898
0.717332730687355
0.690020165288845
0.714303825111819
0.70727415522274
0.709063223500507
0.718987996965144
0.725987762561181
0.708816605348473
0.705712289539088
0.727648805393921
0.755017450733445
0.710558557920244
0.702356028853078
0.730034997284064
0.725320020413671
0.711882483443942
0.728298024047998
0.703183521687928
0.736972968806439
0.743724993503942
0.725778358029691
0.725157572898094
0.722512398850805
0.749313880845044
0.752748008315065
0.740445005911065
0.763606213293723
0.734454466635094
0.741387193444202
0.754626310389772
0.78151908070898
0.774378565824249
0.793995717390361
0.811069165278746
0.789455816150482
0.796928292819518
0.814434501945614
0.824829428336535
0.860910042860364
0.870179715561542
0.904736686973386
0.897081586181269
0.903741879608285
0.954624122690878
0.961664837280255
0.982864796066181
0.991568427321242
0.958865492953962
1.04120888741743
1.07704494761612
1.07413500935549
1.08908769948816
1.06915956936035
1.07461623917994
1.14165680550271
1.09675285628954
1.08669269116771
1.05517233186788
1.08583225981877
1.07161763101642
1.14340169273395
1.12309035639882
1.0835258869314
1.10963654717207
1.15926388239147
1.10638610188166
1.12148995788901
1.13552962464359
1.1747154761637
1.16893068428878
1.13272940257211
1.13731061579295
1.22371030837024
1.23529030999707
1.16246909975325
1.11934172429365
1.21973172325881
1.07494854376448
1.07758035180951
0.962189278198352
0.975444324981439
1.06907964620241
1.04519975515483
1.0722957946388
1.12138566099982
1.03996477872934
1.0693406315676
1.08912114703459
0.986353319755641
1.05252163781675
1.0951697629819
1.061215646201
1.02829652158292
1.00062743152222
1.0446773945627
1.02106408939885
1.11201390912332
1.10936803416836
1.05062753668243
0.996961225838013
1.05592442560293
1.24035053819494
1.19896549198475
1.06566921747077
1.0584975588106
1.20271665561675
1.23905123836396
0.995301727303474
1.14566912936813
1.10792583430223
1.12043035232773
1.13145723359882
1.05039112453745
1.043656329241
1.00190537073681
0.985158585585806
1.06608291415355
1.1066154319727
1.08175883147842
1.13290168266134
1.30753586236381
1.23155635612143
1.08431699077349
1.25578497888495
1.77280599660493
1.2714320582394
1.21696751878765
1.22261812557883
1.31093616319076
1.41528420144523
1.56808706373086
1.49764593147761
1.22260093028626
1.20258748814381
1.21749570954767
1.11579441961031
1.24217223476485
1.2714657523111
1.56322212962596
1.65556901343711
1.47048431648287
1.92592158758298
1.37087088147333
1.58061312234123
1.49976458816358
1.9105677676349
5
1.32499482123978
1.20885445185419
1.29789498550272
1.20685145195262
1.18755850532135
1.15635502156988
1.18608101916448
1.09885875377658
1.29134413690493
5
1.36796655990906
1.37728225354155
5
1.0641848848254
1.2958621916375
5
1.96987389314015
1.24070615259447
1.15887828324578
1.04335993419548
1.26662758525695
1.67946763496978
5
1.16812575427419
1.18976579872857
1.65146732855569
0.931841579290348
1.38145379486293
5
1.26691145585128
1.96908020436591
5
1.49184599608156
0.985940845279647
5
1.12627475228214
0.937064986839233
1.22104769553538
5
5
1.87298615212446
1.37234875443806
1.97051080090743
5
5
0.712544549288468
0.58443551035629
5
5
1.69270011927386
5
