3596
4000.36533379555
650.420452594757
1
2
2
0.076044592296636
0.0663630547567832
0.0625475912573328
0.0708020956812474
0.0763145323423996
0.0623387998506741
0.0620956659627088
0.067650101212631
0.0622875144415568
0.0775976456778754
0.0655635473279296
0.0718921144631022
0.068101046488693
0.0666651760273664
0.0663157627542252
0.0717585378734687
0.0652515228637081
0.0679993115381592
0.0669762140348025
0.0715076985453601
0.0573597919489154
0.0734174242351012
0.0645054095154792
0.067395643300198
0.066203912494743
0.0733559412700631
0.072325062964977
0.0671757836000863
0.0684721503038466
0.0774096192147442
0.0714054732833725
0.0715958714342934
0.0656524913600984
0.0674363704491272
0.0643360228079865
0.0725408053399723
0.0713499458502981
0.0665140788302399
0.0613386771402496
0.0692906825850851
0.0715717335054775
0.0689544699481738
0.0725034134529555
0.073290800129769
0.0591587468691038
0.0714677987781071
0.0621364414434291
0.060028890631666
0.067076213528899
0.0722339585438855
0.0646372225695114
0.0627633464251062
0.0709548717478451
0.0827573162980403
0.0765365338603202
0.0829894816855295
0.0646075157763688
0.0670751745322933
0.0688834044929112
0.0661897627505365
0.0722157387918509
0.0815255904849868
0.0668839126162591
0.0704025808889688
0.0650352763848174
0.0660608967957484
0.06141753406213
0.0633936661895853
0.0625228458570357
0.0629214742516827
0.0583106004907647
0.0721597568655045
0.0781905147953882
0.073436637037201
0.0681800493797192
0.0751150490779109
0.0572121037158703
0.0610958834815224
0.0593074768230419
0.0778862410908082
0.071251013706566
0.0699457005191354
0.0608143807218287
0.0605283256843532
0.0636056280342067
0.0790916870392381
0.0510823503384261
0.0707471496034738
0.0817228692295426
0.0739406245310255
0.0578824986230397
0.0664558659204551
0.0632985447702695
0.0640106147615371
0.0612698786674446
0.0622648561475342
0.0597991564157362
0.0648940820016591
0.0578748277476441
0.0666898462443297
0.0652933502559514
0.0765942809731821
0.0977675036633477
0.0538268406673451
0.0968910455288332
0.0873184553622837
0.0643708558641581
0.0970715450974018
0.0732094879489588
0.0771609341575622
0.0596374462223933
0.0674089181606351
0.0610199211311631
0.0735387377673413
0.0445990294293718
0.0791255480217497
0.0941015381170901
0.0701510294589485
0.0568143098235502
0.0586025179883184
0.0459172088260736
0.0876135445336905
0.0920818804956492
0.0691256368144152
0.0720923832393045
0.0576093987628355
0.0474945768906401
0.0977583819696126
0.0915490724760663
0.0640564890612225
0.0662493661781362
0.0683133355160504
0.0525942882122834
0.06319706821153
0.0888650759961747
0.0731013974545853
0.063764678684352
0.0494328053752938
0.0733960635052803
0.103293801703955
0.0714489597302821
0.0673666470440474
0.0459168359350627
0.0731693176740117
0.0913370640886226
0.0708577365960838
0.0645625875042116
0.085731166492509
0.0721573257772135
0.0617304007938347
0.0565204575395655
0.0637750853550224
0.0719673907078471
0.0718904059075825
0.0188447600162383
0.0983272578223349
0.123044416547912
0.0871495469588225
0.119428474281877
0.069190134840065
0.0681343182142555
0.0568763938550892
0.060360006632455
0.0593458749502825
0.0612693264943216
0.0564357596139459
0.0718389535979831
0.075054898292394
0.0649433901729902
0.0691921626894955
0.0906604548808201
0.0666579788028717
0.043264185582631
0.111762287559555
0.0763202700946608
0.0578123431329534
0.0888830949742369
0.0784465009405769
0.0456377072304458
0.0684734825715365
0.0798985363951646
0.0623245788603844
0.0667442504116181
0.0644893855740728
0.0614987244381342
0.0853345847979667
0.0651159498689069
0.0664398532068906
0.0625150607137822
0.0467333234549548
0.0616162355010126
0.105347162462672
0.0974169618619131
0.0640473068127222
0.0621490125937284
0.0304312028154491
0.0815981824077119
0.0835977288278283
0.0529382319398059
0.0657837347065818
0.0560094169275909
0.0611775692062407
0.0553560732392565
0.0645753573159792
0.0556065926790222
0.040509267790538
0.0963388343401854
0.0787826728039336
0.0599660085203089
0.0575599750188468
0.0581790128557678
0.0435855503300618
0.11148598442042
0.0883537684889418
0.068238228808932
0.0580018135791665
0.0596619659130824
0.0746749710835461
0.0728118062634938
0.0667177421154189
0.0573578394400307
0.0608350318959902
0.0591419146212694
0.0599455065145963
0.0542544317816461
0.0672216994381175
0.0590881511933529
0.0564867239324054
0.0542069348962087
0.0625582145184566
0.0720702142102402
0.0668803701904761
0.0652568654073897
0.0640646759728242
0.0523096537997666
0.0667101899992705
0.0766848810297264
0.0611196424944463
0.0543646174239118
0.0587473252585223
0.0549608884093484
0.058790548111297
0.0601579827339468
0.0575644495448915
0.0526245561254841
0.0574376617188382
0.0932589077595402
0.0698179094318927
0.0646087894773989
0.0502226482210756
0.0831910538187658
0.0754453022176259
0.0636457299718201
0.0639032379474985
0.0654179701348592
0.0545521356293512
0.0661721203149712
0.0851036946728819
0.0783286272163628
0.0564966978476918
0.0754776560586072
0.0712922657054673
0.0627852276017774
0.0514074816621257
0.0429587654067947
0.128911508701987
0.0743943698228323
0.0569345228671264
0.129535145967124
0.0852492670739903
0.0706450969270992
0.0569156302188686
0.02095904195572
0.148268519097033
0.128579778814585
0.0669065625038402
0.0585961380743248
0.0803678321607422
0.0638323642004963
0.0694234225717351
0.0649094974804208
0.0853388280595476
0.0899032673333618
0.0907674052266054
0.103069050847533
0.0509102815963593
0.0854246730985049
0.0940497401624903
0.0766996464976815
0.0669297368574552
0.0692239432292911
0.0592867130537481
0.0760450121091467
0.074839514859765
0.0865315608946442
0.0688410503492373
0.0644066955154673
0.0892766994844024
0.0773745573619742
0.0647587434472491
0.0694284162674006
0.0820854086295351
0.0674942661423232
0.065478123139832
0.0631619410039634
0.0748434861400765
0.0605043187506537
0.068198539847636
0.117477406101415
0.0807479491896423
0.0703597429522777
0.0951199743706131
0.0754050820223368
0.0687391142767297
0.0723630105730531
0.0803192448616571
0.0679589811025849
0.0657790712333808
0.070115990526092
0.0947205942431001
0.077070340620333
0.0791112225152308
0.0654273481024659
0.0634421011204156
0.0650925960107347
0.0702880860916637
0.0702127165948113
0.0699780713452976
0.0762977936778697
0.0642429920556702
0.0801630284552745
0.100134108642582
0.0487987281804215
0.105335284303537
0.112725822483061
0.078855335679449
0.0758446482022759
0.0789029393855753
0.0866735649658614
0.0757510583545231
0.0783419130367594
0.0770921768012466
0.0943993416560492
0.0973839222174388
0.0899870283820336
0.0814966549729583
0.0779864117393512
0.127867138739061
0.135946236985906
0.105951657229957
0.0973654167476942
0.0594115224019047
0.121547490672009
0.109695569352699
0.108829693268405
0.122114649926992
0.0917891571958432
0.0939766638359264
0.0939796138746576
0.100389300976102
0.0963447456127443
0.104435465762457
0.0959915032410509
0.0974844840631972
0.102625290615434
0.112528776057992
0.0952827202406317
0.104615212484874
0.140628294336383
0.113510175055514
0.105344656725273
0.118787143159923
0.0935662916833438
0.143344434215803
0.126144832097515
0.168554680139405
0.145506509136967
0.156916794184496
0.169196796808263
0.128934506586962
0.133032574544772
0.123824759012202
0.138921178677083
0.13242890508696
0.140580786010921
0.140962666287925
0.145888422000612
0.148855385360695
0.149553145648043
0.141617464346841
0.14775020139508
0.147681676610222
0.175064891187827
0.154329840764197
0.16540890678479
0.13835150135394
0.183064119746593
0.212534183244113
0.216911312729612
0.181054778956797
0.191604764723472
0.169596242887478
0.177698559890815
0.173450365582231
0.185515492508002
0.19252361726007
0.182798686895734
0.227175327161854
0.228556290537726
0.213526994578698
0.207898620851462
0.189455658992212
0.222298648046502
0.202608266869328
0.218814370363771
0.238410504565641
0.220157007966223
0.208996611507928
0.254413350993455
0.232733547953961
0.242812280063284
0.233958551138548
0.238284275131435
0.234373824045335
0.237122296136545
0.239843226797734
0.251213150376818
0.248512564377536
0.250101578989679
0.257882976235208
0.266499595191951
0.263714088348661
0.264736599546619
0.287842187287043
0.281284416019438
0.266631317589981
0.296532546736464
0.267240290879874
0.282383455338845
0.259384602134204
0.307430383193808
0.296345695864284
0.317173888650491
0.31771949982658
0.318370441518953
0.301538951736375
0.314643601167367
0.310708584377945
0.315813687928473
0.325874967932154
0.32378605724181
0.320152305402885
0.341997963194398
0.324082491519026
0.341241245579588
0.35088976384676
0.351361605751801
0.345769582003815
0.360715188310696
0.362964676496846
0.372798227483917
0.346539272850479
0.409617527371061
0.398882857187803
0.424948760909703
0.405106486728257
0.39639474168667
0.377310457293712
0.402397227781254
0.387262678003398
0.412697527062255
0.393099989963055
0.411455132555327
0.40387141828375
0.429541031569845
0.416950331889351
0.402245950298462
0.421739094874645
0.422998111429975
0.449455781067581
0.44230366870053
0.449256442895305
0.453786312093513
0.44271668408973
0.466628234578096
0.46965042860758
0.484713662734439
0.476868388487433
0.508808838792552
0.488771672114935
0.499400079578771
0.485952973660508
0.497830617496282
0.48986339242092
0.518002738868084
0.49275450730965
0.508843693153505
0.52821979296495
0.528250509596543
0.535879449009781
0.560973443517595
0.533927902342677
0.550700835246087
0.522500779597409
0.57146700322551
0.558476298860196
0.579098155881645
0.536959888584879
0.597628895468521
0.568671796096758
0.583405790284527
0.627103663338086
0.582578110460198
0.606192531748897
0.589535167645071
0.576398939730827
0.61777992218474
0.554135388793808
0.624590933527517
0.6608465663233
0.613668256585841
0.589726223182399
0.657657362103165
0.666192873572791
0.658807481819668
0.646843376047067
0.680125840494955
0.643773017641501
0.697511968108849
0.638502842511678
0.694789229685223
0.658884813168967
0.700757221388402
0.676938312423742
0.735571069591118
0.707878616992542
0.736061906342873
0.667206095062944
0.770500552365371
0.74508120685565
0.738237421549751
0.735273432665429
0.735530061029515
0.725377438187103
0.780545334798582
0.733427879350138
0.812673291705988
0.733238711861318
0.799667994528746
0.765366234805076
0.801026748384399
0.795401909253744
0.791337073212572
0.782772886076826
0.801336867057825
0.775810661756111
0.78643333147382
0.805813720527287
0.814838983397184
0.811040863499796
0.893824858158553
0.826021553475344
0.880615681202571
0.816860419128027
0.851554142458828
0.854295033171466
0.833785685419732
0.812969978523846
0.884574557991543
0.797178290130692
0.8753966110075
0.851663903526526
0.923660992753961
0.900329468715107
0.952312921832777
0.857887195780381
0.94570064435708
0.834636305234184
0.897822454011376
0.896817822512407
0.998433863459204
0.932266347324424
0.968575891205066
0.877416340874292
1.03133258544241
0.960865846938646
0.991903340576663
0.926148746976339
1.01574155603743
0.91116949657399
0.983900431077328
0.948444593659373
1.02839022317701
0.952597100855818
0.958385539150806
0.974303444135807
1.10824034334179
0.975573369362427
1.05203067414658
0.983898451358435
1.08906114198063
0.945614098011396
1.04137996482752
1.01454997516714
1.06901577693573
0.978600818731847
1.07221571093926
1.00206282805196
1.14101626378586
1.0339833317729
1.12634192159088
1.10943500838217
1.07094681341704
1.04387994750035
1.165308264207
1.06898288610271
1.02895857703583
1.02823715038396
1.0991129934032
1.01651463211457
1.08756062267773
1.13373931041414
1.22796841781983
1.05076018030602
1.18490691357764
1.09124124778355
1.16855604208413
1.06127263847042
1.19378389180885
1.03351383502638
1.36803359328456
1.08823904696309
1.25615847931057
1.05696465515623
1.21373452639883
1.08466647349574
1.29264708317341
1.01306030301045
1.26508119393537
1.08988462752337
1.16610389127821
1.12951639375439
1.19823095114738
1.19963745432375
1.2455382393474
1.24862987680505
1.23130178259101
1.24811616295867
1.30013114598187
1.16927592445685
1.22108268166445
1.13157460013401
1.19420890230071
1.14678068088027
1.27063327497865
1.19436814890099
1.29943421797622
1.19572713796187
1.34926552918322
1.30264506217712
1.32837640953137
1.17297946760728
1.4309625087227
1.19054430165488
1.3641783164768
1.17340904266529
1.39471821996448
1.18460237817823
1.25754383502346
1.24748341320175
1.27593047998469
1.13176576855905
1.29107694820612
1.21255577421494
1.19954898805379
1.28215703577061
1.25586616139156
1.17254755282957
1.33343078694896
1.25146993947255
1.26038915423866
1.33201984244799
1.32063416047126
1.27942776780485
1.36192237630979
1.21705395020992
1.40087631436699
1.3614142156524
1.34402552127381
1.24402672340501
1.34100087336488
1.28399696875738
1.54887258744346
1.32549600802552
1.27840726155535
1.27490814873845
1.50490582246505
1.2740302365039
1.38371043022051
1.31261053844938
1.3603330752765
1.34514389454808
1.36416712291564
1.24237888777655
1.28964398713207
1.27122052471229
1.46637437371032
1.29102031793539
1.39491145564083
1.36503770721397
1.45410512734942
1.34148269597563
1.44469709930592
1.37557579858524
1.39415903212268
1.35893251293086
1.41795772989953
1.24905823450899
1.38667078409748
1.2989375772461
1.43732932972081
1.30457930314285
1.54095295710218
1.40050429439201
1.43846468873404
1.32152813035075
1.42442045857172
1.30697074689075
1.4891133283093
1.24926518836787
1.42311829163005
1.25055547797201
1.45516327662779
1.3059512513238
1.3814489515424
1.31267825499883
1.3251288860073
1.32672917802276
1.35034576325057
1.37941868656946
1.34573114256529
1.3619163492335
1.34164034299517
1.27792980073878
1.43976919710515
1.17492441461556
1.44836301449917
1.28012886923115
1.53052379360043
1.26324055977258
1.30935421646996
1.27397746624066
1.45465669376967
1.32383398860038
1.50776843060996
1.24796308324718
1.41902486748623
1.31788167614971
1.39414634306285
1.27927122596787
1.32971822544414
1.32891748039549
1.32075465710307
1.28386645926736
1.51103690136525
1.31498588496012
1.3444663097657
1.26765740085112
1.38060497089681
1.27004185214179
1.41129709743857
1.35782786591566
1.31597787770469
1.34704283908309
1.5777500653945
1.2564522088033
1.37333836095282
1.29088074739574
1.37826732412792
1.29400631213114
1.39780175611802
1.18962861556927
1.4176105904751
1.25942930158177
1.35074551679796
1.31204569777553
1.36744099866086
1.23559075325428
1.42082305125266
1.2588977012599
1.43990729453209
1.25675916772529
1.34740347506997
1.26423136536353
1.34469110545657
1.30444473207691
1.39929612778101
1.25333347496877
1.34272840035008
1.31605835817888
1.37173635662419
1.22002326211292
1.30538555682803
1.27891815203156
1.23906343253077
1.24531581078849
1.29199108690026
1.29924288310702
1.35517012720073
1.26345354692148
1.40576493932078
1.23913144982251
1.29938657825215
1.25760178654387
1.21719184851821
1.24644890440326
1.23397124869412
1.23584590301812
1.29489325411564
1.21434945796657
1.35324526858681
1.2809438684812
1.23923266254875
1.21698903806283
1.24020917524907
1.20199092218499
1.22453583141954
1.14156659965464
1.23294443539589
1.12497433184526
1.20400219733427
1.1891617616012
1.32857153670454
1.11945209444019
1.20041412086808
1.19601728885051
1.15183018870854
1.15657171465204
1.30057305438151
1.19797183497128
1.19345559267071
1.12666233267106
1.23534776964332
1.16906733395386
1.19932307385188
1.07996055146894
1.16233825598241
1.20081589063776
1.16472351167147
1.11932063204715
1.17633511674851
1.11258069285389
1.11987447013386
1.10990923316676
1.1013797636415
1.12324361125614
1.1134945888623
1.10798015098069
1.12392800017383
1.07685207527714
1.13537153561872
1.06784666782969
1.16313503740732
1.05744065754438
1.13224444662462
1.02956452714878
1.10383552816338
1.05148598994236
1.08968888070472
1.01007783836116
1.09230941959318
1.04090992956683
1.05682513875789
1.01224727659644
1.02686324530553
1.01869379722246
1.04536356669777
1.0329089999258
1.06733962074797
0.979002377207357
1.04113325382828
1.01238581354388
1.05252208798245
1.00614357858019
1.07958198135911
1.0168942601842
0.996600980617247
0.965423814222604
1.02265345598607
0.971591021173379
0.96455281771747
0.984508102473321
0.995054945942428
0.953749949378341
0.941297010278846
0.944655821714747
0.96329595051861
0.934829084985145
0.936318961912438
0.909385590805891
0.945007764188907
0.905362582970584
0.917156519159097
0.909521871776588
0.923005891194245
0.935426407939804
0.917035239663805
0.876139564465393
0.890753702675702
0.881728744079299
0.880422393153114
0.904827741738061
0.913445445268739
0.845846555598483
0.89367163146652
0.854803631866063
0.874213355191708
0.856677705098201
0.872382618072705
0.822370330342834
0.857534930502056
0.817935886368232
0.832548516199486
0.801850443010845
0.841309988026023
0.823142001814728
0.826880392187526
0.830257459637324
0.817144002116495
0.802483672929723
0.811605750067943
0.789070407834865
0.80792561750509
0.769175052680771
0.783368394081207
0.776218044915513
0.770133603398896
0.781727103231498
0.784724566570298
0.751859974618186
0.780277860752502
0.755897014684562
0.759276047655391
0.735122523174077
0.755675768891738
0.741280007629804
0.760327619057987
0.741966548460387
0.740040350223877
0.705053172378954
0.741360480701206
0.717898503742774
0.726435378837112
0.707908053613425
0.722902887051879
0.692641263884647
0.696835648832657
0.6826285556039
0.712536603545647
0.693746777429479
0.696376607699362
0.68428492470856
0.676371990749367
0.689022661893354
0.674233868477221
0.664618520152264
0.674557412253843
0.666014328111024
0.647309205524328
0.652977297462051
0.667258344365621
0.643952625423063
0.648513454485216
0.643773258253066
0.648072961517897
0.628945281078783
0.637818208576374
0.629987424119486
0.622166720917742
0.623948986448354
0.6350695838911
0.615482891680572
0.615217224566928
0.609553635648563
0.618484817933879
0.60701948518359
0.592064724221453
0.611417638879053
0.608670471364036
0.598424324516729
0.609344262667029
0.588406410672144
0.593153276984658
0.590410024861957
0.587375893606678
0.587617979874272
0.578073028186541
0.56922768326326
0.575660088717268
0.5569367833573
0.575244003497454
0.567479390718314
0.569324992075612
0.553997124292385
0.558168297061236
0.548856840353824
0.552553740612023
0.546592793474274
0.543951406775863
0.529524017359221
0.539786860240018
0.533086416103756
0.540278395111005
0.535923221815046
0.535112024970796
0.516981124748247
0.518751486740842
0.510659658283634
0.522379280212928
0.523782363570221
0.520886726846655
0.499988142619874
0.513489595292523
0.508409542280352
0.505843255238013
0.485924476445008
0.49875595234513
0.491817805039586
0.493232337692424
0.484931927445583
0.500072191166354
0.486406244947326
0.482433823068863
0.489855444788852
0.474098201056036
0.463481313438266
0.475177320436886
0.46428684816762
0.473062887995226
0.458286620917725
0.469177727042846
0.462926410706691
0.451641433984781
0.452538299336659
0.454103397169377
0.445660348946374
0.451089296227915
0.444293398017528
0.443838837183026
0.443446579139625
0.437858933011158
0.440107839573742
0.438571527548641
0.434051481774324
0.434710537870714
0.432057522147521
0.432921980492093
0.429062764389225
0.430257416668352
0.419449786954497
0.421446678562677
0.418244961097271
0.418336480494373
0.413221592792838
0.414412236910335
0.411238869004406
0.417085459326418
0.408786809985545
0.418563847365358
0.407758121257344
0.407423427418952
0.416147545069724
0.409608191378133
0.412270108477585
0.407842013358654
0.403030076825653
0.408458637216751
0.405346850405623
0.39788820212102
0.397009412953106
0.408964139359963
0.402940921599217
0.409974579512563
0.404921904584508
0.407219784583801
0.403419527637916
0.395314797216602
0.400094586947449
0.402359788111891
0.406927506966839
0.398102584433203
0.393398517442174
0.412500234040614
0.406705760623599
0.407128616919412
0.406755179597559
0.410691386574904
0.416236828038186
0.425559833976754
0.417064364026105
0.425472934554018
0.42072223676616
0.419667320295015
0.428869815564181
0.427466680854725
0.422862263151017
0.42884931806172
0.437988333317765
0.433261414660902
0.434064631269916
0.443204706659465
0.438985228609689
0.446987466092672
0.437485651265194
0.455105842307531
0.44967374885609
0.445324882839978
0.443490696727315
0.45626104524765
0.455832598250986
0.4557816351041
0.462279866996897
0.466348630374123
0.461768694310558
0.468543559699443
0.463139214736951
0.472222489730701
0.466882372249348
0.480295898593846
0.476722065113797
0.479123917663979
0.481975125330216
0.495075788136968
0.485934915952361
0.49686075545965
0.500321709483823
0.506866304946239
0.507212968999545
0.511083422734081
0.510100399984858
0.513158116349754
0.518767997906239
0.530259623217446
0.521251262439717
0.534435742635637
0.540231577920255
0.541691183597826
0.528711538524094
0.52942436251496
0.541185426326059
0.537397888793123
0.532702418751183
0.526648622773447
0.53354987718226
0.5317433884395
0.530475720268002
0.537171495280513
0.523320243033578
0.537865623825745
0.528876211428058
0.523597018189665
0.524302688611303
0.529389110998144
0.528421712907559
0.524822928205008
0.525340900008414
0.527532088281494
0.527403587783737
0.518648104622019
0.51885488522941
0.527478831814171
0.529121096577639
0.525601638244042
0.528311208040856
0.527239226822726
0.518845314230377
0.525932677510629
0.527697207967982
0.519426644950291
0.530882953089794
0.525896553605307
0.523354712220493
0.531655649979179
0.523423768036508
0.523133387979376
0.52859160133584
0.535314887159035
0.52260910939823
0.536370427014725
0.523059275379819
0.519247593531845
0.523566775900847
0.529652549065973
0.523728781519058
0.526149695926059
0.525258778983345
0.523327679181555
0.51926814279317
0.531957063976225
0.521154302161868
0.522241914022863
0.524691571796265
0.518390835031648
0.518916959819761
0.516052858913457
0.512721440989686
0.509104393214276
0.510583625357776
0.501678331156947
0.501805620871766
0.509307077390982
0.501891916927444
0.500442114854371
0.496919521521999
0.494054602482999
0.493917992119577
0.490826807013256
0.487937526457655
0.479880880285424
0.47624882660347
0.48074893938054
0.470376229179408
0.472635937335138
0.47684429526541
0.458546388249353
0.454345084711772
0.454336941087679
0.448169307233364
0.447360359980994
0.444555768332845
0.442603642509846
0.439652191017861
0.436875446693942
0.435112514420963
0.424105304910103
0.419908527303229
0.418888680568349
0.420163357077853
0.414046498358469
0.407502824982818
0.411750103410389
0.406306483488718
0.403236070349861
0.408771140043377
0.402156069352685
0.387804904312202
0.395351720601635
0.391139247295541
0.385427307764048
0.38531932462874
0.387110175158091
0.377736980664789
0.382350553892825
0.38000148647609
0.376119818125676
0.372533833459253
0.37205464957909
0.375807236383858
0.366060591702685
0.357311011224045
0.366410022542417
0.36340147118249
0.363439400124853
0.353877958522135
0.355231459129052
0.357679033352829
0.353905840250116
0.353120346694587
0.348612414164429
0.347818917438045
0.339789430525376
0.339769962604065
0.341677593693795
0.340961715375954
0.336666788302448
0.338845156068007
0.331002187999163
0.333257261797423
0.332941505216223
0.331336427269728
0.329392519637114
0.326125182953519
0.328990425063481
0.326217551191831
0.323694519201924
0.320036447921902
0.318647091442659
0.32301662270319
0.319880739444372
0.320459300941772
0.312566845901413
0.317765795949356
0.317261162998128
0.313055473146637
0.305910047542297
0.310621053678505
0.306238224681263
0.308794914113602
0.307953877679079
0.304164229813874
0.309358988021693
0.303813613011465
0.306384750869864
0.304552838023718
0.298716145213559
0.299615570060359
0.302329038431034
0.298898275726839
0.288412178458184
0.290660960793977
0.297186707015766
0.295266995291884
0.293149908180035
0.29864859061696
0.294038985144801
0.289253939859321
0.28869780605505
0.288558688891532
0.285985082708082
0.285644006764408
0.283012410821324
0.288641348336608
0.283431762393646
0.280491928640227
0.285701655137525
0.279440488725646
0.282638622758573
0.279078809389355
0.277287132958366
0.27954259383103
0.276288955192391
0.277629179167426
0.276182271615435
0.272853573979706
0.273097138847845
0.273109314948299
0.268848321038085
0.272229115769554
0.270075876246343
0.269812981839746
0.26712199533545
0.2701158861926
0.26574228404459
0.264241859572444
0.266103730812269
0.268637136755304
0.262393323366321
0.265761942232195
0.263748781530151
0.26666143741689
0.259653027974333
0.260719232220037
0.26465441994255
0.262967940769022
0.260183559728779
0.262884126558297
0.261893922985624
0.25931170458189
0.260108490940838
0.256551401629932
0.251562838238364
0.256302422386603
0.254759710431469
0.256552923881659
0.25633262507761
0.258140287520175
0.254864521256943
0.257019533675038
0.251313736397831
0.256565297629
0.256317357549377
0.257006642499227
0.250368910545294
0.253266903215608
0.249963443910534
0.248407657604759
0.249251144265773
0.245964585170479
0.250741349785049
0.251063696403018
0.25040336086154
0.25273696430551
0.247171413230263
0.246726097352642
0.243689116180564
0.248727422443394
0.247451533904848
0.250684344620965
0.244593964837124
0.241030196984474
0.238326383782546
0.24289265410903
0.241518393122358
0.241929039994064
0.237609824699788
0.23668261701124
0.236417348950571
0.239491797769465
0.231812582636022
0.234546823707947
0.233235464668869
0.233976206661924
0.232603519162168
0.236951684768039
0.231093265509857
0.234345129047581
0.23070223921776
0.230718071646202
0.228165289650801
0.229759011667179
0.231446162019225
0.229714401804829
0.228015729288414
0.226448928710997
0.224880271686405
0.22906730295112
0.224823201296451
0.224628277704093
0.22194037739377
0.225748547957171
0.220657525360289
0.218871984512294
0.217006082987157
0.219601333885147
0.216533913969907
0.216138793688829
0.214381430445512
0.219488083572548
0.215600073044109
0.214982083704095
0.212395245509474
0.212216925220239
0.207554373182243
0.214272727599908
0.207482904497692
0.211011564502673
0.205684616536615
0.203926558178938
0.205083728637454
0.20846556458229
0.205487685654906
0.203025177032958
0.201219295215953
0.202654874567412
0.201487867184849
0.199662003053192
0.196944435562649
0.196200564688007
0.194241152998975
0.198949371915815
0.194759974132576
0.194533335907677
0.192386804884769
0.194513854338873
0.191529142469245
0.195828243203211
0.187995125638075
0.191386296726253
0.187847479041558
0.189159404066099
0.187257995232598
0.185782958667608
0.183710330643966
0.183126191732981
0.181679323119298
0.184006524510039
0.180551677990893
0.18444544665689
0.177826171865779
0.1784159737411
0.175866117382515
0.176762578715671
0.171833129728914
0.175166841884378
0.173902224925695
0.178360104905127
0.170664654993448
0.170069702957054
0.172241031801007
0.170167183255442
0.171587074591111
0.1729722323963
0.169716307237366
0.172953729292168
0.169254371426359
0.170547959714884
0.166728267806944
0.168729088162661
0.16728768704714
0.165792456865746
0.165771579126308
0.168264311229598
0.162890189643675
0.162549528757921
0.163849850997633
0.163020908591777
0.155605234983864
0.160827219985348
0.159026075161815
0.158794783714646
0.158275834792577
0.16040981716851
0.15970793298879
0.158183080962873
0.154609066327399
0.155962362547341
0.152757722817239
0.156839342297845
0.153022317175877
0.155950161623852
0.150796634419416
0.152125250997607
0.151872729319547
0.150834512587031
0.147354786039448
0.153372688524603
0.150168160565134
0.15395836542061
0.149158517585215
0.148073597472331
0.147229745179502
0.148311634176147
0.14569484150315
0.148733265708882
0.147571911753955
0.151107310884841
0.145893144074434
0.147734122472902
0.146331055010167
0.145288406517899
0.142200604304238
0.143240378619349
0.146013755509623
0.149389284015083
0.143786595144095
0.144085077809659
0.139342546039902
0.142587748236565
0.142608514211322
0.143360284222905
0.143859327049666
0.143549488681377
0.138652827519726
0.141038711936451
0.1403798563997
0.14368553702429
0.137143834815966
0.140352278330314
0.136609404612761
0.14139393024267
0.140176401015292
0.138720201030247
0.136747146057923
0.138025540451835
0.13674411696345
0.137550256973323
0.131452577421136
0.136510503315659
0.134183724101192
0.137223021255766
0.131984970918404
0.138085705184874
0.133719718379886
0.134259818825066
0.132284115668465
0.133220858256545
0.132456953426355
0.136107837529301
0.132951648626298
0.134264349417958
0.13158958132279
0.1322404944542
0.130098333798558
0.133855454462543
0.132055860847206
0.131206137165481
0.128640732327395
0.130874602249249
0.128207267261735
0.130900946701564
0.123543314881717
0.128299889196091
0.127874452682575
0.131095799883311
0.127256158804117
0.126477862025637
0.120275249110058
0.125971819668706
0.124178841749974
0.125132613980539
0.122423614563144
0.124136823179303
0.123816526548646
0.12811288324754
0.12488094124105
0.123249617467472
0.123693182131441
0.12475794630616
0.121163545438648
0.122038194212685
0.121266033839515
0.124033623044842
0.119722384558629
0.12550089695295
0.120219767660234
0.119894181735832
0.121046894344412
0.123053616792982
0.119030333530843
0.120561390702917
0.12007440224105
0.121857488138197
0.119365312571614
0.121310270965845
0.116911870772973
0.119376464633902
0.115311679727682
0.119219263229754
0.119144593576644
0.117400359661348
0.11433386246594
0.119048608444326
0.116317521446343
0.115906723138494
0.114223326192129
0.119594905251906
0.115478664325308
0.115114060592595
0.113179437229183
0.116396602518623
0.11089279907045
0.111392983350093
0.110194417933011
0.112429106910311
0.109026825501253
0.112240653765004
0.111942688358655
0.110425797694868
0.106609558357593
0.110572833800812
0.105869527370778
0.110024613632851
0.102822277248791
0.105719610529502
0.105399157919915
0.106868724992342
0.103542619472272
0.106722811395906
0.102185516381342
0.102843269965994
0.102958841540857
0.108418953209652
0.103125456290316
0.103717110560119
0.0988568588499101
0.104137869525626
0.0999187231706305
0.102085722883312
0.0980183055673181
0.101100811624941
0.100511162860672
0.10431627778305
0.100046710523332
0.0989215922386175
0.0971552829634473
0.0995604145680039
0.097842551766136
0.0988548527989434
0.0937999488721118
0.0976812500057008
0.0959952687613478
0.0992769294944514
0.0960136483671495
0.0959704465975642
0.0949816538737985
0.095980567969175
0.0923245914103919
0.0969066465720742
0.0933283680227399
0.0973793828494733
0.0946016689622631
0.0974875091687814
0.0924897098064997
0.0928372615152533
0.0912621955088151
0.0932460737625946
0.0879961994763341
0.0937829291233906
0.0901267549086348
0.0919332029302517
0.0869131767898474
0.0894855323774609
0.0873875792414314
0.0925344195292941
0.0885307176114783
0.0906493918354018
0.0869445072819402
0.088897300914419
0.0839361365078874
0.091074252379802
0.0862179799001869
0.0858446224490117
0.0843984822324183
0.0879482364376563
0.0811156378466963
0.0888894102063929
0.082264352744727
0.0838997237833096
0.0829811107292257
0.083848719086589
0.0825104041702361
0.0845826295040085
0.0814141137886857
0.0854783484964221
0.0816700353167068
0.0835258688619279
0.0838857762148855
0.080916295442021
0.081377686276901
0.0822740657162083
0.0779691097193032
0.0812161793825006
0.0805909901768435
0.0830908025740452
0.0771495025653967
0.0825296559164204
0.0812359779608531
0.0815627208735123
0.0783907867937035
0.0800376709539992
0.0805541005956519
0.0808540031210123
0.0764218608944943
0.0835330279554192
0.0782489332809494
0.0805268537631852
0.0800962281938564
0.0832233324710742
0.0805713889691461
0.0839251926659286
0.0804545259195925
0.0801175334042472
0.078113202621765
0.0813531091650689
0.07862600897781
0.0812086075957997
0.0778914766179248
0.0817884346840889
0.0794573750162215
0.0868750215672796
0.0768104340031383
0.0794174679779971
0.0740391701641465
0.0778852165488829
0.0769095566095027
0.0771495463684203
0.0693464484810969
0.0780359347669776
0.0747220039260175
0.0712219171239802
0.0713630793975801
0.0832182334927699
0.0775319448398274
0.0847652159565516
0.0716624791377656
0.0770252237231146
0.0678299039982986
0.0779428149594467
0.0765021126286455
0.0797820503285809
0.0770431202250483
0.0822430926618411
0.0685202314048041
0.0738211206114237
0.0714838577755369
0.0747975893329896
0.0743509915207474
0.0702382629367289
0.0685312088885393
0.06891914254975
0.0720427449287043
0.0702365906858049
0.0717097436704186
0.0709848946792474
0.0719347919667263
0.070485382733281
0.0721890886702465
0.0692695575866328
0.0770390329049253
0.0693222687313811
0.0804709348273224
0.0676894827756494
0.0836970700250602
0.0672873994000828
0.081781082823517
0.0626541832846266
0.0897874242043529
0.061703907675364
0.089685320926736
0.0586819777690642
0.0896151167680637
0.0620161363184194
0.0873066745716026
0.0592864971915173
0.0854940926661254
0.0675263206958653
0.0808318057997274
0.0669864613646625
0.0745692230266993
0.0723851256755813
0.0727628818637126
0.0809629552120685
0.0668767677825929
0.0804432839544986
0.0652015846911762
0.0814532211463692
0.068109109606308
0.077824054113654
0.0681943525666951
0.0756444088700639
0.0714378267080608
0.0727789053037865
0.0691207356357646
0.071988753191814
0.0677047486157925
0.0692878963643972
0.0685964440551521
0.0706805886662198
0.0656518149308085
0.0728391203517288
0.0661319459267981
0.0707628050601063
0.0664803733417252
0.0707611214454736
0.0677759545920839
0.0712137233965469
0.0694327637011075
0.0709772073117336
0.0681317529360551
0.07061741831751
0.0665129319917413
0.0705962092598284
0.0676694301052547
0.0687127998912083
0.0683917338456188
0.0720591286476079
0.0667828557604115
0.0690049389040284
0.0638462410870148
0.0715074313166927
0.0667854345682453
0.0700649827307667
0.0678229898594638
0.0717002170484188
0.0664215752156725
0.071935935515363
0.0659546988868318
0.0696415836002068
0.0655502728450911
0.0689543306385046
0.0667650674194054
0.0704410177850011
0.068539912421249
0.0699259378735838
0.0668882132357823
0.0705724572601615
0.0713903585962754
0.0699127014660611
0.0684693070058349
0.0721994730654285
0.0671750892337115
0.0719158073786654
0.0665056995857921
0.0695685839226104
0.0658485589784555
0.0714995073034402
0.0671057510215673
0.0698012927987138
0.0688880437398764
0.0726222247705506
0.0680796129527358
0.0713346295748479
0.0676843832116061
0.071016444013929
0.065960561564369
0.0713452117359261
0.0663804248369058
0.0680122756910915
0.0661667280461655
0.070022971418809
0.0663185455542201
0.0718496241142292
0.06544997632971
0.0692967921228531
0.0657352141151062
0.0714712062216949
0.0690713492349164
0.0718080449069306
0.0684292058542264
0.0734055864688291
0.06910818867522
0.0741983476064844
0.067465297891551
0.0729352567544599
0.069480490542481
0.0717007583216369
0.0694913063057079
0.0724698905265207
0.0667311821647971
0.0718905641116773
0.0673395383563003
0.0721610571234661
0.0688851393898593
0.0738968762550402
0.069934600470149
0.0734642022644584
0.0686776162028649
0.0718203671392833
0.0696617567693562
0.0736086021051866
0.0710534965884951
0.0749408593903965
0.0704865303931122
0.0745148686552758
0.0686601901109442
0.0721608756336586
0.0686265075126873
0.0750890444043676
0.0695812146970864
0.0731910085099446
0.0714703687231177
0.0757913876539808
0.0710502522749451
0.0738380546772253
0.0725146703594834
0.074078636715397
0.0699828426727622
0.0739137584974193
0.0724815278954194
0.0739772190806119
0.069010873876251
0.0751324040129853
0.0724834105400397
0.078159765222738
0.0711663577831419
0.0729618882269425
0.0724050397865393
0.0765525918862507
0.0726053928320639
0.0758854996114108
0.0731904315270134
0.0743507895943284
0.0732207304275496
0.075438219993025
0.0708219988848919
0.0745895970149788
0.0744507532998291
0.0752658620104928
0.071246424286299
0.0737465543516991
0.0708706966838907
0.0757332928266192
0.0733734606994523
0.0785177324164387
0.0739328414204812
0.0774946640006653
0.0715081423056778
0.0768168366942168
0.0752354509438709
0.0801469065653889
0.0728417805969282
0.0787965205392288
0.0743184072801882
0.0781366899960991
0.072343159184924
0.0790861922346214
0.077558000205997
0.0775525374373987
0.0750248682482995
0.0781837976721966
0.0745178593044358
0.0801231736797678
0.0765973873221847
0.0769603127206246
0.0745057965733722
0.0791486721587249
0.0740999326211846
0.0779616766012189
0.0729905217503141
0.0756515479495961
0.0752727895626223
0.0811601805860201
0.0764893468644235
0.077650455166679
0.0780160846387009
0.0799226498980811
0.0734324101743192
0.0773132768250306
0.0747035298592792
0.0749392667141511
0.0750337728568062
0.0762843085062719
0.073027047325009
0.0752601103684941
0.0731592313185429
0.0746178160295565
0.0699549721422721
0.0774827907865056
0.0719725121234028
0.0771350178854862
0.0722274570514624
0.0785695301248771
0.072625247029485
0.0747044769457475
0.070269875506638
0.0754588878103227
0.0726546728924732
0.0745539345928977
0.0704246003906532
0.0766690482551442
0.0698574784641735
0.0757044680858811
0.0732976240887612
0.0755869801220943
0.0703791524119437
0.0728668291016625
0.0710057058735063
0.0737961530998814
0.0713759725165823
0.0717545397003024
0.069753449805534
0.0766602800998331
0.0718105480486491
0.0744101321149504
0.0719831949898426
0.0728356443457701
0.0669755611487665
0.0723510496363096
0.0693011096366948
0.0725040261219126
0.0702225162480375
0.0736190188933729
0.071644742735164
0.0735772818854451
0.0695688210165811
0.0731009795054946
0.069866748261218
0.0728181945542179
0.0700449373839504
0.0744061085232677
0.0701098029575626
0.0723988849855761
0.0695676486157692
0.0728289263679254
0.0683421895264008
0.0712745393302499
0.0677817403594552
0.071673504586591
0.0691595792071006
0.0744656023714143
0.0688913094759333
0.0736456361469688
0.0693415126651672
0.0706300915657613
0.0688813616303289
0.0720946810230494
0.0680541942495109
0.0728021720388256
0.069562674695552
0.0718825270207928
0.0678593926313018
0.0723724568524395
0.0691747145796409
0.073205401479416
0.0680368710601806
0.0709928488876842
0.0721114866129655
0.0736949736425654
0.0682902230588555
0.0717754140501904
0.066113952960915
0.0707829728703076
0.0666122668106069
0.0710199220597974
0.0688975040273549
0.0696042620493816
0.068638124470514
0.0712895063140349
0.0700486337195924
0.0700659396056757
0.0681561746928435
0.0710961194309631
0.0655136498483247
0.0674485497078196
0.0648376467150057
0.0684842389982853
0.0660430492857863
0.0712180229429674
0.0677774528595113
0.0723897278593177
0.0645874854230364
0.0710785057108484
0.0654949237424561
0.0706773412647891
0.0676228433550104
0.0669968054314943
0.0650491451347962
0.0684063855288897
0.0656942226485432
0.0686324165457885
0.0635649198619151
0.067454792166699
0.0640498979839045
0.0675997763579062
0.0643438909748454
0.0659897205785811
0.0636164760521036
0.0618570983101684
0.0631960358950074
0.0667391313070183
0.061935861696445
0.0647077655574349
0.06242013216663
0.0658477416705212
0.061919730247547
0.0629980774228557
0.0608507243344633
0.0695718750038403
0.0656768588438528
0.0659168518434045
0.0576436231467998
0.0634405479851794
0.0608291124403714
0.0624640331796379
0.0583118602195414
0.0609020832114348
0.05867750522282
0.0632370683305687
0.0581530910412394
0.0636068864257652
0.0579763327206483
0.0604340822788957
0.0599337800035449
0.0621953708758834
0.0562826305230202
0.0613997905193758
0.0581147896499784
0.0596762870084168
0.0568946722847674
0.0600820322601228
0.0582600395136167
0.0613878485790063
0.0574673643605584
0.0580121305044278
0.0590580221547963
0.0662574842479128
0.0578226307164867
0.0606976065930368
0.0570122000588027
0.063291702135442
0.0565010472249023
0.0586336765038286
0.054058235158331
0.0595740558822492
0.0547042536742719
0.0603617033920957
0.0565647280793001
0.0584547903913078
0.0558618934031462
0.0589390489068331
0.0573052060429415
0.0574213659366372
0.0540906297718378
0.0593469465557593
0.0552170567139369
0.0582365385548843
0.0528648303295133
0.061001161420034
0.0544280262116527
0.0535052453656654
0.0538096427219451
0.0616316188152698
0.0574381431502644
0.0587297776844204
0.0531784589110873
0.0568361990434413
0.0519249669159849
0.0565360617739653
0.054126908887556
0.0566932245841474
0.0523669626127828
0.0565553156229761
0.0521172127551089
0.0559243543171737
0.0519213860081344
0.0549465432733025
0.0510780549532272
0.0569874698718928
0.051228583301654
0.0562784759368727
0.0509015305691722
0.0571151288925332
0.0480221316768881
0.0533217308355541
0.0534372827286524
0.0584332373566173
0.0496301908268099
0.0561798937227596
0.0633174265372842
0.0594921153010038
0.0523908020461101
0.0554568524704493
0.0501409622491939
0.0549564409091751
0.053185574990953
0.0515011292389233
0.051869093192799
0.0556213721906542
0.052579093348256
0.0552403284412204
0.0514868021646537
0.0532825759155276
0.0519592028444904
0.0509605791493689
0.0520834541996065
0.0532249200068216
0.0514527992825315
0.0507908219177524
0.055611601082218
0.0645215186270659
0.0558050078254016
0.0581427833836465
0.0519725368865446
0.0502086798169325
0.0625397138010769
0.0641001239929054
0.0509994140865526
0.0533359887015981
0.0504443630305143
0.0544288881453828
0.049795604636999
0.0537535756927761
0.0505336641061688
0.0570673406647279
0.052026297097829
0.0576390298466434
0.0480603768995361
0.0515354458984126
0.0481394581487957
0.0532647745616405
0.0499649447975966
0.0557513636423132
0.0476599084226759
0.0536004899922902
0.0510771650745378
0.0511854546241689
0.047918302512553
0.0529136392726252
0.0492115011738845
0.0594802477658032
0.0513242272484673
0.0555328580188351
0.0495849379715841
0.0537329611877773
0.0527424912056545
0.0690116428583526
0.051128652748599
0.0564515995273859
0.048298239915115
0.0539984933832887
0.0510935072676229
0.0558891905945448
0.0485646679266385
0.0535244951343694
0.0490280810272514
0.0553051572862131
0.0506985448715854
0.0526916787049871
0.0481456844799404
0.0527605364966324
0.0504841631315279
0.0543454054557264
0.0525446544141811
0.0532395253609025
0.0528046799761728
0.0539522760193357
0.0582582320653897
0.075657928351326
0.0595981961487721
0.0641986439380613
0.052631694296793
0.0555838698360399
0.05079913369474
0.0539904711523836
0.0488423518434472
0.0583503639038295
0.0488037090017078
0.055507543774949
0.0494273231652978
0.0533710202882775
0.0477186186759038
0.0552832103096081
0.0481652888223506
0.0545716113019183
0.0477210670207504
0.056751082749736
0.0479529722392757
0.0561003986286045
0.0470780847617939
0.0617182959930565
0.0533558617657158
0.0620646260577828
0.0461251147154463
0.0799819302281656
0.073437662394692
0.0557015030208279
0.0579533481018105
0.0545841847018978
0.0549212281092799
0.0552120222535537
0.0536063084656059
0.0598956003921878
0.0538557710666386
0.0544370133819106
0.0528980540209941
0.0590575678945732
0.0564671726116
0.0527609912772771
0.0537365032802014
0.078293256870391
0.0616665129989947
0.0601749728382569
0.0509335831188273
0.0596329282338892
0.0740554991874497
0.0605676156271412
0.0545376218146173
0.0610721377539229
0.0559983007633397
0.0572371160602996
0.0560118924932594
0.0558769184201182
0.0571580627470759
0.0627868735986641
0.0530722512073743
0.0600522107459779
0.0523806248260373
0.0632461552843774
0.0547546656724988
0.0701995321463782
0.0660780422011506
0.0598633497118873
0.0588956806464548
0.0620992764508822
0.0571458946927351
0.0602938107923323
0.0572232354066042
0.057911901592377
0.0662342901605699
0.0734823063949139
0.0587714555177326
0.0759328961952635
0.0653521991843814
0.0593480079557462
0.0601782259946283
0.0670109685796928
0.0677820175349128
0.0588601801366194
0.0607011656477733
0.0921567949055991
0.0662841513015976
0.0840676878465196
0.0570007335658714
0.0703179381326716
0.0587143536047186
0.0664907363609907
0.0556493786598439
0.0817046872800682
0.0628389456262809
0.0673439768541368
0.0575053692995961
0.0767391102026897
0.0715867086117793
0.0703854932601597
0.0663865817912473
0.0682693684042919
0.0656426849480894
0.0767613435141019
0.0703773694080021
0.0619046975713502
0.0839693157041704
0.0971644845788858
0.0838561271814398
0.0782968716367098
0.0599727749308772
0.108570343998366
0.0714870559963394
0.0754533430599248
0.065016656382887
0.070794671745785
0.0681713497209616
0.068213934664739
0.09261990687466
0.0791542608129532
0.0674458645659896
0.0819472379537941
0.0646587237106595
0.0949099294382377
0.0825935298341666
0.0792764187195413
0.0717310224818888
0.0846847424800107
0.0643258976656825
0.114721502203634
0.0936814909430081
0.0856346288408187
0.105700043028195
0.0923972914314063
0.0945737342686191
0.0892213297164571
0.0889917022170422
0.095045868342794
0.101784288751657
0.0923400497232142
0.0819008184423655
0.096993340228523
0.115913219673595
0.0903202062158905
0.0970305728440728
0.0924661636887925
0.0866402831660505
0.12126304536684
0.147789504444869
0.123727512652495
0.101333808753132
0.102197160843449
0.127323798656683
0.106930250783517
0.103910667808254
0.105554980003717
0.102038965518601
0.104436502536438
0.103570300137313
0.11762273122457
0.107669214794792
0.113454601125913
0.110648355607531
0.109314637403075
0.127575153948312
0.155251483669396
0.156568890419145
0.124666032600122
0.161338915187292
0.147605101679449
0.131757392538535
0.126831679636869
0.125610942919523
0.141664724708876
0.131880748670838
0.13670086089438
0.127250802501064
0.158529839399055
0.150232331579983
0.143037729862313
0.165096947761336
0.142524190196537
0.157988882401116
0.133439821879719
0.306370682644824
0.183446164960481
0.174936399468171
0.176038281048906
0.16914123135099
0.265340432504849
0.192664484879617
0.190626192420228
0.19351573951316
0.197027034743064
0.204876696496127
0.219073651350313
0.218082410827175
0.242069256651334
0.234308979113377
0.232030256009805
0.237833664027411
0.329377195083074
0.285059756041496
0.29051815139681
0.261299899416773
0.295034954745492
0.291641864900093
0.289921940920745
0.29568309244924
0.303247762148092
0.292953786943912
0.379926131738843
0.321634200899017
0.341013375761329
0.333795929607593
0.386520884463846
0.336434612065046
0.4166981430831
0.39597464360002
0.378653039586221
0.389268619387675
0.382465366858291
0.397579116231762
0.390779936656942
0.440966905493183
0.441220935556273
0.423961943304168
0.435080241364021
0.433198549449472
0.448779818685793
0.443071973256798
0.4579093320944
0.449835400855998
0.508305342383799
0.478426364332464
0.645551495890692
0.50194623209381
0.473243001446498
0.47826216492607
0.472844335957141
0.510675792644232
0.496220918415251
0.497961119689541
0.512764013760987
0.467616509258506
0.489881088018807
0.470317579000901
0.495968863769154
0.480679450041967
0.499672117118054
0.469134622133319
0.515133223217556
0.477363694587632
0.518862587908427
0.556137808440079
0.481358413648014
0.489539176153482
0.480388170986938
0.476104467376579
0.480851740683946
0.486970450766392
0.475593573246719
0.497599240245804
0.46464357750468
0.471518599707652
0.452165461218559
0.479250725914835
0.488999701262193
0.446902776440209
0.458234342092084
0.435052319600682
0.437771316426246
0.425245345966553
0.436207647322234
0.499153059007421
0.428702168611181
0.422139641075239
0.421984692379919
0.411940625478335
0.413204172578523
0.407148064080767
0.410083274336307
0.409567060346185
0.404371500398201
0.409312474424818
0.399486828351385
0.394148298688398
0.396461542017441
0.398369053237133
0.394182133173449
0.389082345322084
0.398029845252329
0.38652701361384
0.39394802403901
0.389484441261841
0.386573845992911
0.386659446179621
0.390732499212778
0.395246273420703
0.385346657083647
0.381326139938808
0.392180395385865
0.376516911188672
0.385054473112095
0.384718015298614
0.385110895267029
0.381146847952779
0.387903656957671
0.373993878744906
0.383556668822773
0.373042471126526
0.383520403533069
0.370524674438472
0.383188195838635
0.368791180597392
0.394806223961104
0.368210824945421
0.421930341254035
0.403458766903756
0.36042167888969
0.378434385065893
0.363640898389241
0.368804988045251
0.350340600890253
0.407055809510495
0.377641714022069
0.352267584683368
0.360402424407878
0.348122472592207
0.362539142643347
0.354188674395631
0.334790467742473
0.351229200764242
0.335214089747529
0.357911176918343
0.420624797689529
0.379564740499831
0.426946245211624
0.347031608332101
0.331632044532836
0.313348545490228
0.382999441958882
0.321515603917227
0.326952231218404
0.316348208618855
0.365819046853406
0.338213903931886
0.317212084587202
0.322954159863848
0.31015469280708
0.32774980519398
0.346316614879015
0.3170034033087
0.325749157011837
0.351763965643211
0.323041928013581
0.346362043860128
0.357031035245186
0.327660449544603
0.293737761423825
0.292265090535543
0.291291924888163
0.280665536719017
0.346083779526053
0.287580652749114
0.293266682830753
0.276508021921851
0.267050260678458
0.276663831338886
0.282521374760559
0.28630450840741
0.26607759411392
0.310355182853636
0.250963434705851
0.270965402978943
0.275933876810644
0.291513619201175
0.313862565259708
0.263830701212114
0.250824229065829
0.273295397381128
0.303472683032804
0.247705001645327
0.264842795528458
0.237587995048947
0.241115163432277
0.264022696041097
0.240109695502184
0.247517278796236
0.257679692683607
0.239654793376657
0.294774891113242
0.280571710161638
0.278581859409407
0.238166817389404
0.221739221898556
0.228916673311904
0.223100798510597
0.229463917892158
0.222453573236424
0.23793966948374
0.248556424527426
0.204704897684938
0.289669149454372
0.231297826061361
0.227136163258298
0.2323708224315
0.230212698782855
0.232445292603813
0.267857687290778
0.268026855367488
0.263150375608076
0.239802055337844
0.277660132387797
0.240752766286171
0.26121191017421
0.249809394710019
0.262145376172978
0.258465265536866
0.281635393547479
0.266266009950596
0.277283939733268
0.279979593636917
0.299155927780765
0.295216774043738
0.339826990434966
0.287541236893287
0.345070717010853
0.332245603584574
0.373408319458549
0.34672598162809
0.335087765043766
0.346775980994901
0.344782407248148
0.358153736989156
0.363715348428182
0.362097834149372
0.415477082728448
0.364588888475898
0.387305598255112
0.373594855924445
0.400271094607241
0.388103104632996
0.43934672512422
0.410166804804601
0.429670646142507
0.461940660568984
0.409323261033673
0.417560234273786
0.404177448633175
0.426156258057305
0.419474609620978
0.411190161618703
0.422363345052594
0.412323000414515
0.444980196856135
0.42967325633784
0.431874305709107
0.43494343791877
0.43148008553569
0.43102427338381
0.441352726870243
0.439995109015486
0.445096915279241
0.438525388812229
0.461955225565317
0.429561584957941
0.541484756474707
0.473436284336157
0.464853221164754
0.470816013878067
0.471173000078936
0.480941826949113
0.476150566094263
0.496378567315612
0.493362710373505
0.489997618727118
0.500773431386435
0.492432610376212
0.505311814912096
0.50596533552736
0.537545448375138
0.501996645860111
0.514846553115725
0.509591785134044
0.521388797963495
0.574377386848755
0.520631449243319
0.551690371159071
0.522833590475325
0.533379181024783
0.526925012932513
0.533986368295337
0.529190444613132
0.538757590570711
0.526374675459904
0.533710301877185
0.539287376950394
0.531815179419178
0.537314641988724
0.527239264853097
0.562597415249907
0.536457553494909
0.535735127111539
0.52987087413101
0.536489138125259
0.537201013126838
0.547513392168302
0.550502430506319
0.530959837504658
0.539198534515567
0.537799667643498
0.549561741232964
0.552316379732672
0.523392388303126
0.534377845076639
0.529798781742634
0.530277026866458
0.531350470044537
0.532288196163003
0.570699980287685
0.54307533473717
0.551104895415736
0.538070323306203
0.543325114054761
0.545536479304303
0.555976568822484
0.547100366218257
0.554077423610499
0.556868868389642
0.565558479652205
0.555880398979492
0.559639852227195
0.576791340142506
0.5650607399088
0.565027715595892
0.551423377686249
0.550314986952994
0.551330289024872
0.544922407381881
0.552787871071968
0.549299281323565
0.539371565664132
0.530694829539171
0.528142472227292
0.519362282650882
0.547230459747369
0.524943424105376
0.521411964168492
0.512443930691275
0.501303986153517
0.508073197992256
0.494778664544524
0.492727770192442
0.492477383937064
0.488214345398331
0.479498623809187
0.481213381214217
0.477721603559652
0.481688591804079
0.472903487141972
0.473666938709395
0.474026192707319
0.474856648034417
0.473054209552002
0.474533616500954
0.471384269559154
0.471797275232545
0.470786561268762
0.470828660475009
0.476472266527546
0.484032348324486
0.48363008901223
0.478595879015951
0.466920436422478
0.475876977326032
0.465879303303608
0.47306807678296
0.463993383816221
0.47329706279298
0.465670646269699
0.472371386043001
0.461711381276747
0.46784817984695
0.460533878258022
0.461256781241994
0.456488695556847
0.464394368118101
0.463301672719043
0.459390854636503
0.457128576046368
0.461540209202691
0.462874149591653
0.462456176845145
0.463841504608985
0.461166260960375
0.466015451868359
0.455139432169145
0.459244406063417
0.465332974192547
0.466556863905919
0.46966692782306
0.459072537130074
0.462261521686518
0.461684004797521
0.463830404221036
0.459850071560579
0.461824779047029
0.45432705024689
0.458019706413659
0.450394579750407
0.44982859987982
0.4459640985227
0.447732413841432
0.439671193324335
0.440578165969192
0.435050625531897
0.431398475994419
0.427556059941121
0.422960463982683
0.420085297370893
0.415684914247077
0.412648117339365
0.406405392418912
0.408253832351742
0.406286243514809
0.40541886062851
0.404541697085562
0.402087229525261
0.40240723135991
0.40197698930032
0.40208488787846
0.396971630069295
0.397641094569277
0.397328197410489
0.40037089949505
0.39858049281929
0.397583040300916
0.400372803434886
0.402840554448721
0.400170652975402
0.404401140013105
0.400144741287906
0.40507365087407
0.40991131150939
0.405238449041549
0.408579569647637
0.408241634706777
0.411403550682447
0.416789596578223
0.420632088717741
0.42115298329773
0.419305640951905
0.417972264733069
0.420341993134262
0.421923501010399
0.424510485740967
0.426601153738576
0.426539234757139
0.423158963975748
0.420955826412552
0.425271490268487
0.425930723200971
0.424796244239511
0.420320942281543
0.417370281678598
0.421710719322943
0.418278079466478
0.416458179495163
0.417518988422869
0.413746135400409
0.413915367798281
0.413514817294488
0.412891676416402
0.409025221361517
0.409025752646672
0.403614093238226
0.405190690012813
0.402645251604813
0.401779230400271
0.40289171420012
0.396851311284662
0.396094569498846
0.397129564158703
0.393576336873396
0.394178011170444
0.390463472373579
0.390807673037357
0.389890622742309
0.388195181894987
0.387773877594463
0.384684002247788
0.388210438109839
0.385191801705569
0.384724855363312
0.384068808797773
0.379110846665137
0.378070268842701
0.377382011353499
0.37510356598822
0.371805932121446
0.372099342370093
0.366864434927865
0.368660283863416
0.364279419131335
0.359267092917526
0.356407476877814
0.352423384644936
0.353461407963324
0.350219523849421
0.3451084227081
0.344319194758596
0.341663943904358
0.341495800817689
0.341663452957817
0.340852131491578
0.339446465752101
0.337952160088446
0.337751999515225
0.336855923299809
0.335633943176703
0.333888256740642
0.330845321040109
0.332428559292218
0.3267393720908
0.328997177896345
0.322837528874875
0.321223127053444
0.319860569348887
0.311401009408775
0.307929991607991
0.306060458653657
0.29890502153867
0.297440382677241
0.295678636964679
0.294526455648541
0.293596515358862
0.297134863890971
0.299060260733419
0.304152104684133
0.308562720055198
0.314411246684706
0.322726490480141
0.331294594850499
0.343075008787793
0.35511697044602
0.368044510810781
0.383088055413638
0.396761492569965
0.411756345244203
0.426542364287486
0.443670222511099
0.45748079916128
0.476005913939117
0.491684512691825
0.509284233576099
0.523435648912469
0.535855557552979
0.553173266245309
0.567113759096297
0.580791715942651
0.591571854400487
0.603418760181806
0.620892590420833
0.631807116106454
0.64359639336203
0.647447218494265
0.65510439393237
0.66448192148886
0.670922488694651
0.683146171919418
0.689909143553908
0.696833740472385
0.69953746146409
0.699122963365559
0.704533724221419
0.701203432443297
0.704373858709632
0.70274964570591
0.706689253396806
0.702321836941116
0.70204544505436
0.707027815738442
0.712743543185933
0.713677471030942
0.714000570701708
0.710597770269874
0.724589646781057
0.71885099245396
0.722118719456128
0.731666008108609
0.74109651660158
0.738385993061295
0.74783949990744
0.761668676523653
0.766538494641607
0.771649169924753
0.778658727397857
0.788457128590524
0.792454455501936
0.81172464510767
0.822447627969144
0.836495988056755
0.844553529099824
0.851344674384578
0.86767256832921
0.880186011977955
0.887368045341936
0.89191599931903
0.910276672197597
0.91832286575106
0.918728107249047
0.926347290978567
0.924738223350668
0.914175980866103
0.916626848550382
0.909455350345144
0.905234254712387
0.903581515918738
0.889995948516584
0.892164065970343
0.891162542549825
0.899294611335067
0.915269291684353
0.913448099094742
0.934785681284971
0.934724163283021
0.937367390332961
0.965226331609003
0.979279931230979
1.00413725845657
1.00312554699251
1.0230441893852
1.0413578668551
1.06329440919609
1.0683882632811
1.08678649243789
1.11758029295393
1.13488543395884
1.14386630568008
1.14734114918984
1.16452079717645
1.1779046899815
1.19739128569986
1.24478495428059
1.26009986928702
1.2861845967204
1.26837515519206
1.30636180740522
1.32638560094296
1.36301991509294
1.38478099544819
1.43703882093586
1.43599731072942
1.42597449656902
1.44243639817045
1.49744862603958
1.50889806852317
1.53332589402256
1.54933860430198
1.54172553822624
1.563043018948
1.57211776324393
1.53275951356512
1.52007020171872
1.59180390090749
1.58692541161121
1.53392488712901
1.57551526289342
1.54886243666886
1.50593650494884
1.4657714314768
1.51812289869158
1.4970820466964
1.52825770332781
1.50391956009362
1.5115942710458
1.56434742572838
1.59100647368334
1.59542402888633
1.57729788372402
1.57033055714653
1.62910808642094
1.67709711427749
1.62999817748587
1.56651283846619
1.67018354108671
1.7071549350496
1.67379402169563
1.67952724033931
1.71748333508987
1.72167915470515
1.79985821716763
1.71391775156123
1.68002643127254
1.77417112120324
1.79403384827979
1.71283009621452
1.75640933182238
1.85661080780031
1.7637050120284
1.80392895851343
1.82367059044331
1.7528712075579
1.78358765166957
1.8522599521912
1.80840157590821
1.83055319308727
1.81247083160449
1.77224681425681
1.80009108666961
1.79259884615119
1.71190593220287
1.79070275509822
1.9357686899167
1.72137699971812
1.69393256551629
1.79932564556319
1.71808028945428
1.62260152948215
1.68317915631032
1.64643568344588
1.54526460186089
1.57903996424625
1.51734641408948
1.44266750426183
1.43552673518778
1.38278740851771
1.32078871162891
1.26850181981991
1.24704538472166
1.20025372756805
1.15966377926173
1.1433210456162
1.13567141553902
1.10223863819858
1.10223561519876
1.07991847301944
1.05985698114647
1.0513435424531
1.06243544105654
1.05400128697634
1.03183919933673
1.02017246669206
1.01553935956447
1.00326391077867
0.985070797289585
0.971810378098685
0.970559248740628
0.948459229420245
0.904330588460471
0.901876956383183
0.881830303727571
0.837719208839162
0.829823039726135
0.808907851963233
0.774979832148068
0.749410415548638
0.722267676495406
0.68656974466877
0.655258303561044
0.62787783283574
0.600941133821422
0.576228609114528
0.556103496218755
0.527664784015014
0.502079982926092
0.480698286562905
0.45983209887114
0.440998879056947
0.428544468944263
0.415613157058843
0.407604376233114
0.392982760181731
0.380497333487196
0.372558267461144
0.363943586113366
0.355481847229169
0.356386189873123
0.348096394781304
0.346550672543866
0.344917638608412
0.341055154066881
0.336313011906725
0.342366926676213
0.337929277081451
0.336843639458437
0.342182405586378
0.341144282798503
0.343359303937854
0.343504305968049
0.34337957829477
0.348453521380013
0.344829356184987
0.349057683327578
0.347364114013502
0.34667226924264
0.341394475798939
0.341301836908352
0.337768123658714
0.334460183553667
0.330045094753793
0.32713511651061
0.320850191653357
0.324514688755413
0.321020526268472
0.321714510744135
0.323502366556526
0.321288388766284
0.321025333009073
0.327747721260628
0.32508308041574
0.330874811194095
0.330073592174732
0.330235840474342
0.333973051753722
0.34008549950401
0.338773809539437
0.342343568507298
0.34430208146139
0.353381171332817
0.349616599645771
0.353484447134041
0.351053679315943
0.357726847294643
0.360250736718733
0.362416615290316
0.369192434257347
0.364643986421757
0.362328532519698
0.357079785335747
0.359632328109956
0.370301952514463
0.36955558177842
0.370713386838098
0.368026107885369
0.377213376947193
0.379026366106382
0.384252691919774
0.391708375125335
0.40106098423959
0.40549460462025
0.418859057870237
0.435694976036987
0.443610587407282
0.4584323654868
0.468207008428069
0.480484085787817
0.495150811318543
0.492553212671898
0.503915511479306
0.499396728475932
0.495911131926387
0.484727283380469
0.480991372160258
0.482911825093151
0.478389898542679
0.466279742258699
0.454936142095693
0.435697577000412
0.442292978875669
0.45705372217445
0.444835814513116
0.441937068663971
0.452600306880843
0.445067416343282
0.438602481792321
0.445214518378353
0.449746937498561
0.443699661510298
0.441239439697295
0.441070436430085
0.444243861461542
0.421861869591942
0.428951397723243
0.426041764473643
0.414543227827498
0.417266724634582
0.410594488854124
0.411284790697457
0.407513400568186
0.400155162170525
0.400892772443837
0.399257780797366
0.397449513209194
0.392516052549199
0.399306753870855
0.391260540845702
0.385767611486381
0.386297414941432
0.390626748207999
0.385760839379766
0.388387294713929
0.382816629530777
0.376395132126293
0.383172137624693
0.385024586754766
0.369272200206768
0.369075246966492
0.376408327390846
0.375910461058751
0.376246216427726
0.380549946121296
0.382240916149222
0.3676348461223
0.359451201662172
0.371522214387741
0.363454976409364
0.352404513032893
0.362253751077576
0.358559329981396
0.358945118287426
0.358424837895351
0.356867636878312
0.357896169830208
0.346954807581788
0.362036696039122
0.358231085477939
0.33981733941826
0.350048982726888
0.357946411069794
0.350799518437938
0.35175233030543
0.356159329287884
0.359722023030028
0.363443970419824
0.3739053713397
0.360477804040037
0.357351880666202
0.360531557710871
0.365991324356639
0.36844662154645
0.363939450949749
0.368742731096253
0.36741700083528
0.375585798462195
0.384965407279449
0.380514001090951
0.378186917094805
0.384848620021385
0.402920167522001
0.383195041961607
0.3930728162563
0.400699555228935
0.39691169256706
0.421104951954731
0.412582740375637
0.420622153496756
0.432947232156196
0.436971993718657
0.449087192686556
0.454302242898295
0.459126153663275
0.465628071384737
0.474353421575076
0.495177144551965
0.512004639402929
0.501500491098277
0.527293624771574
0.547001124492898
0.56993684991092
0.584495224709793
0.593051593532728
0.604616365202111
0.633271209030507
0.630942619184532
0.641239454321951
0.660398457630996
0.660265079458161
0.629420066470712
0.645662341898098
0.627086570105498
0.622573843541384
0.583033248633141
0.599962179791044
0.640739527132769
0.586032466912821
0.592140765462577
0.641922311872925
0.606058494511641
0.604219909759401
0.627199116299724
0.586199135969217
0.567979791378827
0.590808931107129
0.598814885251082
0.606054422428968
0.606403436032157
0.579181391713455
0.557700915592005
0.581589429567093
0.586874258457063
0.602668103378328
0.577306726998418
0.562693157175774
0.566587652772859
0.573328583721663
0.560016666291551
0.555882784503032
0.56404668549151
0.55247266635511
0.566652025917931
0.56857909552847
0.541037656947204
0.54842164893196
0.553235204373836
0.528984074469784
0.535349990058337
0.562288308217032
0.581369107069187
0.564850625617313
0.600551058536713
0.584765361575882
0.590337057996741
0.578703462559937
0.605530102209304
0.598080132097701
0.568519968284514
0.597472878872268
0.622174466256633
0.634644778094346
0.541858589981497
0.581397298949376
0.634525120230592
0.56599579858537
0.600523651392401
0.673320216761372
0.595314597426187
0.556583875329116
0.610383075904319
0.60320417067218
0.620382034080185
0.613514580532732
0.64670530733271
0.650948574205544
0.655431456946219
0.615776043444815
0.606102100835257
0.649492521352892
0.64613570062337
0.680874928412276
0.7237707851297
0.703278195239573
0.750450272534338
0.817784145553367
0.82729537327247
0.812650619042672
0.803459400980948
0.797626220039359
0.82067916070968
0.71933774503842
0.730516423709381
0.758233617455479
0.793501260991212
0.708830891103467
0.759555368868829
0.875184742796524
0.854633616196535
0.892399867046208
0.841545894169687
0.885834719697421
0.84465267176353
0.703557001683042
0.73727980463249
0.718202548222438
0.691322135705002
0.735667178594285
0.707123228217627
0.717269431252009
0.787084593902529
0.732267058295871
0.68360543008881
0.791793570216714
1.17546343702122
0.844016868843392
0.865877941309884
0.780889881321195
0.763786629856042
0.603467028607579
0.842528481884449
0.910404447641707
0.732018621023693
0.693032635447114
0.71657889202563
0.849872588317887
1.10177007183374
0.890007876181622
0.780934615047331
0.778822780077934
0.972529498020358
0.826624667587715
0.86962476053949
0.560211194705958
0.97868423344572
0.78642906534043
0.548889358067346
0.512576436145628
0.9624653263752
0.60999335637694
0.730273034921817
0.908820878745222
0.951664370137578
0.630794079505519
0.599774995331092
1.04478759680868
1.2060605201745
5
0.936865438031053
1.01579785655459
1.38324463040252
0.548409336157102
0.655867775850709
