3596
4000.36533379555
650.420452594757
1
2
2
0.0728503654260565
0.0904357485110854
0.0740996419726938
0.0875192384742768
0.0755078948650834
0.0808858916529294
0.0705556880953402
0.0871853078760847
0.0749324693819483
0.0892148754390955
0.0675720121113438
0.0836795299991515
0.0652728375921131
0.0838051953926467
0.0648602254410672
0.0864943056295823
0.0724724956335515
0.0847241454462858
0.0739326687520199
0.0916907122041194
0.0683247169933557
0.0893968412487343
0.0623460330725773
0.0854943309073113
0.0727837146748717
0.0940224102451415
0.0674868538414679
0.0800458767235942
0.0763953884361672
0.0884110446840529
0.0670526458468011
0.0883538096234612
0.0764908039981901
0.0907813969322296
0.0733123475761347
0.0852257870592128
0.0668324441897187
0.0834707129818057
0.0711640693147848
0.0913652086817913
0.0790226081641708
0.0833043993214669
0.076593373933092
0.0834126313213676
0.0694741724732242
0.0860380304610907
0.0698579069093113
0.0822020591518213
0.0674109165656744
0.0845814060472169
0.0716333805710026
0.0724876242819541
0.0842343467481293
0.102897404125874
0.079208262416375
0.10370926217175
0.0713670567443023
0.0848153604252099
0.0736468045791379
0.0863251472175199
0.0903638610295534
0.100865769031905
0.0713249690525317
0.0936618247851451
0.0647889708128914
0.0902991767610566
0.0552392719436021
0.0965730240363331
0.059264012555032
0.0869740599400913
0.0692652412679799
0.102880181749874
0.0797409757825993
0.0951540636278128
0.0694153545454532
0.0880650936846267
0.0693525865963837
0.0807378790540205
0.0648911146794954
0.104469749559701
0.075519876589552
0.0886036559102658
0.0673840699021319
0.0788847361578666
0.0723642447100646
0.0937635807675314
0.0606507863637618
0.0892654031603316
0.0932133630625671
0.0917623933318682
0.0667340281585918
0.0837287917936778
0.0655974614072315
0.0811905698393231
0.0624860983987152
0.0885608583172274
0.0607853137776178
0.0866522990807387
0.0615379785765543
0.0943798403345259
0.0839713094265216
0.0866760411211854
0.111000942218831
0.0636144925210377
0.130508716434273
0.0950722618053214
0.0591621943212093
0.129852885130839
0.0664293851533394
0.0979937295429454
0.0584174600905983
0.0930649966888687
0.0658137435327657
0.102271479036526
0.0475600446244151
0.115940985993026
0.0929916547386671
0.0877359069285127
0.0537899460656859
0.0821723824633198
0.0630961037093163
0.106516898848688
0.0961521441811874
0.0806207631435812
0.0743111989963626
0.0777357864343795
0.0584681196779344
0.125337153834541
0.100341523192195
0.0771482037410331
0.0730203127286208
0.0787189132270569
0.0601126636712884
0.0701537876772449
0.105207692797943
0.0826614810420415
0.0720513428878972
0.0695197195959665
0.0888832671829079
0.137856259243839
0.0745718338909323
0.0736261171855289
0.050219688527048
0.0913362575392632
0.104626396972794
0.0921828751040101
0.0684962643751805
0.100805368791137
0.0767905311837573
0.0758964819171315
0.0625515626159746
0.0809108356633975
0.0831530231049897
0.0889756616862371
0.0265852301629927
0.180180389525562
0.137138740545839
0.0949340846433594
0.122961026573575
0.0688984110185751
0.0845169996061346
0.0655738477483874
0.0692765538292521
0.0716130484111051
0.073063565129406
0.0606931059824969
0.0772661712842109
0.0975511254583988
0.0689344124321678
0.0882195511386906
0.100189837863739
0.0911081743199886
0.0507851000518904
0.144648854341422
0.0764479229606224
0.0754737157969785
0.0917619868679166
0.0905367795161273
0.0595500707783332
0.0910943160193796
0.0957919097973916
0.0750532947816781
0.0751143374153581
0.0757794080956416
0.0733715316040814
0.0947463197100158
0.0666021407384759
0.0775354215165675
0.0752448775551205
0.0628640718649953
0.0823164418866968
0.119997738431106
0.10743846687248
0.0702364126581482
0.077829345953
0.0458449842151453
0.112757965464678
0.101132646625169
0.0608463114142084
0.0768271087876391
0.0584740064698455
0.0709952681681417
0.0640388414674557
0.0750005236062275
0.0677107910408701
0.0539257231553247
0.117354276858235
0.0913135212387228
0.0682768963262558
0.06857090932026
0.075571908439875
0.0716675663279985
0.123065686138212
0.108422592311873
0.0703009488363943
0.075465018954357
0.0666117097298308
0.0952474323190495
0.0833228397398901
0.0757345686473466
0.0676164688205237
0.0772931111469811
0.0651745382736904
0.0700376637639318
0.0619306482681763
0.0792425756159116
0.0654275076594222
0.0688524567101795
0.057062520891586
0.072874553949607
0.0734646766929205
0.0761313257980723
0.0671961539678304
0.0747681090679717
0.0534227638584728
0.0880063712483937
0.0895500590096953
0.0700674233582912
0.0699335966240282
0.0654632176171148
0.063568085474522
0.0682870963502601
0.0674248138212927
0.0718846714876574
0.0730332826420021
0.0678745150059639
0.115223686524675
0.0718844210735992
0.0715924485602197
0.063433164016111
0.0883501836644146
0.0913792881915113
0.0702218636875268
0.076996778111035
0.0700638979024993
0.0738955797227834
0.0661895109273847
0.111722507697406
0.0657697899203282
0.0656428515674111
0.0829752096315577
0.0881516318825152
0.0641050523987479
0.0855437189210865
0.0431442181300106
0.162502057110462
0.0822370759306265
0.0736568787486818
0.140262055786258
0.0952160251811467
0.0795714947216966
0.0881921372113415
0.0291533106034618
0.198753343916256
0.120105023579209
0.0829828510731944
0.0698247864307294
0.0996061190039089
0.0679713801106809
0.0807780768766123
0.0730130027757732
0.0844128852432785
0.105901702578959
0.116440333660224
0.134972806787959
0.0612701302527062
0.111247207239544
0.105156424995616
0.068697874857135
0.0834554772510037
0.074360154094441
0.0740508704004087
0.0888230391397662
0.103078090175344
0.0863554356083905
0.0935666806915618
0.0669026136483424
0.112452829866221
0.0768788749154004
0.0847699813942595
0.071208325426795
0.0983744102839002
0.0641234325685512
0.0832948295577348
0.0654406397868084
0.0954842539966804
0.072732824177189
0.0851088391973321
0.131266591933901
0.0977571244956377
0.0710067424821662
0.116512584774488
0.0691612103391328
0.0814806347248868
0.0680126496024044
0.0881403315954847
0.0721811818519531
0.0878457463380942
0.0644352891257981
0.120678558166213
0.0794523989833111
0.0817330904507642
0.071698814367722
0.0847489962518469
0.0762835672176589
0.0787221889560493
0.0752224567033377
0.0787711474376067
0.0713173890023842
0.0822480281901522
0.0898319734185394
0.126232436475874
0.0586715113750596
0.128767139317107
0.125537918962818
0.0807811609933027
0.0759664120826698
0.0910711241605027
0.0885224995235671
0.076074927075926
0.0778652988316238
0.0837980846873268
0.090092939014485
0.107129132727824
0.0994304373236934
0.0950776981256701
0.0959921376456983
0.157590907734458
0.14996404913355
0.109436613583585
0.102560130702312
0.0759180503548551
0.107852449910592
0.1411364804671
0.0985754607470145
0.141862959070691
0.0746256651018263
0.106556482807279
0.0884376873428389
0.110321938583495
0.0937495483680039
0.112255001238542
0.0856271135753919
0.107920909290879
0.100113081506905
0.114606722051094
0.0983608345508958
0.112339142867815
0.142478465656736
0.12086069044828
0.097980959250195
0.124436055399304
0.0995850802572628
0.143893242842281
0.14595199916794
0.172619987599851
0.147953887933122
0.136887872173047
0.166316542319531
0.119964696529674
0.128573105474398
0.117101618719509
0.119701582250631
0.133520101204511
0.124669438462158
0.13023113602157
0.130542608990098
0.141241509154613
0.141698265424458
0.129834696028063
0.135986633540937
0.143054326010001
0.162406115020414
0.148809602995141
0.145751634334776
0.150262003625499
0.164396718986324
0.210156529108914
0.185939573465921
0.175697343433584
0.164624068523563
0.175892933694384
0.147225345797606
0.178000757573259
0.162916556721545
0.185654358742562
0.158321394327551
0.220221827918685
0.194190643322128
0.201942873850017
0.194616033983792
0.167731355297772
0.189837162377621
0.189812019719976
0.196937753828315
0.228130548224133
0.195240218429925
0.195861051116869
0.202541370877718
0.221917704283884
0.204008402560177
0.235288563123923
0.192932673640497
0.217735131960203
0.200833047155368
0.223019130901679
0.208458097764484
0.234506849250747
0.217153364351411
0.235465135969318
0.21883669917045
0.234840499398838
0.227612633863679
0.255398249605033
0.237689125634781
0.24232467646134
0.249684777733979
0.244641130865866
0.232505265342869
0.251399133972857
0.266326869670694
0.291129612810462
0.259130572327287
0.294896876194298
0.255796199612973
0.285859273488812
0.267349096974055
0.27428585258468
0.253883714818532
0.293982255416935
0.28209110584321
0.29128952254153
0.278247269159542
0.300830553399345
0.293893615928692
0.313149207351877
0.307255704579281
0.317901266709857
0.31902621556425
0.331963434601119
0.315818582979749
0.333216311239417
0.341290878263101
0.368421552013045
0.342099570574855
0.381547935994369
0.32568838285842
0.353976384095518
0.346995787731858
0.369619732690389
0.350468693691683
0.37412360717367
0.351543665961808
0.38556569609761
0.372833306868949
0.378892472129433
0.371633601165328
0.386125326431156
0.381788679970181
0.392589853907539
0.398622991720014
0.417594067997727
0.398958363537842
0.422546627103196
0.411449971426117
0.452394002732419
0.413647594493116
0.435706292097525
0.433367593965841
0.425079887122847
0.446742063080684
0.470218446102355
0.434472578724434
0.445961944323788
0.45410851492354
0.459073403229975
0.457175701450986
0.487231503379367
0.46621100640402
0.504586707480025
0.495253492978494
0.500605779280214
0.483847454642991
0.508862859947245
0.501453964504142
0.516779300091506
0.519515714744439
0.528922727533006
0.522741463428966
0.530089667555728
0.509228695606092
0.570659862193086
0.541975432124629
0.556131465419131
0.533767819570587
0.572756548834324
0.572096230236806
0.573387653560051
0.550076045653625
0.591259568854026
0.565232121066511
0.591130793447197
0.588417820881977
0.609087715031455
0.60049244260374
0.647004474487173
0.62301059528555
0.618876215861967
0.595481044286358
0.628770620659956
0.628623702184218
0.646214703782738
0.629747299998626
0.627879855965565
0.624740797429302
0.677377030482196
0.688177200890132
0.661855307957458
0.649919671752493
0.734097280200574
0.701353911204256
0.704355045657657
0.682081859577969
0.678369258866809
0.657134130706793
0.702609460081686
0.720581200474332
0.732656902713
0.675147640254966
0.694770340536362
0.721259087711537
0.782664686897034
0.744988146222368
0.779546003867945
0.759438697733577
0.769833308304698
0.752118336250156
0.751884596202928
0.735385233082917
0.785215654670646
0.752427488336942
0.779636202990865
0.777539135237914
0.819013443999963
0.802380803884984
0.815039898546474
0.800866419814438
0.838319128372154
0.812320152259388
0.854492229490136
0.843148551144834
0.82473246467929
0.838579351281817
0.842541268089405
0.825484524097954
0.871622403970806
0.850199286747336
0.879527002019123
0.891801829415793
0.883651284635208
0.866656228666285
0.898738559193017
0.867086888980716
0.941160360436256
0.90888814259805
0.881053589815594
0.861188030009785
0.923760967149987
0.932751279436198
0.97214285694763
0.942033075565375
0.967753162728917
0.979939978160257
0.949038155429046
0.968878432695898
0.98754218762038
0.883432047619979
0.978235544308494
0.938893897220383
0.934463881506625
0.980049685936503
1.00767073718713
0.959591271721604
1.00876879437595
0.992570316685103
0.968532197364627
0.996376988973613
0.977669085133169
0.983636911810706
1.05296836569995
0.990969929980871
1.03495812950779
1.08563588673765
1.11454954775362
1.02805467549618
1.08389854446305
1.09285470895142
1.06029088463526
1.06180900551745
1.0512363935179
1.03841096531337
1.03727603592776
0.990629804448201
1.02131934603263
1.11282320131034
1.12916787524703
1.06341239062733
1.12101571747847
1.06430939693142
1.05841054193294
1.09116273105124
1.14784559325655
1.11577971896182
1.07606161824836
1.11535820574837
1.14831699715718
1.11610084803946
1.17801807451992
1.18956311198304
1.1683317226223
1.0885735643456
1.10711931571969
1.12940979760602
1.15885770961059
1.11804122941219
1.14150952169374
1.18415099182649
1.1481188932737
1.15051960213288
1.127113174451
1.12245554624245
1.14723792571538
1.1235769332057
1.21069836221347
1.23644345089157
1.21516418573086
1.26976153896146
1.24873324215901
1.22133913028181
1.20689517375497
1.21330017695075
1.20328754266543
1.13955655050296
1.15661465987598
1.23169438131224
1.25397796926676
1.18318974876862
1.23314284215623
1.23317656452881
1.3035549909103
1.24005856990403
1.20190026568025
1.30401531507711
1.26162503440512
1.19122006947315
1.2531814564318
1.24677089832024
1.29932266097667
1.27102357163845
1.20542089752348
1.2674985340813
1.39786509580956
1.30601730666017
1.18739560745887
1.30343728361641
1.24377182066471
1.20087233937013
1.37704665089731
1.32117318093428
1.23966604288561
1.32685429499342
1.20655565844978
1.17467918599085
1.28491246730822
1.27971643467645
1.27080299091218
1.21934545418895
1.33072418538493
1.28665903384219
1.25878158295229
1.21626624832815
1.24939260868173
1.26059199902982
1.24341176721065
1.35142741651654
1.26731206319395
1.30080630935604
1.33452081995047
1.29599638421063
1.33203812320248
1.35037940900949
1.31260074441308
1.33769079727559
1.34282326320586
1.26710293751843
1.30995174938714
1.36204810927195
1.24356256641295
1.25488569178453
1.25473332937257
1.31682539835092
1.35335422061233
1.25234639922658
1.3345625318053
1.37278070252764
1.33723251328708
1.4070073467535
1.34521468299928
1.32888154744016
1.22922105178658
1.20776829765066
1.35593036727344
1.34453594908678
1.25710018122887
1.24278841036018
1.34857174225916
1.30848993144249
1.28376489127105
1.3786467925219
1.27626122161855
1.2499149133572
1.27768721181503
1.25866386807444
1.27884033712317
1.30771334817497
1.27175219781767
1.3112994774363
1.32359247712389
1.28063921175267
1.34805700948539
1.34129739578086
1.32849116214869
1.39483512942158
1.28849366763686
1.2320257678208
1.27678053538656
1.29250072191858
1.34170112590222
1.29223110658183
1.2337857960112
1.25936033902793
1.25709678311041
1.34394889304525
1.27871506046316
1.29789669090078
1.2912607765042
1.36309241421675
1.30648429300208
1.26801399381635
1.29453971232004
1.33473994869414
1.251195499248
1.21099216381456
1.25355975388505
1.28654548642582
1.28658461976329
1.3267861304278
1.26354910337849
1.22938553125889
1.29321304053226
1.27307671438015
1.23270058284449
1.29265985954672
1.23912364252336
1.2837942910843
1.31388071625332
1.31113118067912
1.23930726930683
1.19608793629638
1.19650324649908
1.21990576513244
1.2383198760011
1.28944646276793
1.24066558852269
1.28244720997536
1.24418855985113
1.23944906191878
1.19891109566739
1.29921299126994
1.28005257373713
1.19423304965844
1.20328164201253
1.18168290457294
1.21076974442955
1.19219646371648
1.15776533292124
1.23901830733857
1.25102325027065
1.25287883068001
1.1265738879565
1.16955303412146
1.2656671829014
1.16443938516364
1.11144390841517
1.16561688141183
1.16094243171637
1.15104191806347
1.16646616354428
1.20183423087936
1.11771081806974
1.20154611883725
1.17278495354883
1.17124394897447
1.14195007888433
1.15357665825867
1.18794884273493
1.18574178624626
1.18068326953987
1.12085252189996
1.09030710366176
1.15595422558701
1.11490045841507
1.13158882208561
1.12726766000016
1.14292728266753
1.10047275393352
1.108664806656
1.08424099306117
1.14887537814484
1.11742064592112
1.08813733995283
1.10045494099612
1.09768403465693
1.06743500759547
1.09097026431086
1.10193022496495
1.07802268083978
1.0785336177047
1.10592944334383
1.02842228242179
1.07694896105868
1.07580361407786
1.04298449644807
1.01468055077588
1.06663207785462
1.02664363499325
1.05624438241709
1.03660140553024
1.04018875035646
1.01817093575781
1.04247122419558
1.04238401526911
1.03533179901987
0.97594072186262
1.03562940783332
1.03527186051014
1.00779652961585
0.992827015331606
0.988296905810838
1.00283558077499
1.01206515243473
0.990136583709472
0.96960504518943
1.00615642634319
1.00056557537463
0.961853023930105
0.985129649202658
0.947244471067988
0.977637381548071
0.970043691414089
0.953416519620124
0.95620944938803
0.951737631529986
0.935752403687016
0.934807933307535
0.946150385646976
0.932932779253556
0.935217353224773
0.918895516957836
0.901086541721885
0.902895470085964
0.915157391749323
0.893860892084828
0.895007965996752
0.908145675114288
0.875683124941724
0.871046316084848
0.84710442192773
0.852872371451198
0.891054148908945
0.882938333553897
0.848469394372182
0.872459504301681
0.881924224579012
0.850487453017927
0.820260680603953
0.821817533876322
0.822516678576602
0.835997888774795
0.823107521647803
0.843102141375428
0.832172401527967
0.814502773630279
0.800559521108527
0.83596574073792
0.816203946864695
0.787083324986912
0.791777090951118
0.795254200581754
0.79284679526819
0.801108009912869
0.763322146820379
0.778940944554698
0.769147133248346
0.766299775512577
0.75682948304534
0.755104865036888
0.752143403996827
0.761818493831043
0.729852338253585
0.768153189206518
0.746200320314141
0.740198810928921
0.730071564086686
0.730297408227795
0.73470708225055
0.711810490997784
0.707200305627499
0.722554954430616
0.714933088700576
0.714937705802369
0.715850910522508
0.701288289518528
0.690234576814892
0.69262990936212
0.686879469196872
0.694987201697886
0.680853021746538
0.672020014441155
0.678320533138486
0.693744313842641
0.669448511560485
0.667999485391694
0.670281457274805
0.65869373530909
0.657137866590153
0.651822148676463
0.637663536990049
0.650405601494712
0.629224093792674
0.641420706488451
0.628126118650457
0.621236670718981
0.616389167638838
0.627927548047031
0.620465389154468
0.618663678647466
0.622477662274589
0.623822078199788
0.610321970088342
0.614095937704826
0.606845431039447
0.608293463077512
0.604599988454319
0.597332572534963
0.592655763713832
0.594887524159364
0.591943692508786
0.586859412886234
0.591771058716097
0.58214091782129
0.567458188708076
0.579131722613514
0.57353906637029
0.571570316033225
0.551522983431767
0.555500245404707
0.5557678667086
0.552452427090473
0.563540840605734
0.560054329190714
0.547192614958275
0.537862978253232
0.539102096124967
0.542523479740935
0.540233348657442
0.525724670933971
0.53993988317272
0.53487858329574
0.522438914592351
0.517003285110111
0.517532582923804
0.523712989450861
0.518518295661613
0.515299238318316
0.507439971296471
0.521026511013218
0.509065833506358
0.505146769577131
0.510612512319979
0.496869816887071
0.500226581177184
0.496293355770601
0.500277407296653
0.489398900961723
0.490670890674607
0.49455846105809
0.484873628193988
0.478740138473841
0.479307809137364
0.493228712349938
0.478304962052157
0.476093425160471
0.471771709871203
0.469344380018191
0.460500864308243
0.465218582466709
0.458645970204671
0.447411189225968
0.453124513332632
0.450056059358676
0.450089808094292
0.461558828970864
0.446889846526051
0.440362478489787
0.442424241499372
0.447332043488326
0.435410993181465
0.432186370068455
0.441974201756459
0.438035341572402
0.434066581794683
0.435531679873401
0.439431869597204
0.423067247976255
0.425102937903256
0.423791186262061
0.416977192465524
0.428656168402812
0.41604944425011
0.410801971460005
0.412572475123716
0.415346949996945
0.407020051251037
0.410288175652198
0.410274471647244
0.405326465228888
0.398650387032324
0.40347963729841
0.39730105264682
0.402658037679993
0.394721268588251
0.393298650346412
0.399924617077197
0.399995716531961
0.401266416703446
0.39436574942587
0.39203486592721
0.393966005851898
0.388138739464156
0.393964290218687
0.387723592572394
0.394192173729902
0.391043978237176
0.386033498133583
0.384607873722465
0.388628637318389
0.386762968594711
0.377376193834888
0.376814837515534
0.393173744591583
0.385720343470331
0.393796628097626
0.385007705696812
0.396663705283704
0.387038913432872
0.389388748122708
0.395026533311763
0.394434972065265
0.390693517445547
0.39571309910288
0.388203367605727
0.399534958874581
0.396669625880984
0.401973861481721
0.397711908197091
0.406786278174883
0.406205268679404
0.414544970906119
0.403946955771503
0.418403651026379
0.417683117627509
0.407829228772368
0.4121083691183
0.422083851662539
0.419082688758867
0.419449371476562
0.419565501232356
0.423396079258281
0.425621223967845
0.428726324541421
0.431715264358756
0.428894188659559
0.43067271950499
0.433577043795597
0.444018345063978
0.434886110086056
0.447186709943697
0.448025051652639
0.444707496223133
0.454495951622014
0.45268373256811
0.459685950848194
0.464297251143757
0.466510421671629
0.457751246265704
0.469162702784085
0.472164332673576
0.478469129760054
0.479319776502553
0.481943767737594
0.483231860843292
0.488344523776077
0.493064528782985
0.498653370074107
0.501224857667156
0.508073419910886
0.498679859499125
0.51268314634679
0.501877345085083
0.519005317490952
0.524078844166823
0.52657387693204
0.519299436564452
0.526794566996996
0.518659641687705
0.522728535283792
0.519340119466147
0.528835691486435
0.535022154281456
0.534945263638486
0.532503929635757
0.540370674696825
0.538294027456209
0.539664388598001
0.542407994990583
0.548591937643541
0.531844747848205
0.526334286020833
0.527847045665681
0.533691737469383
0.531906103990857
0.547065194587114
0.536224513446086
0.517214253088958
0.527792302748521
0.531003462074055
0.531205517487603
0.52866671324086
0.542166258858477
0.549049106142574
0.52962244461766
0.52976307536216
0.528251677540696
0.529437780406995
0.519070578659356
0.534542273076256
0.527595031254205
0.531195882674123
0.528470508480363
0.536544405737308
0.534399437545028
0.536936939555765
0.528676935487437
0.535073293283646
0.525086117382726
0.531173746658163
0.538494744593662
0.530309801847957
0.532640475432212
0.535206150507768
0.520461220976817
0.540437494062422
0.53215809411447
0.525794745851688
0.527459836013785
0.52404935985016
0.533083418210165
0.533871249497154
0.524112715907299
0.534384859948173
0.531623670201581
0.530444357999719
0.523990730398792
0.532724317025958
0.514866608684374
0.5231992663727
0.514636200946418
0.522966372703335
0.515676809027489
0.514715263211998
0.502404058626529
0.506947943735723
0.499536041614966
0.500925263344571
0.490862657507383
0.502752586783104
0.495379828464697
0.489314136119216
0.481666571171566
0.482598445676623
0.472736004851336
0.478510689355821
0.472308918901454
0.473907895065379
0.463855650243464
0.457677048232359
0.454297339466426
0.451874712883483
0.442473270884035
0.445513782314814
0.446117837617574
0.435485974318345
0.442418538713789
0.423194276355844
0.421576509291021
0.427224380343366
0.422862975986219
0.422095140882431
0.417049504645136
0.41698055491498
0.412544657689183
0.410880207474689
0.409383880188227
0.397680501626409
0.402189060134615
0.404133286274703
0.394312155780544
0.394935136905838
0.388418677790863
0.386312068638436
0.386771738191125
0.386672152338836
0.385832968820625
0.38060062235671
0.375442354554534
0.376430116081579
0.376441324682024
0.371771379481089
0.367751943447212
0.374805017804373
0.367484374752573
0.367655064883147
0.359642069467708
0.364587568551771
0.361132263159073
0.356977837476319
0.357670531110843
0.357689911143671
0.355915676504335
0.349170712871177
0.342106206139721
0.349349552507728
0.349395323971607
0.344643163370355
0.349126717073051
0.338748141383832
0.330276285800731
0.338431711655519
0.327995297502103
0.338287311429053
0.334512826314969
0.334513779103906
0.333764838816472
0.330729246945613
0.327933317602115
0.326244751681
0.328742171693126
0.325353677203142
0.320017842295938
0.319475565404777
0.320246611330814
0.311129919230366
0.313756212602694
0.319120365659556
0.315143873078974
0.311301453752803
0.317202827330222
0.309320547161247
0.30709869419918
0.307968177817938
0.307518766336641
0.308344830836628
0.305766168731289
0.31090005569041
0.304958508648909
0.304193156909198
0.298456630852729
0.301634790969196
0.304188173141829
0.306995429073808
0.299163456897246
0.30009900864294
0.29020105725418
0.302474911585819
0.293081249630632
0.295570885912305
0.290059866422469
0.29427568247245
0.294563500776987
0.290053421575575
0.287894659855494
0.290551611948444
0.289784314364298
0.296745903440812
0.289317097467426
0.294727171462475
0.287060854041604
0.288989209417952
0.288401175484196
0.280235147771542
0.285886478978879
0.280374618043088
0.281608617502463
0.27845032611351
0.278902806424094
0.280074253863366
0.276345462449673
0.276783141576605
0.274065314453281
0.273922511884006
0.274573405411424
0.274639078289906
0.27378006850285
0.274461713407986
0.266777449744021
0.274338207610758
0.271554765637864
0.270060516772625
0.268254306859684
0.27401186010323
0.272204470688252
0.270688081020564
0.274538574050619
0.271302915969218
0.268061600190434
0.265021000635605
0.26962601624947
0.263761449845776
0.260821373968744
0.267175091226177
0.263978334003664
0.265323819583466
0.267129759752936
0.266642813670048
0.265636096765532
0.270921462627192
0.267724821387331
0.263549989700396
0.265315442094446
0.262377410360195
0.262293573755793
0.257950364457802
0.262425984656016
0.260955961529506
0.254971696597471
0.263868227259675
0.259322212511824
0.268653498578658
0.257139132037483
0.258147458996981
0.258767957822742
0.26046173095153
0.257668342322656
0.258297834663968
0.256201228599036
0.252815978537085
0.251284884494436
0.25228475888361
0.251728264085691
0.250222169984847
0.253590558130506
0.252168993449789
0.251395337438732
0.245916429175479
0.24684483660517
0.246866816705473
0.249914222753407
0.250297993617904
0.244814795396383
0.244772320677814
0.247198528515052
0.240993765432638
0.244384302919202
0.241008904604901
0.238896852490655
0.233556603825998
0.242863700918209
0.239284397649055
0.237585441806228
0.239475938992806
0.242225080898962
0.241053147182055
0.237709578180336
0.241235974526322
0.238127659427634
0.232857434662534
0.232752997263621
0.233781228948736
0.236556447215085
0.228105130487465
0.231710277300263
0.228836802740373
0.230611488317086
0.228144141243176
0.229957562870921
0.23080486726226
0.23018276963333
0.229733670209599
0.223164331536329
0.22177504814889
0.227185525026997
0.225314947585186
0.222145180458683
0.214538547929586
0.224214332083875
0.217695027328445
0.219754513117729
0.22121262595761
0.217329115899068
0.216847149170446
0.213446219841236
0.218801362182714
0.214148949103736
0.216082787796121
0.211873534449407
0.213254016868819
0.207635066099997
0.210458110942801
0.210052152368739
0.208613980025264
0.204405334785583
0.205832759603673
0.208842230505104
0.201425854837521
0.204191621693048
0.199853050566274
0.201141359142174
0.201346575200317
0.2007373277402
0.199623832345786
0.195657029208721
0.196308470606017
0.193654967971588
0.194936370588502
0.198194467211667
0.197464337756342
0.194585842534443
0.192905637462805
0.189939438828742
0.193736530208386
0.18976090944742
0.18717137217206
0.187086707604634
0.187749580157535
0.188791345690012
0.190444933066217
0.186782071580746
0.185954421542251
0.183633441283164
0.182694853986634
0.182504740828475
0.186015573137939
0.1861254342868
0.181957848682198
0.18348232251721
0.182054855951239
0.177605667685118
0.175577704984671
0.177693834788651
0.176732049039868
0.177361779334366
0.177700173519768
0.174289470436487
0.178133518512446
0.174555712513979
0.174250111519789
0.174802944419457
0.174606110610435
0.172295495641219
0.16823426264378
0.172098659407259
0.173226427629656
0.170735143602532
0.166156861427152
0.168197880979062
0.166882511019879
0.163253176017599
0.167026366036311
0.169900864898769
0.164907006270093
0.166102056716211
0.16311321622914
0.166266922677723
0.165147711918985
0.162613308698251
0.162653699519843
0.162982619806561
0.162785238401195
0.160216258738419
0.16116108028883
0.157612110354853
0.159475132541587
0.161637501577612
0.161255144593421
0.158416854946533
0.157981309460933
0.158504020847147
0.155508393946444
0.155617680862182
0.155025012860858
0.152870674342612
0.15380831266618
0.15491364851028
0.154968414418773
0.154951382168094
0.150992017810616
0.155800796370152
0.152421923938347
0.15323910615772
0.152644518348084
0.15422256082826
0.153458589213311
0.150098908032119
0.152995687078615
0.152123004804025
0.151326702416584
0.153270971445574
0.148115432249068
0.14957899883915
0.14964919003119
0.151390211176746
0.150624164009449
0.149424211137328
0.148919898785357
0.147929312731708
0.14477888736571
0.145906847032486
0.14581534400302
0.150399758551681
0.15010094101026
0.149557218052201
0.147533615340378
0.144945960888321
0.145145034664811
0.145937736618969
0.143617831819316
0.146456287707137
0.145550949683141
0.142815131318655
0.143477115499837
0.142099178907149
0.138404077494851
0.144054401368498
0.143783306218732
0.142336156270538
0.138373303452421
0.14259368715893
0.141228346109033
0.140920664312641
0.137496900242643
0.139755463286458
0.144142943236513
0.138567759318026
0.137992385419315
0.138857472529239
0.134037582868677
0.135495184819891
0.136634337643735
0.136686629294348
0.136608615075083
0.135905455473599
0.136755751663662
0.13442447511397
0.133479910663843
0.134092037038704
0.134315132886592
0.13366174439077
0.136224972487602
0.135189573940018
0.133339978323006
0.135743420663578
0.128389034495951
0.132454032858721
0.130433748751748
0.130431047857887
0.133157439411132
0.135015299044837
0.131018465614868
0.128474268938496
0.132464059666204
0.128177782195151
0.129164704273076
0.133492760906608
0.12803346405579
0.12801851674499
0.124893366572261
0.126830473547207
0.129067962062618
0.126604711171874
0.124784357236736
0.127185782461029
0.12652108717589
0.128322089303393
0.124081737335969
0.127297265866073
0.122265423488877
0.124668253579423
0.121669345168214
0.125719961585169
0.12217102736194
0.123218810300061
0.123254753862914
0.124621082526754
0.120581295669599
0.123251662076097
0.122176280831952
0.119496305835396
0.113971017651932
0.116911383258997
0.114515213630392
0.117857343298785
0.114210998240866
0.120814315942149
0.114953265543098
0.112314021101394
0.112054572068293
0.11460935090088
0.110996509902038
0.114660948864218
0.113437328997412
0.116295242256154
0.110968143183762
0.114258219794516
0.108099537391403
0.111219783774801
0.110368560383921
0.110375542269171
0.107631626205205
0.109032504624124
0.109598030165363
0.112611952858588
0.107199257543909
0.107133576486111
0.105178182087917
0.1082957016647
0.108289073196757
0.106411100084811
0.105629664208878
0.103734516836789
0.103614131396714
0.104962501736553
0.103509190180847
0.104122934754517
0.102385259831038
0.103891974791022
0.102196516781815
0.103247476371031
0.101679739835766
0.105844070859551
0.0993482265495981
0.103082627931822
0.0993276852577997
0.101310195383417
0.0967775285974072
0.0995722530896278
0.098294791433723
0.100517813983981
0.0959175246971744
0.0970403407747012
0.0966542300330022
0.0978218549909933
0.096169148019864
0.0997247444029698
0.0948763532093355
0.0992606719358098
0.092381371121352
0.0954160283351797
0.0918346338263451
0.094442220668111
0.0935756861582969
0.0932868125292809
0.0913540852994442
0.0937110261241232
0.0902264140903127
0.0944980270100749
0.0864350435742764
0.092288738945152
0.0914409491124555
0.0953070070151828
0.0903965064190285
0.0928085109812701
0.0878774556354861
0.0877544438375805
0.0874724338499898
0.0902936344331939
0.0897427744007873
0.0890166714955958
0.0878452703281789
0.0903385590442127
0.0847131207429388
0.0884814589816353
0.0839935335175297
0.0898504705532189
0.082845119336582
0.0901034826417034
0.0879159714993629
0.088546170802017
0.084175591243469
0.0858989292709862
0.08661028206422
0.0881617352190408
0.0832062961887572
0.0917472450036477
0.083674897387176
0.0856009847706049
0.0839943975035529
0.0891320322332597
0.0877989783577891
0.0901198228229058
0.0840559586514876
0.0924599907205271
0.0872124216017614
0.0929558835920875
0.0900288487555992
0.0953273071012086
0.0866892292822327
0.0910749144108862
0.0841771575146157
0.0904064145789617
0.0810389450776613
0.0857575617857823
0.0827239350349225
0.0913973554388531
0.0810059206519027
0.0838866642586527
0.0772595255809152
0.0854046473502864
0.0784650961184361
0.0875121019736788
0.0753315836432603
0.0924052548820364
0.084022461419335
0.0895946302268178
0.0764971711427722
0.0874548678642742
0.0760887377873673
0.0923619091184323
0.0749644743192547
0.09130311231345
0.0806073295424924
0.0919477199789241
0.0717637762403531
0.0910873923242532
0.0720781961558987
0.0899013909343174
0.0751292796383309
0.0902426242210667
0.0706591801011573
0.0897234172275706
0.0738570638974303
0.0932424178090558
0.0751765550711138
0.0917143283652936
0.0735222061859202
0.0935255421994382
0.0710571173493943
0.0885399472754796
0.0727108401534231
0.0867249785148575
0.0825950388319553
0.0893045705935331
0.0817477783492455
0.0755401394186576
0.0835844962172907
0.0711896045286632
0.0977835544806628
0.0657997678866487
0.0955330494651184
0.0541193071074106
0.109362773591961
0.0561577408078701
0.109934482641314
0.0423464814101083
0.118046213437137
0.0438220932862422
0.109735908488678
0.0482801768515929
0.11067073794478
0.0523272964970468
0.102644169478846
0.0672821359313219
0.0848635883613752
0.0766759574026827
0.080368779157041
0.0822971351396159
0.0754483745134538
0.0837929482227644
0.0731244778999552
0.0771883029519625
0.0782817038010741
0.0753150698177153
0.0781897442078915
0.069022316576099
0.0793577649680492
0.0678572215211042
0.077576727662353
0.0723649252848119
0.0728607489518145
0.0724369963881173
0.0749073863677736
0.0722897480016929
0.0745713979685075
0.0715417691792282
0.0728252037884864
0.069479030829196
0.0742564434210391
0.0692525224567699
0.0719689551862908
0.0692590504893699
0.0713356510929593
0.0688521790743124
0.0747315747502387
0.0699491758209503
0.0738199971515227
0.0705008213696177
0.0747356096382848
0.0705265294586027
0.0716943775997092
0.0709667053183176
0.071002859051035
0.070853741859711
0.0720156125509545
0.0690213607736049
0.0703276830505306
0.0716456459177639
0.0728723516669224
0.0691358450170965
0.0717608428829106
0.069649380808109
0.072906404794448
0.0690290398175636
0.0737216013638906
0.0697835135167592
0.070563962273811
0.0690857130857025
0.0754392557844445
0.0700650771924292
0.0721952478606433
0.0718798337158615
0.0725849319446154
0.0708583670901667
0.0719599063388582
0.0700222299656442
0.0705996310548027
0.0684216723474479
0.071390408653876
0.0701654250072722
0.0700889939010076
0.0700556162747001
0.0698019073320978
0.0720388847091598
0.073098078298032
0.0709153658516104
0.070401359306949
0.0701414226692704
0.0686916042297361
0.0688406526285493
0.0690448420534555
0.0697676624569186
0.0689911919888562
0.071054549077923
0.0685971664054932
0.0668598844719484
0.0689491446247263
0.0728871714024973
0.0715920850835538
0.0708183045392352
0.070873649960174
0.0723252187974867
0.071665940217309
0.071295837913408
0.0705748925099402
0.0709962680157392
0.069733872923554
0.070114860721023
0.0725135681048344
0.0738216000363565
0.0702675837135376
0.0698264235974815
0.0712935712285858
0.0721998682068192
0.0718294553550609
0.0731206008096701
0.0740951213329376
0.0729824318108008
0.0700350765864397
0.0698965791470005
0.0702447928191886
0.072457943882952
0.0739683589139029
0.0735715431105985
0.0730819838203394
0.0751921665298823
0.0714307252935725
0.0722457272101422
0.0711840420501407
0.0720216321333944
0.0701293990917202
0.0707838504032627
0.07129408502464
0.0766389932509138
0.0722037124836739
0.0712654501222984
0.0750068223457975
0.073624498524725
0.0726900171644827
0.0734545678332596
0.0721694117102897
0.0734779995312674
0.0717598132915636
0.072703184845776
0.0738607495807347
0.0740762877690317
0.0725759410871396
0.0720553023420322
0.0729384679003564
0.0753329313656668
0.0739350920615634
0.0733389177047348
0.073052989706113
0.0730747627469233
0.0741768947405005
0.0748674974158639
0.0716069955855843
0.0716815955365116
0.0739934798134447
0.072853382740539
0.0707342537398532
0.0734383487153842
0.074563717224757
0.0728877955835814
0.0730657232962254
0.0757016288055325
0.0769000744897843
0.0778518958628703
0.0726459078710312
0.0750972987492811
0.0782551839481337
0.0778001575028322
0.0754175625456489
0.0768044175949334
0.0761274962152554
0.0774583411997316
0.0728996029259934
0.0773793061339246
0.0754556693007416
0.0744428265577299
0.0752709383134519
0.0764486195332152
0.0769725658168937
0.0770082892729815
0.0752855286042274
0.0769417843841124
0.0745831651789318
0.0774253820292737
0.075522516049377
0.0758103895119263
0.075745821954966
0.0757697686082439
0.075069400840392
0.0782949760935504
0.076756675948829
0.0760419065931621
0.0762145785690164
0.0769158293030036
0.0757951011909369
0.0752652459638302
0.0744020853905954
0.0733427316760429
0.0739274646491896
0.0746247334299763
0.0733757397958268
0.0728360273787354
0.0739153080403299
0.0733142693908931
0.0688547783325104
0.0730161267804996
0.0724565069339576
0.0758529092668903
0.071891057423822
0.0757446724828574
0.0721546509942476
0.073334393740559
0.0716432083721794
0.0739560602918072
0.0730613603978033
0.0711135446083375
0.0711829013409369
0.0745031556154584
0.0722263093008407
0.0742406021984213
0.0731725021528863
0.0731152950400062
0.0686210225201568
0.0710434326412712
0.0700742070249191
0.0730300210455005
0.0700729057018956
0.0699442146499718
0.0703798957664236
0.0707631825049072
0.0723167523391918
0.0746075498840528
0.0710526107178956
0.0713149301081099
0.0676903136297498
0.0704342134693762
0.0692068259655131
0.0711373348728028
0.0712095865630481
0.0709665700349861
0.0701089400850969
0.0727713292137855
0.0701055028802901
0.0721187322433127
0.0685565098150457
0.0698613043084863
0.0735600564333327
0.0736345310157622
0.0691372122991767
0.0705355417555422
0.068977539800916
0.071319947741838
0.068451502021541
0.0708100317665595
0.0689861584747342
0.0704209608702561
0.0703636722604156
0.0710235210532936
0.0673254020453609
0.0729646969883633
0.0704184320046751
0.0715764955771624
0.0704963264032728
0.071040731037753
0.0696949750348789
0.0717873075653251
0.0697148575274229
0.0707358362667518
0.0690157857942484
0.0710362703456431
0.067433072855878
0.0710663052354266
0.0685300996896161
0.0697610451271284
0.0693004170116206
0.0710295094308269
0.067742220248399
0.0705063385346814
0.0662634396745954
0.0689421333543913
0.069221844261247
0.0708652830312797
0.0696378630352288
0.0682988900622666
0.0686288765550498
0.0704188711534295
0.06964896757483
0.0683049847085722
0.0707648595729918
0.07128870175882
0.0667105290121479
0.067607597033458
0.0669459935307034
0.0671893798538537
0.0644450955915251
0.0684341708539028
0.0667786930932924
0.07139964757823
0.0684963647271926
0.068301226748579
0.0679181992146691
0.0688990683772341
0.0668101433793307
0.0686465103455008
0.0652000993506948
0.0661507159684538
0.0646759779243815
0.0663778156824214
0.0647475433588271
0.0671964480632558
0.0664429019182704
0.0671922192253288
0.0671987045386072
0.0642746238140684
0.0629589227687445
0.0621160524127991
0.0638074372163085
0.0659651379021822
0.064342230059315
0.0664489330884725
0.0640800769897203
0.0639082370791388
0.0647736501410657
0.0620694557602011
0.0622681511362607
0.0678567550345563
0.0658468703398231
0.0672451104895196
0.058998085251398
0.0655572308026174
0.0606313788404555
0.0617366849800147
0.0594775233007277
0.0620234241953433
0.0579856512788007
0.0632301451499393
0.0596203707534285
0.0620384424878596
0.0585903298623481
0.0607226196173425
0.059444679703631
0.0624608174262843
0.0580367118488141
0.0628104758945438
0.0574531004085805
0.0607358955275162
0.0572657381326086
0.0610466263362689
0.0606506359754456
0.0618971005840676
0.0584912356141383
0.0601108862125823
0.0627678099799004
0.0710239088685112
0.0597884046437983
0.058955657357877
0.0615511687714989
0.0603539057844545
0.0570541468340801
0.0575591414563478
0.0565598804944755
0.0602251143084878
0.0579338654192832
0.060490741546404
0.0559835422876115
0.0577879479576463
0.0580614549805172
0.057477070915437
0.0582777488900803
0.0589865634352434
0.0544339090340726
0.0585995871686462
0.0571325267261816
0.0566608543579167
0.054432740150946
0.0593715879335442
0.0559716056269695
0.0560820256063771
0.0594721203690231
0.0629825544642867
0.061327970879317
0.0570565738837737
0.0557894231117868
0.055385781631466
0.0555760935059619
0.0548417031769023
0.0561388139144198
0.0563189045752314
0.0540152376747649
0.0554860472315619
0.054051584446354
0.055963729857915
0.0541547366151868
0.0552279021573795
0.0522048640404461
0.0555989133556105
0.0553283070836971
0.0558158157325336
0.0546079108865966
0.0559129433932696
0.0514851856322443
0.0543102898111305
0.0552312622024277
0.0552584713924675
0.0575461743076128
0.0600291449181682
0.0662883699755528
0.0605705580306329
0.0521179589567685
0.0576624349372496
0.0526567741034502
0.0579315075845968
0.0521902003785852
0.0545367013253948
0.0529835054616224
0.0583255265062982
0.0518172062694523
0.054208740220887
0.0517351562262097
0.0556864449077213
0.0541828224195886
0.0542766221588894
0.0493788666047833
0.0554409782318078
0.0508502935264216
0.0539880855244685
0.0566894181285694
0.0670786608195815
0.0581926268672151
0.0556144842045898
0.0507966548151023
0.057266821139465
0.060081163866836
0.0682234486837744
0.0495211478584665
0.0574517341283794
0.0529544665880596
0.0579577954600333
0.0496262622387322
0.0553478791453904
0.0516147285049277
0.0600889690598461
0.0535214904401177
0.0559629271478601
0.0529384495595221
0.0515057909232626
0.0536814358277254
0.0567694178427834
0.0510322191511992
0.0551967477217717
0.0505000460441844
0.0535825368622762
0.0506147908942445
0.0540635862659755
0.0505646039656814
0.0564107717866598
0.0574200126347219
0.0627380883314357
0.0519830619330345
0.05322539191269
0.050086390938259
0.0544467590156795
0.0571946098483574
0.0638766667042533
0.057037121081857
0.0535703391254127
0.0540605646988188
0.0506798558540342
0.0541824490302708
0.0536640183259
0.0509840979870797
0.0533724253558979
0.0504088920663738
0.0549129390352057
0.0516077524360353
0.0534006445424126
0.0525998645265479
0.0514681059159914
0.0526632185650085
0.053322182545065
0.0527263022184257
0.0566153099005945
0.0495484238402435
0.0576697442753389
0.0589367398256683
0.0792617658992724
0.0626330196427197
0.0645669362082656
0.055328493667102
0.0558222141859012
0.0522274639123329
0.0536437116577494
0.0532061259781864
0.0565385788707577
0.0510069699816706
0.0533275718587168
0.0531639357695239
0.0507592137884364
0.0507603015287413
0.0523624362734277
0.0486115218707061
0.0521592288713547
0.0521601524564368
0.051391459602405
0.0514840574901805
0.0513223541220705
0.0521743154362984
0.0595090189734393
0.0628180577401356
0.0514830838180428
0.0640791481709697
0.0695937168603596
0.0786017915685789
0.059169145380967
0.0552420026347736
0.0562770805160199
0.0518383796606977
0.0551966807641535
0.0540061999636887
0.0596945926317931
0.0550365990401071
0.0526303408249843
0.052892275951614
0.0594566908873417
0.0528058159486111
0.0548264226780881
0.0629987545212509
0.0819629081190485
0.0702971868730042
0.0565444876246262
0.054036073247149
0.0673560651684229
0.0732015324472209
0.0641537622244616
0.0542860425765609
0.0633121152564019
0.0528136874335394
0.0587173902790559
0.0522240905473688
0.0581941568911064
0.0564574814541568
0.0585708330069136
0.0542865701446513
0.0569524299953719
0.055339063270591
0.0578006493739521
0.0587894755260054
0.070480967236767
0.0637798612766669
0.061719369024139
0.0591753582304756
0.0626629940197869
0.0539956777553379
0.0589418677066379
0.0553825664531962
0.0592899479950725
0.0687104454444531
0.0728604873737378
0.0645689526172982
0.0756568867600818
0.0653710549951567
0.0600897594341881
0.0595544812076788
0.0726055624559997
0.0604597505961004
0.0632384825402106
0.0669970000423661
0.0864404659189878
0.0829874049841792
0.0734117684843905
0.066579711271573
0.0555444091510256
0.0635749100017356
0.0542806836048944
0.0687308425070971
0.0692289726537763
0.0719810235772775
0.0573696241192308
0.0643903837224676
0.0718455585388843
0.0772417334188826
0.0682262182626091
0.0667894278028391
0.0639872441360399
0.0680575941193107
0.0744328140502453
0.0686291702578183
0.0715750593765491
0.0814271826732041
0.105694236030016
0.0815764703340729
0.0746348710029856
0.0709233303620254
0.0902213749673098
0.0779835187794312
0.063703558370697
0.067538145371696
0.0656787666667059
0.0672983807912144
0.0744795720087608
0.0854827279761651
0.0777801531368778
0.0663378272463143
0.0731614264688348
0.0716598788082772
0.0838387506202234
0.0829095006024269
0.0697907702719133
0.0757782022879109
0.0719872043379276
0.0790569460636652
0.101354584581833
0.0984820796840697
0.0906973993169856
0.0999663898748824
0.100394919206417
0.0868120917513192
0.0900530480964043
0.0821683063381146
0.0985118581762021
0.0982793932836306
0.0857051958011371
0.0793543456768483
0.102715645304124
0.101143907303089
0.0949064486032973
0.0858857868040037
0.0926905508261747
0.0854118875762119
0.127094955138987
0.140400359674433
0.121613174548141
0.0944490124315632
0.107632108093635
0.114879072313335
0.10462874033596
0.0949642666140154
0.0970754181824582
0.0950847626414672
0.094075357809842
0.0988495986511318
0.108686452636571
0.102440781018784
0.10728001975552
0.101012488716015
0.107692479711531
0.129763693760706
0.161231913406156
0.137297379905885
0.132483197874322
0.131846450092952
0.143730921389157
0.119512956706293
0.119978541125293
0.110955914829653
0.126297752086852
0.122009424609594
0.119978871002235
0.124427802312913
0.14466119465194
0.142879129258096
0.147249745471928
0.144641548697141
0.140887898092158
0.137701308609079
0.171482107971572
0.215563497887946
0.199924345638183
0.152473116652636
0.173134372084992
0.170013366197108
0.221700113690249
0.181588964073157
0.170590899213683
0.173575850408371
0.180611443175077
0.1843442740952
0.198787478788515
0.200062041221738
0.22111523319848
0.203449921842317
0.216571959321976
0.218974572189036
0.299917862424036
0.278360391248978
0.259153659704088
0.243459089256761
0.265354339056013
0.259833871736739
0.261988108589071
0.262710844846759
0.269585333577227
0.286188421945348
0.322681837259018
0.30330763884394
0.296518341155326
0.313897327975517
0.326145774560414
0.321999739176167
0.342724900512815
0.362026096779794
0.342449260019045
0.343768434351368
0.347221623135226
0.350794571051998
0.355830992774484
0.37433847895814
0.391673720303751
0.374688651074399
0.384716063704938
0.38348756667078
0.389784388758043
0.389391085767575
0.400257343475427
0.400315587048197
0.447152893051128
0.461005892816476
0.500944774541658
0.442315716698469
0.425489935428254
0.415336056694596
0.427865147177053
0.43685394783277
0.446362252743507
0.438543648488032
0.440963326359869
0.418364155284768
0.428340869378007
0.420064248404197
0.412471162588226
0.417390908395561
0.429595420398876
0.423733264831517
0.445174181777292
0.434544163204212
0.47349383418018
0.472075305948159
0.438083017654072
0.4216745332967
0.425351308052411
0.409762768859765
0.418081623559468
0.402900684240614
0.428601191822559
0.421146417105696
0.423206425726621
0.394551660404141
0.402437093512649
0.419094244318811
0.433426613832025
0.398723912105835
0.403080570515062
0.38829633821456
0.398457657970086
0.387733787520546
0.403840586365349
0.435356859177863
0.404130441383248
0.384525267640316
0.386381951020418
0.376975827957007
0.37899063713583
0.373196073664362
0.38495047202775
0.377234201871999
0.379173143417876
0.371666842166747
0.373348852058727
0.360219068716584
0.373904287360874
0.360266646102225
0.375004739973164
0.36411454496558
0.367949654987555
0.362054618469652
0.373259564410371
0.362884032500148
0.368756205529894
0.362229518142912
0.367725700814039
0.364306682662577
0.37114018532225
0.36190980764987
0.365523675733968
0.357330821464974
0.365701563128201
0.360218317686195
0.366887000857087
0.358161132607011
0.36387085604181
0.352379552440917
0.364070095952075
0.35649038339505
0.357775963324148
0.353285602561078
0.359407062354856
0.351032938218766
0.356616616420308
0.355413011477876
0.396910720755749
0.37105304115979
0.355065239416878
0.341961758975704
0.349903611978942
0.333534903965034
0.340504682682591
0.370877440779789
0.363628003408772
0.334885291335514
0.331215738258874
0.325488648348223
0.34228017920806
0.32266737892822
0.326802473404079
0.317581805317992
0.315599608793592
0.32595711956985
0.387284297327365
0.383741462983653
0.391475494962572
0.330246250962542
0.315674903109462
0.320312919398013
0.336258354620424
0.309216933949083
0.298282499545842
0.292942532886642
0.340390019399553
0.310817024962986
0.29835586807673
0.285745917419321
0.285305044483314
0.308730301532307
0.324971547630527
0.299201732212831
0.30862452779347
0.323546776078359
0.315637531267791
0.329544657443385
0.342942705893719
0.306557001263769
0.278685437285086
0.272203034588713
0.267947810366467
0.270896788760751
0.315596074804412
0.278723561625089
0.28193991127072
0.251918794244603
0.257609837919044
0.256116338079594
0.27493484216961
0.261804265347645
0.271118320660457
0.277811929656956
0.248204074911697
0.262158418118519
0.27032899142487
0.28449098014383
0.294831891591785
0.252114331519129
0.239532630552931
0.272500153313515
0.285180138469911
0.248271995488609
0.253528495784911
0.225410664754384
0.237377658330995
0.240372253641738
0.229705960867885
0.244466644444171
0.24756681929184
0.252532264228432
0.285522720595582
0.293849298155398
0.278990648292403
0.228037815192583
0.217288782358889
0.212452760236753
0.222583339562611
0.211037011388643
0.216109971960371
0.241384886958835
0.228504490655516
0.215166981846068
0.261871665524639
0.227478368800094
0.222919172556965
0.222505051069704
0.221830389693725
0.226915716002632
0.261208316997448
0.273220415500656
0.248064486363581
0.251471314364661
0.267763349689888
0.243576094254331
0.251236785424981
0.245079669144067
0.249731914224404
0.255078487320746
0.271097083555828
0.264710598433363
0.270401317296305
0.273469112172268
0.284033677999762
0.302922337521989
0.32404904212637
0.297751718974117
0.339426055791095
0.335990354837709
0.372658694064611
0.341536718616664
0.337922309444255
0.332015236040356
0.345293274665921
0.348429179618084
0.349750511922835
0.36146057910179
0.392150987735064
0.36482046649456
0.37816837556656
0.369159388893661
0.389325116960998
0.383424113474579
0.420497913503491
0.415295687085714
0.46340368313003
0.447915976497256
0.427742393844191
0.409385411315652
0.405646670407821
0.414726223275009
0.419287145143282
0.411077555943713
0.415883272593804
0.411580201735033
0.453105682913053
0.42668895913732
0.430803168903837
0.421293784903607
0.431591436891111
0.431508231957727
0.441422628857841
0.43890522370919
0.453482583522983
0.43918317680866
0.45274504442203
0.449480921616982
0.524152837899519
0.467421793302302
0.474540514858184
0.478035988783051
0.48088246663531
0.48230813840762
0.484224150422362
0.495512389942249
0.50394852293425
0.488376220674239
0.497462734710929
0.502594298948004
0.499952055916904
0.508213135051329
0.532735147233838
0.506464257042381
0.528904015949935
0.508691328952524
0.545737136944283
0.558914641082952
0.554313862400016
0.549407971959938
0.541582310869149
0.537085225301431
0.535457764415435
0.530100152447795
0.538873050754129
0.54261659182443
0.539089404416585
0.542573567195513
0.540271150327012
0.533893837137627
0.546122649925352
0.542385215372168
0.570701211833765
0.543208502120101
0.545359405638007
0.536196267226431
0.543572680336024
0.534161845013717
0.557396397992436
0.547251792339677
0.544918308135695
0.546349743277388
0.548047444935962
0.558774965119606
0.561394751951681
0.533982298973603
0.545072146718199
0.534389290034225
0.539029764005757
0.531589609293016
0.55013279081809
0.567122972653279
0.557930205488562
0.551680492633143
0.553389466149181
0.550441942281783
0.550510672432336
0.553660339353137
0.556054941364541
0.556970580817295
0.560663635717583
0.565126036333771
0.562687724803058
0.56603951290517
0.583325549769477
0.579958781356073
0.583543330286363
0.55875424036881
0.560461417490866
0.552847559461655
0.550080981055838
0.55577702321072
0.547087908716722
0.538337903790158
0.539212956525027
0.532292865508596
0.533487832952929
0.551176032234077
0.530418291110207
0.526639026565985
0.518699168107985
0.50912755255176
0.510375472975258
0.499645968607802
0.499841929926178
0.500250440219134
0.502100243818049
0.488582209469448
0.493429209816991
0.484517016985867
0.480488980172269
0.484481144577363
0.492256489230971
0.479105352569732
0.483992696974297
0.478130339213763
0.474508895505386
0.477825172247973
0.476562011002814
0.473349324723796
0.470993864462218
0.488041947635362
0.501794360895992
0.491341063124142
0.48108942110532
0.47837109893011
0.482062221870147
0.466700492460337
0.47224118987463
0.472987379959126
0.477827769414267
0.466607997221272
0.47206377887627
0.467105692476834
0.475481943517955
0.466952251775269
0.474984501409009
0.468604621241228
0.47173717795254
0.4615299738516
0.475952748415842
0.464983461371937
0.469977918650537
0.468223581227256
0.483515832249225
0.471885545066156
0.470706891226819
0.468218100862043
0.466213553165489
0.46701327910821
0.469882210384122
0.468154206590876
0.466458991603158
0.461719071533133
0.466578520582667
0.464980013109578
0.472324816715505
0.466146186629806
0.471385278943096
0.464667364691292
0.461037589337303
0.462334706519247
0.458760429456065
0.455271754637751
0.455252580014654
0.446225000008528
0.442706349515751
0.439551868300172
0.441722348356951
0.431297451691525
0.430183937096318
0.426162666593984
0.423183567586433
0.418525141481116
0.414304109278331
0.418414599853083
0.415239659612898
0.411920573457284
0.411483512115439
0.406694732523714
0.404189156282042
0.404943565985627
0.405527945878634
0.401223336572054
0.406521601924866
0.399288475763829
0.403498381066573
0.396777222237404
0.400843749125878
0.401675064742797
0.404024814288868
0.405605540430909
0.408555615540075
0.404922252752891
0.40948650664039
0.410008723605801
0.411455731156022
0.411894898386877
0.413140198684187
0.417857962249215
0.418338398805236
0.418087745463496
0.421159363710567
0.421673795898958
0.423990467153833
0.422679349826994
0.42373416574031
0.425730229803558
0.430576619215962
0.429498821899942
0.429379726130349
0.427715873074659
0.429971635909158
0.428440223487656
0.429459602771857
0.42209358546119
0.430387146589256
0.424154377867932
0.419764868466608
0.419577252082869
0.419707071589959
0.419019853173402
0.419007132172884
0.421121537587137
0.417537121312236
0.416748228475338
0.415778934982166
0.411258889491121
0.412695830579533
0.408796202393766
0.410381794933581
0.404800615554694
0.410137568565563
0.403897733444957
0.404224546593297
0.400818522205792
0.406234016938223
0.400525448798742
0.396575324544604
0.396025297591523
0.394805862271305
0.391924636187744
0.394801054986099
0.38931841946979
0.392281309536652
0.393035968397218
0.393321859368608
0.389155462886276
0.384638402175523
0.385705742281185
0.386689301007411
0.379979746286877
0.3817104818723
0.376529343016339
0.376675355885339
0.371950446542266
0.371991847074873
0.365734697229948
0.36541724973872
0.361029074338326
0.35920444543105
0.357159366697249
0.354144763975889
0.350860163968383
0.350164195279361
0.350213231269687
0.347867768565242
0.349220353641101
0.345698925129174
0.34329242717955
0.344349465212927
0.343931762721798
0.340688113297469
0.341616175819727
0.339952928320246
0.334615554088712
0.339436771976187
0.332970524393648
0.328855932111326
0.326721579902364
0.323449959554549
0.319813541619165
0.314386557439842
0.308282083350519
0.309194453926293
0.305112358543167
0.302730838541791
0.300647522214066
0.305136003972719
0.3056765235532
0.313415635145337
0.316119193480007
0.324469533064333
0.331052580121666
0.339946699661021
0.353450557782274
0.362911329955067
0.376796357556376
0.391562672699158
0.407568125837496
0.423682125601674
0.43503725912279
0.459014487230676
0.46943439576172
0.485203108864735
0.50042494095892
0.517171521554215
0.529802843688823
0.544100386831124
0.560979851492202
0.578060249919672
0.587358379095936
0.600504239499921
0.613517313402879
0.629190266067106
0.639585191064374
0.647012339345309
0.658299137828187
0.671798831090751
0.677654060598176
0.681372831797535
0.69254552257859
0.695942160615333
0.705831793714209
0.710275782498839
0.704068837947854
0.717627451726845
0.711355103279269
0.71302471316603
0.716491751033472
0.720218017435853
0.715718618629866
0.726496408712518
0.724756644788808
0.730247294903662
0.727473091936436
0.7263378592317
0.734342615205686
0.74099373620753
0.735047191430597
0.742998708827411
0.749455090107254
0.751220550889315
0.753504434677551
0.765018620145457
0.766426678224888
0.780202468713438
0.779089578435382
0.793340761382195
0.798844159216617
0.810815367886183
0.82579643359567
0.832643035724312
0.836464887599093
0.854227203468598
0.864546286755972
0.870592764297922
0.887310877774385
0.899051557263135
0.90305875726628
0.908273561468339
0.924098042120662
0.93092213260667
0.934430670401573
0.934135984035758
0.929642545281718
0.925561857444986
0.938170796599706
0.914339976147788
0.919147926077066
0.924537714883105
0.914895974505151
0.908312349219958
0.924289045652759
0.926841897650832
0.937123168833806
0.951570932629893
0.95397905637396
0.967220240980778
0.987896656188079
0.984337463905837
1.00030203760641
1.02768473779008
1.05570165587602
1.05023027745529
1.0581877717834
1.08306627126031
1.11175187078317
1.12070945397622
1.13798038452409
1.15749623317421
1.16724826930948
1.17479032626297
1.19244245037106
1.23619046739282
1.23565292754015
1.25268367165346
1.27257841856687
1.32569776033317
1.32879736382771
1.35479504609672
1.38279414394063
1.40289026284858
1.44985724954167
1.43991515715016
1.4705616167971
1.47918524030321
1.50821034978264
1.52717594199639
1.54890449915497
1.52372437667245
1.5809361151084
1.55064408036719
1.56962247363093
1.57668879024631
1.57742556822487
1.57485392943377
1.59000420440762
1.56295163339908
1.62772333984866
1.55383952595759
1.56273844794927
1.54299480363957
1.55384521158505
1.55594153217416
1.55784644888796
1.55498281413795
1.57076788151815
1.61800912762129
1.58222753571506
1.56237093829251
1.62525473225656
1.67175904846218
1.64545717093348
1.58666108333333
1.65801501017131
1.69377299918948
1.65725997980844
1.6406813545648
1.77422077010641
1.7205602629573
1.76636112744508
1.83191240592855
1.73882063594685
1.78945689635485
1.75032858862355
1.7937186719561
1.70861888394715
1.84759729204655
1.81908042521843
1.84934333949583
1.87850189213273
1.8534691664389
1.82885455428028
1.79146519128778
1.78409620195543
1.89937539293289
1.86480139246636
1.84151294955052
1.80635450406754
1.91852274005228
1.77233165968476
1.76450181313638
1.77376794469704
1.72573550253842
1.72762493177351
1.83489868910667
1.76660551345163
1.71245568476698
1.74591663548179
1.66033818535619
1.66804377887959
1.68164790641016
1.51460752988109
1.54011444741388
1.52113298519468
1.45844961321366
1.48083118549374
1.40637159353214
1.31685273102503
1.25764581238612
1.22668407878486
1.20934554464675
1.18724524566496
1.15499118519696
1.12185892294518
1.13874389536891
1.12359151805797
1.08160061126874
1.10158508667134
1.10304965486716
1.06166180981892
1.07906291271818
1.05129204759352
1.05485462998106
1.05505294220066
1.02592031629835
0.997046564224726
0.986644196040609
0.987300783303561
0.960873254389163
0.953057094018764
0.915137661343959
0.914774909858346
0.86340507905842
0.849244194083393
0.822308380259159
0.798633207571291
0.761286662189605
0.738617717123332
0.711967559048301
0.684488746844043
0.655849727303449
0.617893033065562
0.591567012238951
0.565723617027739
0.535988378156855
0.51172640685071
0.488584612564061
0.470074683696614
0.448484387980301
0.43273279890811
0.418022852071831
0.405553810912529
0.392504769431916
0.384105445225905
0.368213361348104
0.358760081403842
0.356105109784153
0.349377452462948
0.341459268938677
0.341118969568492
0.336624196500961
0.337245247210246
0.333134429641939
0.335838045532231
0.328528076971471
0.328366228382937
0.332868916725953
0.332277857091701
0.340312549485087
0.338494108106646
0.338527090441898
0.339404788344138
0.338354490765454
0.339182548929967
0.335259646134853
0.334754303027597
0.335764965771648
0.335126815361405
0.327823306674592
0.329774003253768
0.322632383351851
0.322420259558541
0.317982368280605
0.314981130148732
0.308266026859629
0.31045564396808
0.311612949179291
0.316510111377909
0.314044448342561
0.312253752484097
0.320401300510272
0.320413149511052
0.322346735082849
0.326000553656541
0.322773684057547
0.326385258586543
0.327773450851196
0.337420787266132
0.3384719486733
0.336336442054406
0.338743822650022
0.345044007901885
0.343958885853733
0.350427951563853
0.354625591158548
0.363157740402691
0.360480177571216
0.356789020140753
0.357501777630027
0.358688143630283
0.352516260390858
0.356400471713161
0.359730025539839
0.362891125240528
0.360307209637561
0.374017354317422
0.379781072463183
0.379697984822189
0.382220643200965
0.392374293261832
0.40365176376827
0.418568109961394
0.428775267144782
0.445556976279017
0.448631442048239
0.46456143721408
0.474948423892824
0.488899234509441
0.486724349910985
0.492501793879297
0.49641958405382
0.490225039292165
0.484432620995491
0.482798025499352
0.462929458813451
0.46199440500241
0.452103658422252
0.437749251980549
0.43105102960181
0.43185772557262
0.427453628898887
0.427389753918704
0.421313166986479
0.416482520036782
0.42443144642703
0.430845351806243
0.43070741920444
0.437068978239888
0.429455322962517
0.416150089353351
0.418466541928285
0.417648261464308
0.412238436467807
0.418292505099964
0.409992967010397
0.403096437483379
0.39100294536235
0.396173644292099
0.390473351347691
0.381837264788222
0.386786548741271
0.392220270776361
0.365048337933914
0.374304048176999
0.373846024192139
0.371072684087564
0.363696306899216
0.368174154191942
0.359330112164669
0.352904819000927
0.358827479502233
0.353031309933057
0.347077003734384
0.359118600330645
0.356354268562457
0.35354997918029
0.33802168611961
0.336184216952021
0.339337821152041
0.33896949485542
0.33037274506846
0.333230647928723
0.330232808381641
0.336880093658757
0.331642824813466
0.328003570989638
0.320865317033089
0.314503074056223
0.326200648338441
0.317911362023983
0.312432118335135
0.320123515702147
0.30240334807451
0.310205489744194
0.30153897340244
0.299399293646708
0.30705797253629
0.311139536954152
0.304214081076637
0.307566751854394
0.303822071770344
0.31217550428882
0.308484694008315
0.312063530052448
0.315939769636086
0.319405229421106
0.308091533330393
0.316349456091404
0.308355952791262
0.314946814097915
0.320319247230796
0.321625494218838
0.313279947894387
0.325314889753945
0.322260885579058
0.321264848408915
0.315968389150812
0.331353633193456
0.340660851440804
0.341174502753137
0.327559950421635
0.341654341905463
0.357980426896039
0.360170128575659
0.351503805053366
0.35477799633808
0.373704438513066
0.371279002782612
0.378825925345264
0.384204342202847
0.402066278300859
0.411165460693391
0.410569976792032
0.428665412179623
0.441242119482918
0.454836111616305
0.453665246611152
0.498704347391608
0.496205986183079
0.522160775359847
0.526085336985765
0.543591172594716
0.526659456536322
0.528762430480959
0.547667691126152
0.573335962189591
0.59083624426174
0.596533224001808
0.57478688864525
0.597669120871682
0.562475888133174
0.557028469822931
0.5758114525006
0.565547245656787
0.556454533226598
0.577418103617796
0.538577657487603
0.570544643362202
0.552894926231373
0.554912902670516
0.550543163067459
0.553943647439418
0.547868660861545
0.539139618176822
0.541889552006374
0.538754587804825
0.520552647708842
0.543407908943972
0.529549814308817
0.527218160360063
0.493241690464689
0.502784772676756
0.515107929750345
0.515951108276811
0.497757082672402
0.504198493627054
0.489746620095842
0.489330504281083
0.495528363208213
0.50257383913398
0.503641078283353
0.480721893296588
0.468875314130404
0.488594031132037
0.480389802601099
0.492786133770408
0.473605601318844
0.481385433778264
0.501632340738764
0.465540995769506
0.454554011135216
0.480763062524923
0.515952790325433
0.507422552426469
0.482806433184017
0.518179699077141
0.501546364025493
0.515989434596735
0.528222932601028
0.532215507091965
0.488798470124719
0.512198363627592
0.477696538320256
0.528565292582511
0.533506023216578
0.529658088268009
0.511974552368441
0.49995980136656
0.473789169797439
0.537353234900041
0.535412467200593
0.523429710294846
0.510856326940353
0.527930426546898
0.578876164350931
0.597890413371394
0.574308375895893
0.648118527522695
0.630349325901652
0.600152499193374
0.597361553651473
0.6188688726693
0.654069027996495
0.645751572905327
0.654031974334034
0.70458285382006
0.703216066427434
0.746516448354256
0.715511839677108
0.701381511833384
0.70571645894782
0.772343468854918
0.712089333426366
0.619573445056034
0.574770396378491
0.593454386135164
0.699679913293894
0.723828030368488
0.740649525491965
0.739135738254161
0.602631308315326
0.685273451049345
0.704947836943548
0.73938619477658
0.615948145450099
0.641178320030956
0.688652760542923
0.606850470618504
0.633906868438068
0.628411709346848
0.565535374087572
0.593100186739156
0.700888269463648
0.727649531941171
0.667700564941417
0.854234936211074
0.716056085572598
0.700987722554557
0.758389164931873
0.61817159831513
0.746087812586866
0.786794621037828
0.65219516586945
0.625778993446692
0.556190988592766
0.552366672390143
0.610003853972107
0.696436975738237
0.797731539453658
1.10906210699549
0.624883052685693
0.522033821076727
0.699399772147488
0.701209257985436
0.555941405386588
0.671512382062531
1.03746391254109
0.796861215995451
0.565470639467847
0.802358661004876
0.953879034441578
0.758521758681071
0.647694140467165
0.852349460522035
1.28354526236375
5
0.797077718099492
0.611301773382915
0.681969513517278
0.464782067726385
0.380895720750129
