3596
4000.36533379555
650.420452594757
1
2
2
0.0849679159242099
0.096090839694233
0.083136840339216
0.105634638989413
0.0831874869319712
0.0990359686465358
0.0852766964528375
0.100841939927242
0.081697285456
0.10463242609808
0.0794873926138922
0.0980402758014914
0.0745902167913031
0.102736225174665
0.0854020103592845
0.0978505509020818
0.080045852459137
0.0979881570741271
0.0778418005555937
0.104019817270644
0.0741773320030748
0.103120194386066
0.0857106020864133
0.0939186780725541
0.0824601817609005
0.108828371198309
0.08415962680956
0.0963089591586234
0.0815412579081333
0.102332514215169
0.0790978516727994
0.104031625035779
0.0867095656753034
0.0990837183105841
0.0761662759013299
0.0961001110297768
0.0866764114250012
0.0959307922070329
0.0773184764361622
0.0987474526904372
0.093469653814889
0.0982094373898793
0.0867997318779656
0.0985142279928916
0.073421541721918
0.0989086541563923
0.0839291675615666
0.0981146939199406
0.0796381684887303
0.101720937564917
0.0806520366422024
0.0891620197685582
0.0910042370841361
0.116163770529908
0.0856512008171043
0.113992694150586
0.0817733780270212
0.0958551144461052
0.0859002831852287
0.0979289257366277
0.0958244269452003
0.103119427693597
0.0865048657747048
0.0997918931650207
0.0814016504844648
0.0958454034762449
0.0704502697252005
0.0932058927974106
0.0653226189224555
0.0978277713591816
0.0709791049295903
0.109396095047831
0.0832579432952113
0.104749355280568
0.0775058020525539
0.10487226288522
0.0759195622852381
0.0929733513416862
0.0765223890664789
0.115940035439339
0.0892725227866847
0.100751549370509
0.0852571476606171
0.0937749989039981
0.0827486349380576
0.100872256840268
0.0676847387350441
0.109827639007296
0.0896381745775139
0.105783701029984
0.075753899138666
0.0929712148095645
0.0634804066951431
0.0911018821494959
0.0707229733024543
0.0962125264460683
0.07490771033123
0.0993043349268859
0.0737030830431858
0.109101210639779
0.0901066855302125
0.108281819395312
0.121244539085864
0.0744767364968623
0.147671202745571
0.102366583343515
0.075771219534389
0.140986831730511
0.0783086669102449
0.103579737167363
0.0658583025318215
0.102609053971255
0.0658101429974705
0.106691892660523
0.0516424812680427
0.131954436964682
0.103883299389935
0.0990028812006973
0.0756535232198571
0.0868954779688122
0.0550960093533652
0.135858546359854
0.11244420992673
0.0944665746543494
0.0884072261525551
0.0814466514749869
0.058819400625126
0.137644426330659
0.106570498902917
0.0859634534789876
0.081207583350859
0.0938628167411563
0.0625055043880046
0.090651644256789
0.1105261030614
0.0893546479477444
0.0779736740915386
0.0828591654886058
0.104206646955613
0.146142558028181
0.0836816931728187
0.090662770435087
0.0598993788517952
0.11162247827594
0.104471177304114
0.10203527574343
0.0679244210618559
0.103814639264099
0.0790882210933516
0.0888206559797687
0.0664514091219483
0.0852838338348236
0.099149341840024
0.0993755256929639
0.0336206455348759
0.186421253776527
0.131201579262396
0.119943958858306
0.133892457054416
0.0810698706830492
0.094662066465877
0.0758972820739451
0.0734243261071455
0.0782039502290168
0.0838600795936413
0.0705732847168812
0.0910891058257304
0.110839117064555
0.0760402189170128
0.0951407420847708
0.109752402132995
0.0944396066137915
0.0656725991039783
0.166353465825517
0.0794482345879667
0.0899746830583023
0.0972253825575139
0.0950467174158529
0.0625826180472777
0.0951996130951118
0.0914124165019495
0.0775680298460567
0.0778095199498769
0.0849525159061477
0.0821322874868368
0.103581919867717
0.0763855677286656
0.0874994297600623
0.0802023842512631
0.0695961530299392
0.0999842899017442
0.143046731855116
0.106100782864727
0.0751189835806351
0.0809538196270358
0.0563756305906877
0.120043374739662
0.10603354548917
0.0680743095999266
0.0875335865953357
0.0689337759897385
0.0878427093298482
0.0715125695840305
0.0838764395126871
0.0707730355401253
0.0609735785660938
0.130773060109219
0.0970836759403132
0.071850787455292
0.0761159837861833
0.0830902321946272
0.0818285812905337
0.1427681456746
0.111913178568017
0.0733420604096268
0.0825324437509277
0.0732745599316293
0.0961771549533178
0.0823930742297269
0.0869070603749217
0.0742527647897253
0.0778954451517422
0.0694370160642326
0.0834740427112104
0.0677422974926923
0.0830958129940677
0.0750618254119745
0.0767209241424308
0.0650399534703357
0.0853278425270889
0.0902706432110106
0.0871724232166162
0.0714045253613775
0.0882681771901857
0.0613135109191279
0.100828602090393
0.09634820230389
0.0814893336971046
0.0726732320759929
0.0749916021286043
0.0703966646960921
0.0749957629671215
0.0729034906768919
0.0869320890699879
0.0755555822799902
0.0762828540122531
0.120620498146498
0.0868932320227121
0.0837096224278515
0.0683733464832491
0.104943560719402
0.0937957840556752
0.0745986315171328
0.0866816487982348
0.0761233977828475
0.0750423263248578
0.0805008539225898
0.114506899763279
0.0818374518877815
0.0786394167105294
0.094172845181438
0.101229384245897
0.070980143894929
0.0893482825026044
0.0563642212382582
0.17887492554995
0.0895260925924449
0.0920089681152195
0.152880364198323
0.100356712192211
0.0824448037559666
0.0917230764789901
0.0442717665124328
0.222888375671319
0.128024398929452
0.0937595369474104
0.0814893426935243
0.107098085429749
0.0760989933325575
0.106520226306043
0.079160802529678
0.108675825598603
0.106353224293198
0.125438414965877
0.146838071607167
0.0680322843320727
0.119553101692082
0.115311629011763
0.087659559307598
0.0915377027589875
0.084642200346752
0.0860581662948843
0.103003335175131
0.108271756359376
0.103979276894898
0.0998716973547214
0.0770731444411444
0.130819397065756
0.0877946306182392
0.0922133792880509
0.082446053615595
0.107346600522889
0.0731623788767662
0.0949278632263996
0.0816145319014836
0.106394004364126
0.0805592443532733
0.106877689082547
0.136378557462937
0.114156202154215
0.077072009335937
0.126257820309557
0.0832156000736736
0.09304975682243
0.0783136753695204
0.102135834393347
0.0799022557902399
0.0945791633161676
0.0817500029556843
0.132846236776357
0.0882088182774983
0.101529990358534
0.0808111978717595
0.0993048569649342
0.084865740318454
0.0951961329152106
0.0816857527243781
0.093848937806587
0.087442454318526
0.0920408603969571
0.108738841349074
0.144325546190274
0.0645867175535212
0.14616166987003
0.121034016413152
0.10356763928907
0.0903050622270359
0.10160067115924
0.100944151242763
0.0930822272807021
0.0974986768702007
0.10691686582142
0.110183981909688
0.122425790393392
0.108618166752824
0.109940443515437
0.112271589518912
0.16895047720296
0.166537060415798
0.125356958922321
0.106586580848663
0.101096692753895
0.143248195499121
0.159635402028688
0.119642631660655
0.155700436288366
0.0956704818228714
0.13094520655956
0.100264124270824
0.12362608730745
0.112600144202198
0.135672634962136
0.108828900787072
0.131581654046764
0.11394930019295
0.134754744929924
0.118895950755455
0.143557083719604
0.163564812641505
0.143105483924016
0.11892074585006
0.143655290505571
0.118473796619196
0.179315183310637
0.158034963832994
0.203703636647063
0.169406140564672
0.182109538927415
0.185316543083905
0.147823673820893
0.15192231284155
0.14614746272668
0.14478705288149
0.152499683963509
0.156143494165755
0.153617809274158
0.156602981207708
0.167458036633711
0.16290149004376
0.162476005845226
0.158685013095419
0.173321529917502
0.192285499310687
0.172395190872235
0.179409137514801
0.176014685409207
0.195208737951725
0.240726827983709
0.231762827197845
0.202333401340318
0.18445028866676
0.197565769172583
0.17825501744641
0.201293886641022
0.185140994991103
0.225883157674357
0.186473547780986
0.242130762471442
0.227300593845778
0.24497987473636
0.222308298797663
0.205717644379667
0.232358499107422
0.227370184759136
0.239158027390838
0.263035878718235
0.219060239411863
0.232571699073151
0.25431439404958
0.268186004208752
0.241485757563122
0.288816485256878
0.23089850735029
0.254508214005412
0.239101435954833
0.258857235637791
0.239088481929858
0.268626209957428
0.242135623529331
0.280349704609937
0.260561234038395
0.268438457627886
0.254278891019948
0.310665744357265
0.285185853818445
0.284579694987664
0.295975682594561
0.293043531883003
0.278425896926816
0.289181706061534
0.309790982926989
0.324263224113727
0.327942471386265
0.351075390074014
0.287082510668918
0.33377560681211
0.313343015608494
0.320972027421424
0.299534973726859
0.339509365022346
0.328809309020257
0.352509356022386
0.328070883726577
0.346472538822078
0.323706534709516
0.354285935318956
0.342269918366368
0.356079608253962
0.341020868184251
0.360429638015465
0.355039753046335
0.376626123244048
0.392013973195226
0.449835296178833
0.39399659661683
0.442401680536537
0.38001623247587
0.417505804824472
0.383778149380859
0.417863879623343
0.400046319914774
0.433653809897853
0.41506516294001
0.430469886566676
0.413671287975975
0.446126207162078
0.417664461128012
0.444092972475519
0.425378490533513
0.457188229716618
0.440825239970685
0.46259063770658
0.455325813077485
0.480658224464581
0.459242333446067
0.507634740610126
0.462292570802901
0.493340809620675
0.488646224227335
0.490601314529484
0.476740034005539
0.506154433693004
0.484312105324595
0.516524521526062
0.502923582349877
0.526732603032252
0.496743603908337
0.524695511260783
0.523578713184672
0.546980632439983
0.534916868714902
0.561219168539668
0.557342143584981
0.580474017070542
0.571742801951149
0.593794460503253
0.565285435676277
0.600146266508752
0.578379643997221
0.623142782382871
0.56501052458231
0.605232110380459
0.58340795344863
0.603128983280246
0.590490964384011
0.638741173537708
0.61377105087477
0.640355164308745
0.63158480736955
0.624652927625257
0.597850340767544
0.671437040060778
0.640405198035013
0.661156111202159
0.654934013016181
0.710500013169983
0.666719959619391
0.688125079724513
0.658214872764847
0.708393951223367
0.674738420334486
0.675836256171554
0.67995479952516
0.756610140695542
0.719477291559166
0.718423435098591
0.70570793332392
0.748639080456964
0.72192216785459
0.780815381550242
0.757607614743673
0.756715286712347
0.720335608252015
0.787925343685958
0.758511109392708
0.763841191053636
0.743556906907719
0.793546207993704
0.756193082642003
0.781287144951954
0.764165559759324
0.812359727217336
0.810336745829829
0.826813395024462
0.769937984163731
0.858312587818838
0.834276562892041
0.825522726327531
0.82305559821967
0.829729613786688
0.812692726188522
0.902723776131232
0.814051563945705
0.912301261838072
0.843604140048768
0.900069917523858
0.863415124690512
0.886514444796607
0.852053594633922
0.943592759808498
0.882500929113704
0.881861829350652
0.881899314250667
0.971542928553306
0.901389809796741
0.902806829343164
0.888488911397864
1.00268493172288
0.918769613898002
0.93024187586422
0.967544397707455
1.05554964550171
0.92231245813274
0.977035203768756
1.04285643600318
1.02713997985056
0.970869422719883
1.04023739114473
0.953498111582023
1.00627306654553
0.96245865546872
0.983349056454014
1.00331973618629
1.17847792836771
1.06747899989979
1.09496257839565
1.02889566896355
0.997994848451776
0.976479745635407
1.11593742438048
0.962663948663679
1.00053659566667
1.05635134345073
1.01394388364757
0.999447332667204
1.1552933604845
1.08844297032978
1.08056751012085
1.06678986216994
1.08914077287066
1.07697539059979
1.08470217431911
1.0830844514605
1.13757099535669
1.11291366492092
1.16537810468243
1.1116691641619
1.19157619728585
1.08719759146274
1.13285858485265
1.13706406294967
1.19400639464861
1.2377256025677
1.18603480426788
1.22875876164757
1.25669061518538
1.06060555592447
1.09021756052006
1.13455016600484
1.21806955270476
1.16870867977749
1.18254784484934
1.09718563581839
1.20209596266923
1.27396557153814
1.24548612853052
1.1952956183389
1.29502689707053
1.17350767926053
1.22591642734643
1.12206701788771
1.2168388507168
1.16566634945202
1.24220440475489
1.15784575808211
1.2434964323909
1.28467142181593
1.29095034234986
1.22414199580886
1.2545277663414
1.30150803371453
1.27623431088208
1.29268740853285
1.38789875314674
1.28788520823804
1.3764164087027
1.32574121595624
1.46053506269857
1.33194998708986
1.31297129414465
1.16429828854123
1.214872192782
1.3480699133394
1.35060518800694
1.18199802080979
1.27882358982329
1.32914353597198
1.27999000348913
1.3233664606328
1.31008932064837
1.3083246599387
1.40944855400651
1.34159004062883
1.30449918514412
1.26070610452813
1.30500370945825
1.29520376833471
1.33386063306622
1.24982538231999
1.33648734347836
1.36146395674241
1.40235105412109
1.43366163094206
1.43751857356265
1.3470547011499
1.38454345705528
1.36026144257743
1.36752672898557
1.44842619765792
1.50186014269308
1.32814066267781
1.40771404638926
1.40588443207433
1.30300287905411
1.37770807114641
1.62428700417631
1.46138397964737
1.42370945215743
1.38372267321922
1.34299863139565
1.28861257493563
1.30932623736349
1.35144106031591
1.42275148520328
1.37416190017557
1.50991397267828
1.49500795976646
1.41133134703727
1.34971809998753
1.28619756730534
1.37073022007502
1.45055201306298
1.45498013945986
1.39040611273242
1.34250766648175
1.55440037035592
1.44776872569627
1.38720660571583
1.34102948362497
1.46829639811463
1.54194596979426
1.53197350042017
1.36696830455214
1.44681203090288
1.41669940722032
1.33130299921177
1.42467520895459
1.44980570670573
1.38358000877902
1.47606221780158
1.43152356331832
1.41309783447028
1.4053633175777
1.47000710571684
1.31543630983597
1.31148487932609
1.39860536731814
1.35819379697242
1.36196029813701
1.47949587837948
1.39316333287881
1.32844174658869
1.36887576767119
1.4964812366472
1.40344751594376
1.3874234729153
1.48798132419286
1.40474662336831
1.36946341854875
1.46530210739213
1.42349741892992
1.41157953595105
1.33963348474273
1.29818000666081
1.4458777940117
1.49185652897461
1.40763697828628
1.43058275714984
1.35409543611392
1.4708832610198
1.5183683210781
1.45677432606433
1.3515170079773
1.38210748320347
1.46941437612792
1.40575949356173
1.3523492794937
1.38417913876526
1.32695717560637
1.39565041381837
1.54002842074833
1.39843601111498
1.38223305460246
1.40946339965723
1.37123214833519
1.36378657090851
1.3011455021231
1.48317792640473
1.46923712903254
1.33833333494355
1.37767584964403
1.45687821368943
1.4866363727421
1.45981128399396
1.46763122529681
1.43959684407575
1.52693164685533
1.41491807857281
1.32971874815637
1.33822762084776
1.31626502458305
1.35381423919689
1.40856374683874
1.41580669383189
1.40362523239145
1.37281101997675
1.31693429512666
1.29874113464887
1.35612825702315
1.39884895147902
1.30134989419124
1.33737438387643
1.3557160990366
1.27562339565999
1.28308800936571
1.4224895221805
1.34828904995663
1.34928129253154
1.33271612731414
1.27509156702801
1.33561047967191
1.33988185364333
1.28993818886904
1.343828767633
1.38880489804144
1.27765209242965
1.31786578754812
1.34458062128147
1.27284375926944
1.2160441528685
1.27150521201106
1.26118423754815
1.23338775724795
1.3248771691031
1.28147479418709
1.24723691558802
1.22414156768109
1.26183815775388
1.26243811524778
1.31507236939809
1.32144540781587
1.25361008707255
1.26891157390942
1.24661136084431
1.24361146712418
1.2630592349853
1.31002890766351
1.25672338254896
1.24052402805581
1.23950147826528
1.23258729186689
1.22245163613514
1.20491659997936
1.19146785586854
1.20788895559233
1.19629151826071
1.18663612502068
1.31806296509523
1.23613684218274
1.14043299800294
1.15229818985296
1.22410928837252
1.16758396120259
1.1329776860075
1.18267292844416
1.17024873736053
1.22742096361532
1.19335081829767
1.19312499911001
1.17116790120417
1.15367437013579
1.1470534649803
1.14980417776881
1.10252461234295
1.13593539594448
1.177184594318
1.13156723972667
1.12757553487641
1.11875017571719
1.13399312251638
1.13720236568238
1.09987239522352
1.12373041516821
1.10596935607462
1.06420544105424
1.1012287468159
1.08101722071951
1.07912088599733
1.10125525068805
1.04356562482849
1.05670824962495
1.07676794149861
1.06150517434346
1.04142130260446
1.08677034016437
1.0841962038308
1.05238543848591
1.03314927361559
1.01969657745588
1.04436920161937
1.06054258841363
1.0306883688495
1.03180099781767
1.01391075690036
0.999925452380664
0.999645106959888
1.0104057727805
1.00732205965637
0.971240373000272
0.966628948862156
0.993166150663002
0.994453491226053
0.997781523505208
0.975683030555842
0.964405903551109
0.970766307828126
0.972538610130602
0.960290204719621
0.973361097949611
0.958635900535021
0.941482899043232
0.916997108911262
0.941188118694507
0.927622455864976
0.91657105807548
0.922247033934688
0.913773893159625
0.914696757580701
0.89851086205531
0.914686761873434
0.922143923275442
0.889033191937966
0.873063089006319
0.875811224834169
0.895594239709644
0.896900255295405
0.857963683075583
0.872544434489362
0.850119722079743
0.848576596183902
0.867820346185234
0.838008379433768
0.832155826966609
0.839173239812582
0.827587653677176
0.828554516144585
0.836035792611507
0.820434047361488
0.833981540102933
0.8062021558422
0.80490109874794
0.809595770986323
0.810473500321085
0.799005923898464
0.786367158035239
0.791970225296999
0.791774827539785
0.768155435804535
0.787626055324333
0.776871499617799
0.781349299026064
0.774347597356583
0.757737743290796
0.753078115889867
0.742412622106764
0.747865205983518
0.744709958508816
0.734317260797229
0.751085833671947
0.74336532005826
0.725392531067829
0.729563624336968
0.747258966721582
0.728730231805025
0.734694509251234
0.724834000567547
0.699853743299411
0.705771380933456
0.705184629905253
0.717817547101906
0.716885322568848
0.698381829518304
0.698136289152079
0.694080499551921
0.682307508544981
0.681418971394228
0.67752425897487
0.688671931287442
0.674528794990222
0.665523191110648
0.663257729792393
0.667057933518001
0.668399021484245
0.64402724987918
0.651275070578644
0.644295520383923
0.651069948018227
0.664212351786646
0.646092103846202
0.629056958152171
0.636753459557211
0.636781929719849
0.634057928185152
0.636778652925374
0.623617789064836
0.622805613777361
0.627253493647394
0.624025959012401
0.615138057474227
0.606742577534128
0.610345060457214
0.59435678141121
0.608542048635708
0.600823281102312
0.593413330184687
0.590174522484207
0.600199189393267
0.584691943860079
0.593538278084779
0.579733737448528
0.581857713366411
0.579453469300428
0.569775545154015
0.571468638241062
0.572714365519195
0.562579856459199
0.574836523048274
0.558127874999518
0.548998739243237
0.552243576840675
0.550220256823155
0.540081038514883
0.553088335735219
0.539088066426993
0.545890938874574
0.543488144294619
0.532597583241359
0.53233574847588
0.530561963397552
0.529872322797947
0.533218746828029
0.527291500891801
0.520459216797303
0.522175416064931
0.532283875974516
0.512732327059282
0.518162496177408
0.514451854978152
0.511270852322052
0.515819196073738
0.512503542198082
0.50828105230189
0.502228714229351
0.504099576061495
0.501198967667555
0.498931085090219
0.498488721522781
0.491813951537778
0.500435159971053
0.481551662827071
0.483594754630579
0.477833339803699
0.48242513689103
0.478484073752388
0.477359701536444
0.484532576920019
0.479383006405346
0.472878721144414
0.461175111247018
0.470832912317706
0.467616641267318
0.470340481661434
0.465046556256622
0.466175419334557
0.457497423995948
0.457362571499081
0.470782953227315
0.463338059132636
0.461472368346077
0.463815435298013
0.462438484048431
0.456051845400345
0.461348160067368
0.458492292813215
0.457134072864055
0.452830795307566
0.445065310328863
0.456615883209564
0.456554140477374
0.449152391708187
0.457573836913687
0.456299051312809
0.449101602805302
0.451303651176397
0.464092381774484
0.459172955489081
0.44589541467078
0.461677048138522
0.451082467630636
0.447773735907319
0.453536726430103
0.455325308329432
0.456545696178936
0.461751131041199
0.466889633492256
0.464527119463229
0.473174813253876
0.472652219555153
0.468109339796492
0.470490593278802
0.47989919611533
0.480202542875639
0.473456188040103
0.474337402060296
0.480644796045893
0.493682484050607
0.486234164531297
0.481784295297839
0.487152600254642
0.489754332286898
0.494541088469328
0.485493577243258
0.494044227257166
0.489748459312474
0.501882905166064
0.500553035506434
0.510996836774365
0.518049577420645
0.515387190583051
0.516062823547478
0.519804101728379
0.520977201398159
0.517170199798351
0.524704942589509
0.531572080692057
0.530127891992453
0.524888711675696
0.527866769450373
0.534402442110601
0.546372469247298
0.549225474029275
0.556946123463131
0.558721690100388
0.558887416918503
0.573178753252379
0.568708720463825
0.573004384460379
0.569936553113709
0.571623149875998
0.570430430617468
0.579077859029959
0.580646735560625
0.594352861506297
0.590481189598828
0.591710022372873
0.601319170809619
0.600872504169453
0.603948046153728
0.5973018604036
0.602869070398747
0.58549996503912
0.596034647366432
0.611273828440637
0.602905873466027
0.602225252278479
0.618693948864861
0.611543501706717
0.608773665710951
0.606235763746528
0.590518931215924
0.603105741966538
0.603812869956545
0.598426237719739
0.59869120865657
0.601101242125838
0.608474472188002
0.610214359289031
0.607323411712343
0.602268249620961
0.59704125928308
0.60718759710059
0.603599764793545
0.601027070235212
0.592345456210358
0.601086358244217
0.592446187438661
0.586654359394069
0.606297166382815
0.590704405056221
0.594621632993622
0.601073143357597
0.598247917323579
0.610417068328425
0.598546870096607
0.595626636484993
0.605172837260114
0.601203527734121
0.602458188959435
0.606736172659633
0.596497376962148
0.604522000638227
0.602832830432326
0.606465815652014
0.607307749898124
0.602023853482708
0.593399645824529
0.601171977186766
0.584424573581387
0.611368202015352
0.606956879714181
0.592502461802991
0.595975133460832
0.600539372922671
0.586162027523992
0.603975094327816
0.592314926792649
0.595904211301145
0.590499121474094
0.587837485537408
0.582834463363328
0.579132362072991
0.573847295117052
0.57893835140179
0.569175774676799
0.562476867733245
0.558345704561991
0.573071744086103
0.566657718316861
0.558125510961551
0.554493250450468
0.552132244347113
0.547514968602966
0.555655934878649
0.53651794532944
0.530120233788224
0.525576405387765
0.533112080389597
0.520966369954765
0.525885216958482
0.512010263559447
0.515259083087017
0.516324612478566
0.502215747949629
0.510600059773019
0.500411144771503
0.495474206107558
0.492534705332358
0.482303210822847
0.493254030373017
0.480123621269391
0.483910245863035
0.474526317494585
0.47447019210874
0.468425211075119
0.465403820493136
0.457932565761305
0.464798852197993
0.465952931847152
0.461343919448535
0.456181291439871
0.455222781725207
0.445148316482294
0.453539742010241
0.447125130498205
0.449524842935976
0.434425284941549
0.439060715603222
0.439761109513214
0.439888831993976
0.431692759167246
0.42915135205695
0.430029394352267
0.426910377861766
0.426671777005533
0.427389399814281
0.424923684389025
0.425596941386234
0.423267302948201
0.42280245358763
0.416428949280052
0.419635379067655
0.413240986470808
0.415559086325655
0.411263680045794
0.410808758580759
0.403939766593982
0.408457494619834
0.396549907975429
0.406327886715618
0.400545832003629
0.394918980646212
0.396944188139407
0.394582745332577
0.38821127400313
0.394104686606307
0.39694167545537
0.385002077941735
0.393199835274049
0.392436550002851
0.387304056758743
0.382938677851311
0.385640264171083
0.382319036361998
0.380067886782935
0.383190872300043
0.384591854628158
0.372806220698146
0.38113998940633
0.388269827192183
0.368663151867354
0.37275130307722
0.377812601063373
0.375831127096799
0.364696166135488
0.375748915855209
0.36639883628127
0.369755613232542
0.367909870849446
0.36565985643084
0.367427218772832
0.367232356956416
0.364137278736964
0.366911455880221
0.365705998738349
0.357918861101454
0.356998717859006
0.359701350147786
0.351292143362262
0.357828265606343
0.358480693679905
0.358507463731407
0.357192829290551
0.356306901882823
0.353602364027917
0.359018488034414
0.352209348234732
0.349146706127872
0.347969460731879
0.350706248606432
0.341697950621301
0.347430192523334
0.336612499439538
0.344814260322142
0.346599572345665
0.341409386713545
0.342442065018061
0.33978471955011
0.340562437039177
0.341849045583475
0.338620876566914
0.335147477843749
0.343646623671809
0.335830264460715
0.338635505617921
0.332156320462299
0.331241258662199
0.338320868370051
0.335132113003478
0.333047690195444
0.336873287983536
0.33655288514693
0.334992016103522
0.333606179271626
0.33781011901012
0.334420321485527
0.329361298329682
0.33211692629269
0.326491429908436
0.327435432233426
0.324323789094562
0.329898126180311
0.328016290624387
0.326057099244878
0.328318379241729
0.33019473203859
0.322787760578455
0.331670151178173
0.329568472159396
0.326366930004912
0.326502585608945
0.324634028132689
0.323978157270909
0.323448595165503
0.32773572812834
0.322256743369187
0.324974593939774
0.323176635124236
0.319948912293106
0.326297387514126
0.321548628909414
0.317154718114312
0.323050633498275
0.322219445825803
0.321094402129685
0.315576631732344
0.322274698396437
0.318002120204018
0.313178552284762
0.317639024023015
0.311907013919654
0.320034551243526
0.316248533006337
0.313509420321963
0.315877857868813
0.307535818076075
0.308371273230553
0.305850971190804
0.311929675646863
0.308368773178273
0.305958085459997
0.304385440798767
0.307092707554404
0.30433095582549
0.307368898760357
0.306679406026588
0.30697549252323
0.299059307453344
0.301395813574502
0.304450535853055
0.296934805331364
0.300369068683514
0.30557393919495
0.305952470473513
0.295969746858034
0.301268806001494
0.293451323000024
0.294107791165828
0.301084221649597
0.294241974616711
0.292912801386318
0.293845283634735
0.29368651897784
0.291911649839868
0.291796420981967
0.291979876001125
0.290584672164966
0.28699158664292
0.294963434264885
0.293406506463917
0.286060569993175
0.287136078630316
0.290353156974392
0.283076639364754
0.282632932056311
0.277801469666207
0.282545011069693
0.280119144814027
0.282286352125835
0.283836025232114
0.279448902675271
0.280975426145287
0.273153309523454
0.281406737849889
0.269660772330102
0.276235745122737
0.275992763128891
0.275060998922914
0.270533489927348
0.274103252433145
0.272169960506405
0.268720753615584
0.270939685684703
0.269739083308413
0.264636475713811
0.263583820667968
0.264346958020759
0.259735975573495
0.261695435545156
0.258645865871903
0.262413447944144
0.257866261816597
0.259280380892066
0.260274053277242
0.252903951180531
0.25669416708675
0.259449894600127
0.253623999190738
0.256151256634061
0.254861569430205
0.256008532976742
0.254705223932013
0.249868847452779
0.247276972877595
0.247886634252612
0.247924635746461
0.246631987233358
0.247950273905416
0.245806414256706
0.244362952671707
0.242409741111498
0.241822018156428
0.241289412675305
0.242599327571343
0.244319493265169
0.241227632857722
0.244336353338623
0.23776888884522
0.237469296008919
0.23558500854898
0.239779111529916
0.233379572163819
0.236025226734693
0.235029837985919
0.235944927810485
0.237726334677948
0.228964668031549
0.228395754971542
0.234424427696858
0.230057328328017
0.22875458187705
0.228726415543478
0.22470462009262
0.230233583891563
0.224391253125022
0.230409169690138
0.224512338854004
0.223057636238986
0.227007387485554
0.226202303385164
0.227579400188924
0.222405483016043
0.224816076540571
0.225960591720469
0.222190443807336
0.222088262590212
0.216819893406225
0.217511093129354
0.220366023653979
0.218443366426729
0.216179195853561
0.216559357104624
0.21646627845742
0.216708173480727
0.216964066722711
0.216760896449113
0.214767302013507
0.210909107877277
0.214307093521579
0.212023045967461
0.211798023201013
0.209684484324126
0.208448735658337
0.210400410224818
0.2147682995086
0.209794440914729
0.209566229343597
0.20691556543597
0.210674798563138
0.212310514548416
0.208512901760851
0.205339840344341
0.20738041417127
0.206460966041326
0.204813368707021
0.207204822720073
0.201669149234686
0.207486390085665
0.209669744671683
0.204960558868279
0.204136934438851
0.206456298241444
0.203362812405574
0.203932032578149
0.208497366152266
0.200156356199481
0.200801935622939
0.199444300918513
0.198639673690363
0.198862376511729
0.201227549646052
0.200771411678052
0.19801343928457
0.199654195079908
0.199054678947934
0.196984505095356
0.19741149604289
0.202257297207855
0.196274780173592
0.1960968724256
0.197078841728221
0.199113916464134
0.192743094017611
0.194794019785255
0.197028676751402
0.192638183934723
0.195750225238144
0.192596183390665
0.194141570299657
0.188483942334941
0.193312973814131
0.189338520713012
0.195319921868849
0.191122184303056
0.190644841144737
0.185554045136759
0.184171692294755
0.186048771592437
0.187731500441102
0.189027970210301
0.18848161064999
0.185085419016715
0.184944082569046
0.188596319877511
0.185555693198777
0.183008941067786
0.184064614493896
0.184058995560408
0.184993045526814
0.184567098693555
0.183569728917498
0.180943927758032
0.181544272519529
0.184884564105505
0.185826427679064
0.180959740901488
0.18109447109248
0.181149501721368
0.18488250400917
0.17802134352525
0.178325660147828
0.179115479074257
0.180983142906117
0.180694944775364
0.177083374024734
0.177641326382429
0.180871157522535
0.173998597637974
0.173585254112592
0.180220623659137
0.174822334790004
0.174023986906181
0.175518557258628
0.171739636096166
0.174804859698307
0.17308622388872
0.174882172015338
0.172206107074397
0.172135668576289
0.170086219330853
0.172116074019279
0.164787465135061
0.168974984609934
0.166883297369368
0.168831869806621
0.168435112425009
0.166140326192081
0.166654347101004
0.16618169933444
0.163952288522898
0.168362383427082
0.160966657490489
0.163420624323013
0.159843054977952
0.162219843245304
0.160990728511848
0.159047100477846
0.15975678647613
0.160201202787812
0.157631278966483
0.157744525891637
0.152779837108074
0.157546621771956
0.156253105863672
0.157052254328426
0.153331517260832
0.153343491841427
0.156357362084141
0.156274266655862
0.150825185785577
0.156116397205672
0.153211954395034
0.153220862672046
0.150609329876797
0.149916236249412
0.151306962486591
0.150762678746898
0.149661708929103
0.150576857418023
0.148510483617224
0.149962799246058
0.146856082485979
0.148138229432778
0.145876773370977
0.146886491727922
0.145454338359636
0.143988443287237
0.14448693088667
0.14769182224887
0.142595286048366
0.14717291794329
0.142193143728
0.143740872594542
0.138470158233106
0.140316323276523
0.141720605326265
0.140940132166979
0.136399150995988
0.141343115173748
0.136326659642654
0.137375358052718
0.134736776615136
0.136089811377985
0.132560511947241
0.136967401911333
0.132898838883159
0.136360343535574
0.132320714812964
0.132877894984847
0.12951477069589
0.133058847940275
0.130356769611462
0.130673019105627
0.126460364780689
0.131095366553127
0.126600797997265
0.130702223649216
0.127984446006018
0.131386897477725
0.128181834658967
0.127064942012227
0.124068369854408
0.127211678709775
0.124545857773691
0.128040199641293
0.126163105592117
0.126542535086646
0.127149021814435
0.127201010632023
0.122135822599284
0.12394068346385
0.11996053987164
0.12385454783002
0.120797726726817
0.124737045779316
0.119786199579722
0.123777728711615
0.121810081166822
0.1269084805475
0.119612449394752
0.122807857162599
0.119996680477789
0.122468029226582
0.118866786812891
0.126787312787146
0.117495279905787
0.122283099242095
0.117988567062258
0.127568685267634
0.122414173623693
0.125096451662648
0.120101715131343
0.126704769105839
0.125668718158798
0.127704582098338
0.126314504640319
0.134854058163682
0.122868786690624
0.1245034342225
0.122929117100086
0.126301187367062
0.113753843205091
0.125493034067016
0.119507126590494
0.127273186188447
0.115629909273448
0.121994042606447
0.114665869231131
0.125428427203987
0.111655036607363
0.12225071189352
0.116183141713883
0.125456073759928
0.117812809272764
0.123273851651507
0.111171591116754
0.12153940830938
0.107664360130749
0.128489118335959
0.109767910746578
0.127506812183664
0.112564916956278
0.126786460940712
0.102915754865815
0.128231683975501
0.106214165439514
0.127944180363553
0.109726636155737
0.127730115462387
0.10429973788764
0.128080433790102
0.104381480290801
0.12960411038388
0.110779623474846
0.137438110985754
0.111956091390149
0.128407565573878
0.104046936058258
0.122142850720625
0.100414410522935
0.122586729142478
0.10779681741835
0.128111924123576
0.116959450429903
0.11388740237721
0.110473867405315
0.112401548607076
0.126015049520819
0.105097428582747
0.119896912681698
0.0901815721782214
0.131398415524406
0.0980002263895863
0.136670839383779
0.0772991423958068
0.149628407314882
0.0811067254016234
0.141723070642618
0.0779349740360444
0.143578789541308
0.083255942848019
0.135030084040256
0.0912539220631408
0.1204247737733
0.103601229843732
0.111597064873213
0.106861025026016
0.105209885376309
0.110419148588359
0.105757640979968
0.109675612180521
0.106137899534431
0.103199512050398
0.108786062339802
0.0988817524907328
0.110224049597864
0.0955446552337728
0.107165015495484
0.10004732769355
0.104136781319135
0.100907045101384
0.103095375588215
0.101242605029989
0.102556542085945
0.0965249721488803
0.101639678179516
0.099944234977774
0.104893505234433
0.0973718453995696
0.100665010202816
0.0984295790412671
0.101266600371186
0.0974106484764359
0.102138568142625
0.0967193221779187
0.102900951025966
0.0974205244395573
0.100325465823013
0.0988134246967974
0.100602992933929
0.0988996441254101
0.0999222372402848
0.0994449032103308
0.102058647959832
0.100241620170341
0.101331085639363
0.10016582168048
0.101560711748764
0.097855804343467
0.0997189433101949
0.0966350913680897
0.0983946861685088
0.0981422897349606
0.100392924303742
0.0958634523872131
0.102595187940778
0.0987270932851639
0.102043905163516
0.097719079740172
0.09977630656338
0.101545939565391
0.101779493378234
0.0976114734804283
0.0999945152177977
0.0966562734268703
0.0998570026471147
0.0982788273159675
0.100235194759107
0.0959789612541753
0.100142926016458
0.0983536887636188
0.0977449503725104
0.0979601584827896
0.100283407794947
0.0967553993954797
0.0976075288784578
0.0980191314755298
0.0995317761067337
0.0962200687047325
0.0975986793725474
0.099958752661251
0.0974965238508156
0.0980803460116742
0.0994093559219661
0.0970478670156425
0.097321203625138
0.0972157026473264
0.0990995849249327
0.0986577684067626
0.0998764477031638
0.100316777090897
0.100109749811943
0.0981087694150344
0.0994338430949888
0.100885226350747
0.100009913493649
0.0988259206222437
0.0995771865629457
0.0984319279927655
0.0971984356280374
0.0993690960166481
0.0965922618036213
0.0967631100538287
0.0987064226459401
0.0992699392598441
0.101061649543766
0.101015537339457
0.0988369956513037
0.0979133551403267
0.0990469571005265
0.100959882896383
0.101662577445327
0.102673424894706
0.102586616176202
0.103119939250232
0.0989939109107495
0.0991509966843195
0.099580964693893
0.103498631935038
0.099700933281945
0.0994457936389371
0.10216340327319
0.104508230545977
0.102221865831697
0.096445894482888
0.102847828570928
0.103815334743411
0.100156318762863
0.0998931738025184
0.101150385811296
0.102229632170407
0.100884668181456
0.103137491258101
0.103579010011197
0.102752764027765
0.102505665278721
0.100326857396663
0.102675036934672
0.102328307105807
0.101576324039861
0.101989297400556
0.101459933065485
0.101694010652794
0.10246425260381
0.10066366349092
0.101587540638077
0.104067460281981
0.103925424379215
0.100886514137439
0.10073897376997
0.101835207117013
0.10241886737431
0.102149747809796
0.101747639826593
0.105242119448711
0.102806977557629
0.104127438859561
0.10197645872601
0.104190552108024
0.107214524398167
0.10688939406571
0.103784754166003
0.104874532435928
0.104198802402797
0.105550140639839
0.102788875190989
0.107487192471389
0.106572645770423
0.105704930344699
0.10659449165858
0.107216362357587
0.104191800352104
0.104968782227728
0.10510943862173
0.103640684933662
0.105232050260025
0.105097245510862
0.105580491252455
0.105816166614944
0.105053660469676
0.104048965306891
0.105187051034673
0.107242627641756
0.10558382566969
0.106285269423772
0.106358250226789
0.105498576885135
0.102112103481509
0.102693922275991
0.104092852286666
0.101799108159083
0.103097448974354
0.102228441030307
0.102435130106244
0.102869118852866
0.102006062047041
0.099829009173866
0.0962807654051069
0.100384484227334
0.101530330208666
0.10201698382475
0.100717520581398
0.104071837004484
0.0994832872492079
0.101651743454566
0.0982978012137194
0.100554308430057
0.0996484104550095
0.0990231853301976
0.098203261097127
0.100199317824451
0.0990962284472534
0.10067020356186
0.101046500485856
0.102130042314757
0.0972389790836486
0.0999228744414052
0.0993784981603147
0.0993306796592281
0.0982288029657735
0.0980668880279661
0.0994341140601206
0.0985931556705723
0.0977469555081882
0.100066827020799
0.0990979133548275
0.0980830314735027
0.0941870533665023
0.0982745886108957
0.0945678871044789
0.0968002977087828
0.097769716336623
0.098990609974943
0.0980759508396196
0.0990632799562758
0.0966725963982923
0.097926623811485
0.0939006899927176
0.0957379968677267
0.0972789633480684
0.0981219435166581
0.0965271711149961
0.0972448741366099
0.0964133080558165
0.0965820116848017
0.0941473446050227
0.0960750392508804
0.09603779387536
0.0960676394183865
0.0927422974705688
0.0967193650419018
0.0943317857509685
0.0960327461765843
0.0954913996239117
0.0961178501525551
0.0961448100606871
0.0964637193707151
0.0945967905084639
0.097685515276744
0.0967981258380419
0.0960700035559308
0.0942861445269245
0.0961206115356327
0.0933154952316329
0.0975750208171986
0.0955168590825859
0.096384863686644
0.0965042472729098
0.097154308589633
0.0940562156853072
0.094934063946543
0.0907505178181366
0.0923504016102093
0.0939664325776811
0.0970068963234636
0.0950297877359901
0.0923688140851005
0.0932331001121509
0.096127349853253
0.0956573612663424
0.0942761567389279
0.0920605834879633
0.0950485538370784
0.093855819100021
0.0913145166102678
0.0891284414812268
0.0908659976836997
0.0927799656974578
0.0944599110489599
0.0915423786799798
0.0944411155927571
0.091987851969445
0.0937761268867219
0.0901867999232615
0.0918095661992457
0.0940249116290073
0.0943171927078813
0.0882570321482921
0.0901985412407562
0.089627263964417
0.0906590001415443
0.0898389860240936
0.0889001301591802
0.0895506074615839
0.0901367743048836
0.0880303998829869
0.0861594013298307
0.0894341341520421
0.0865006337911762
0.0878482453995251
0.0885767769749669
0.0852087261812011
0.088379599385439
0.0890383215630104
0.0863954698145837
0.085478379602114
0.0848719145418031
0.0848767214811339
0.0883114049533752
0.0853252178279825
0.0872026086334589
0.0795667637446348
0.0851720007587382
0.0818168827935413
0.085982201914277
0.0833537371610354
0.0827808464481963
0.0810157970642159
0.0859621519643366
0.081485529704069
0.0838472987771223
0.0804503005229239
0.082376302182106
0.0816356331527577
0.084057763989812
0.0787605244573796
0.0823879625427887
0.0789801235275416
0.0815140580182273
0.0775507144031763
0.0823097217535406
0.0798577951988864
0.082025157770593
0.0774599302631597
0.07975900845533
0.0850201258703162
0.0923240609425865
0.0784000286846181
0.0768159927465902
0.0808435742528478
0.0820013735019401
0.077438624894659
0.0780091651286833
0.0753489898049687
0.0798349487151412
0.0777286651465547
0.0789804892903256
0.0784140357882813
0.0797920932802671
0.0761353212546149
0.0774255170478753
0.0786994953697137
0.0775101083489576
0.0742354555289051
0.0780686483137901
0.0764592736647024
0.0762475725229256
0.0760811249367347
0.0778770323618314
0.0747860404543711
0.0775670567051218
0.0788447614515967
0.0826100029909511
0.081576395473723
0.0762849342254477
0.0761453187943039
0.0728456123992364
0.0728392227245244
0.0745450266225186
0.0752552040518246
0.0759388988933031
0.0752788143582619
0.0748035761653009
0.073151070188332
0.0752972089958949
0.0742798788591533
0.0752421480282649
0.0711695983098984
0.0741380098436163
0.0747286795551863
0.0742893729348541
0.0724620895087047
0.0739568825837466
0.0704593819383502
0.071442700411626
0.0765507871287897
0.0730350943481093
0.0724864156428998
0.0782442638072093
0.0872927011583166
0.0780645757456425
0.0690460680350788
0.0774544665911463
0.0700477029744579
0.07282473142176
0.0714017149263889
0.0713079705961382
0.0692230744293695
0.0755244956970142
0.0703975993947996
0.0719794368815164
0.0684754737440113
0.0728514495892174
0.0715651011133866
0.0723398775615235
0.069743125620258
0.0746426665576382
0.0689955704256179
0.0726366677792286
0.0743712179676888
0.0843256625426223
0.0774340857771511
0.073194003684733
0.0706715074530817
0.0755690301206123
0.080018080707704
0.0879290132737858
0.0669127127725446
0.0760365731921833
0.0673196882157674
0.0745726383733311
0.0661001211853169
0.0732267235779437
0.0697588716173028
0.0779964808747586
0.071543465754418
0.0741560364737344
0.0717208870063113
0.0694177500586644
0.0702151571405031
0.0738200984502669
0.0718523634320442
0.0733827256475209
0.0651734963887159
0.069607316351259
0.0683673253058476
0.0727398920838617
0.0694992286725193
0.0726917621902989
0.0700168940856436
0.0807081368264025
0.0722070467391117
0.0739009079666976
0.0676762409087546
0.0715920838259936
0.0736903605774127
0.0829933706938168
0.0732405655861002
0.0695442652702715
0.0725367666108133
0.0704945887439779
0.0725323809772809
0.0709006782254824
0.0691991122436325
0.0719156629341419
0.0706186286541794
0.0730302308507453
0.0707559184954188
0.0706152577544789
0.0681430866609034
0.070169964913248
0.0706923941534424
0.0697308853374483
0.0698860841244316
0.0747770349998685
0.070440222742822
0.0779536428069857
0.0810903486137688
0.0987495239988532
0.0817610430861916
0.0856055437707853
0.0728935141630011
0.0718483592407138
0.0689760491542297
0.0719546309572882
0.0691824933325787
0.0752926657122567
0.0711281331253618
0.0708067536687546
0.0722533208155958
0.0710636573282274
0.0664539916609474
0.0712297010588889
0.0688248091352863
0.0715620991072977
0.071890841053794
0.0709169378006288
0.0699434020362909
0.0718602200684685
0.0733366354752402
0.0763577284453822
0.0812337663629493
0.0676790854403984
0.0849598604281137
0.0892951335572336
0.101468113915791
0.0778650360130242
0.0779799189481173
0.0750520164554848
0.0702757625847205
0.074278764236696
0.0756623760608357
0.0810545898461092
0.0749928530153212
0.0724314710032471
0.0712456726233617
0.0778674561799688
0.0709696165391318
0.0744733528093438
0.0844442294511923
0.099144583747165
0.0881432468047062
0.0731383105260962
0.0744464320254589
0.090197007498617
0.09329112454282
0.0858643220193245
0.0729997716062878
0.082805607358596
0.0729449497147727
0.0782564668250464
0.07288191252003
0.0792504869562091
0.077775902118191
0.0796166962280132
0.0737919815174279
0.0767111961290481
0.0742115370486702
0.079766702551864
0.0815928745670803
0.0921560405503668
0.0858215342952086
0.0793492368718623
0.0781061633176439
0.0843905880628527
0.0757470549547462
0.0813554090119134
0.0768565455608912
0.0791580129296539
0.0886059271208355
0.0938229023797018
0.0896622479936587
0.0974631551196743
0.0904627788824996
0.0829028701907977
0.0786599425735319
0.0962616234568642
0.0828011126833318
0.0869508653690131
0.0850483895929999
0.11007174879627
0.106247183033716
0.0960667558252937
0.0902737070412858
0.0810803999267328
0.0880659000896414
0.0758583547797988
0.0926197803452627
0.0934126201763735
0.0951550830817232
0.0782838820722448
0.0903423949143714
0.0921635272622062
0.101516923210182
0.0891571689953485
0.0895205386420496
0.0848079147429758
0.0920591034091492
0.0966511962808077
0.0923374490875856
0.0952687794339788
0.10970637418997
0.12592141231903
0.106481759452912
0.097413152976043
0.0978626768567326
0.114079863148414
0.101051904545264
0.0879525835027557
0.0930432955055103
0.0890511081683487
0.0920398996715404
0.10037643426207
0.114376741337435
0.10190184124121
0.0917144248300281
0.0983948139219014
0.0986085453985822
0.11356300755915
0.111066314006297
0.0950578387653269
0.100335471483465
0.0930608123291154
0.109168514886071
0.127797097428541
0.128706268893893
0.113241498224663
0.129390473914984
0.124089097791123
0.113986360606334
0.112929530398142
0.107124033926894
0.126534787399089
0.127327360746498
0.114953576107326
0.108996684701292
0.128219797413132
0.130371966421018
0.122295000134947
0.111033553982464
0.117891854504163
0.114863617682161
0.16522231960333
0.174324371937325
0.151242831191354
0.121447119012716
0.135034233871347
0.147754649962345
0.136106355161006
0.124611597336966
0.129180541830285
0.126433740731055
0.12576499634465
0.132769754529236
0.137648872453332
0.134240451995746
0.137258010017158
0.134827478415597
0.143392639555542
0.169885690835467
0.200290122537212
0.174163421031542
0.166996666054011
0.166558748807453
0.181311423497721
0.154597706731543
0.155749274955282
0.14405121625895
0.164089301652483
0.156461966927434
0.15623595438806
0.163067298083845
0.185674055079809
0.182273885543157
0.183095068470241
0.180794249439111
0.178210562433763
0.169750678274112
0.227309069300963
0.25951170316628
0.237854086995263
0.187676135137936
0.215690099008208
0.208345673644813
0.273335562346784
0.220211677398362
0.208776722585048
0.210109540780431
0.221412964047138
0.225472422914938
0.240116888056425
0.240144013262362
0.263191657357561
0.248433564842158
0.262432533342662
0.269930147723773
0.375458759051768
0.331793583878285
0.304495101999572
0.2863755450319
0.308725360848945
0.304955594526024
0.31062258033325
0.306314514804888
0.317279923853356
0.339795254251475
0.380873076814501
0.353760094292596
0.340499522186634
0.373866242966136
0.382198211645373
0.379851619587712
0.407686538942542
0.414399827468526
0.393219140671964
0.393039586147708
0.395314885412474
0.405053086340963
0.420075821995708
0.441679071818207
0.457344436721296
0.426731810210464
0.442888191096305
0.443852086401315
0.453847968415612
0.459857896163882
0.461949528379554
0.457647841357431
0.510313578211456
0.508690095052642
0.583835194668298
0.520806498132083
0.486442917951031
0.471918878203566
0.487471209278394
0.514092258010495
0.539847820049297
0.523856118580829
0.515091398788259
0.479121883531789
0.488255301056271
0.483650945611352
0.498882706920204
0.499385499642366
0.491237807849583
0.492301214426526
0.514601572406195
0.495856920701461
0.536247595577025
0.554676635429747
0.503374630510947
0.491450692219066
0.500550247856617
0.486328570079508
0.498037710950439
0.478341351344282
0.507415518515999
0.504547092960468
0.49669327952069
0.480116185290284
0.491283472177386
0.500706928880813
0.506100519452578
0.472690954983209
0.47832970388823
0.462427307854666
0.466596034598938
0.458144676327577
0.488662979776666
0.508782979119391
0.477466870950022
0.450468762724291
0.453349797411602
0.447199351390791
0.460216461182858
0.43249111772573
0.460686313362011
0.443576067247132
0.445986746399373
0.443105101801645
0.44444276003706
0.430597170523475
0.441327680951404
0.43763060613731
0.445356573911565
0.440650676565216
0.444290984711618
0.429172578302249
0.440851920691805
0.429559802798448
0.437710308228821
0.422550935777373
0.447349015587975
0.432276200178266
0.436316724699757
0.427774047272342
0.432879732878444
0.429624644439453
0.430558049131792
0.425644406977468
0.434357568389636
0.427123829246954
0.425306135367612
0.422302278093381
0.432286990162545
0.42331466822582
0.433887493878738
0.420725439726041
0.427017038499315
0.41722764412673
0.424228273792591
0.426803948957337
0.479436921023467
0.435557028566847
0.406479572969776
0.410245800378233
0.415286546532159
0.397208217055706
0.407965043819196
0.450062889643035
0.422647982065469
0.393390224235805
0.394656253313073
0.382514308325214
0.412610899610307
0.389692512186526
0.389846914961769
0.373798556538279
0.382924867823279
0.396776435048554
0.456304327304101
0.450962512734827
0.447092738595419
0.382210418425212
0.363361683540372
0.383959069375403
0.394478824625517
0.359698630907092
0.351321308863739
0.355184310858935
0.395630266741846
0.361681094786943
0.347373032579392
0.338457830298186
0.339353849925704
0.3658690122835
0.370394947744807
0.355776150345152
0.363831257679723
0.375088210851961
0.368669591489661
0.39947524457424
0.415088801682877
0.3540692338632
0.322190647731833
0.31921567997081
0.31839874363534
0.327864885935404
0.364517319206746
0.32326463166594
0.326150131108
0.29814545042638
0.30195609074189
0.302844849659839
0.327264991512664
0.311504358659454
0.322996990706705
0.324084656311668
0.299359829128178
0.3103914186
0.32837554092779
0.333478833982366
0.345166228057473
0.298639546576237
0.288128976705002
0.326934803993241
0.329227379887669
0.297082181894386
0.295127777852046
0.271548410675464
0.289814005907189
0.292984595375962
0.275753024554858
0.290192425708177
0.294827388214212
0.308198098351025
0.342858326962646
0.355381407850389
0.317707590972117
0.274668953970193
0.262249037007185
0.260058713885925
0.268865076585048
0.259259159958518
0.262596936329853
0.297300251706072
0.279099819322502
0.269724340878409
0.319181875227911
0.279155847136403
0.272093916484283
0.272844770212434
0.276209182765479
0.280001585117376
0.317081127672548
0.330010278318286
0.302122358450675
0.30574986682506
0.319985620500763
0.296381728217079
0.303128748017896
0.298802161061361
0.30430517602753
0.314247663496628
0.335529492793212
0.324242262514139
0.329094974381752
0.330178373297843
0.345192756254833
0.375155585522288
0.377876511640781
0.364936668839515
0.392895617999955
0.39706831581317
0.451651505967894
0.400024419297041
0.395727036420304
0.399307903314426
0.412933685924935
0.412512519445146
0.419773480472132
0.437434045850444
0.464726900358201
0.431843975082923
0.442108312060838
0.441495181660078
0.454014694767607
0.460635388017899
0.506068503519852
0.496107743497918
0.549984912113501
0.516275476728901
0.498359493251831
0.4834092481322
0.477082662931534
0.487604031874418
0.494244822639377
0.486178610666949
0.497233967277639
0.494015965297272
0.523256756386228
0.496032764727834
0.509034979393038
0.500615103918503
0.514880261912085
0.503311488178783
0.514996475701433
0.514785801900599
0.522233460618924
0.519147358687747
0.528029541453796
0.533322098136151
0.630399738352899
0.55467064010524
0.555131690604519
0.547912879855024
0.560875501614054
0.555381631758769
0.56495451335065
0.583338959336365
0.593710311586082
0.574033986138658
0.576058327774457
0.582430253659666
0.593467374152105
0.608943460060159
0.619712832804102
0.588452353728049
0.609912764385951
0.591732905904421
0.659522229388046
0.660394991617195
0.639677377988382
0.638098446849565
0.624933441402438
0.628884516294807
0.626100056384376
0.621484511079617
0.63476261689385
0.627743600321319
0.642861826984718
0.635160914446546
0.638068318256112
0.63422638268619
0.635161314676989
0.636956943026301
0.658287309987917
0.635622725020443
0.635338590135616
0.631820909827134
0.631386277077237
0.624126477918944
0.669359500080887
0.648522341818476
0.639460606467729
0.645367845502986
0.645955881596472
0.660927242917489
0.651376172239234
0.632020087772166
0.628099471022925
0.62030228913371
0.636066307756314
0.62661456158934
0.658242521628618
0.675815282492473
0.654257528355533
0.640572701384687
0.640554769845276
0.654013951431782
0.659572755321191
0.652693816742276
0.659225295873318
0.657274725978723
0.65877267702495
0.666582149594209
0.659115233014832
0.667050503650725
0.677097820266167
0.690482036005296
0.679413639305826
0.659120424822855
0.669831235934418
0.661378619045061
0.662022441509841
0.659738014828719
0.662948829636899
0.6459104378312
0.651625608584914
0.636004910657657
0.642688084519227
0.667053005141982
0.631511237610377
0.635270611229144
0.616456802007281
0.608941624420349
0.610602425809366
0.598411743081039
0.595764991199938
0.605088270949037
0.600200083000729
0.596729079205469
0.591383196512627
0.583669981665704
0.583605892279366
0.581993993095682
0.589156260953574
0.570349241776463
0.580148555680844
0.576784172775303
0.58209530248022
0.577513312607045
0.580421857494285
0.574620701230025
0.569630283529611
0.584850202590742
0.591225901924063
0.594292506539623
0.579253781240463
0.576122548961423
0.581260864029702
0.567054886214403
0.579556186577748
0.570264961921243
0.575482313232655
0.565970340592077
0.57467268309768
0.566221686063702
0.574470849701321
0.568272074634789
0.576310486670881
0.565800492597961
0.574223334687402
0.563993856708435
0.569092982737278
0.56602503974743
0.568446961574398
0.564068657389455
0.574009978269663
0.56561644562435
0.570969385423487
0.56803110421141
0.562656117461641
0.567255379763435
0.564365891791069
0.57066585332372
0.56642216314772
0.566412431015053
0.56229174654923
0.566034954661321
0.574636771492674
0.562057573743675
0.567183479819971
0.563319838308681
0.568023163041131
0.556068400530384
0.559234591449236
0.551290776651723
0.554098004510348
0.54650995316834
0.54213668872568
0.534140726856035
0.544701361793614
0.526418688463584
0.525627521750643
0.52079653588577
0.51999965350327
0.508255016245989
0.510675869336503
0.504992159705826
0.504079492369858
0.500685321449189
0.503471467448489
0.495802055459576
0.500289694866042
0.492736563793015
0.49318177317634
0.488508377136448
0.494767521148902
0.487753972588374
0.492370646795003
0.486205804645056
0.493122411327301
0.489709267268732
0.493720553193964
0.489023777030269
0.496770024839782
0.492824326513719
0.498551293554952
0.49989422012994
0.496647091417984
0.501725067564772
0.505192445914834
0.499326931072708
0.508809994041104
0.507538790085504
0.515239298885377
0.510538424964581
0.515087278764495
0.516440054790648
0.518109828956914
0.519167031269307
0.522624885964541
0.522051090148115
0.522703292859748
0.518701878136508
0.519670163735783
0.519999764955926
0.52426012324939
0.520706908562746
0.515135010840396
0.516162168401235
0.516938527434926
0.508023634505806
0.511731204090389
0.510477167080514
0.511250512729962
0.514383875091876
0.509029526021619
0.50589396472206
0.507126849407383
0.502287513854962
0.502784378647826
0.49790841591528
0.499739396501987
0.495344459158864
0.494825777029359
0.491161289093175
0.490403557468362
0.489279809136199
0.490288126831912
0.486977341584085
0.485888597350585
0.484689136299193
0.485112116721906
0.478253109767084
0.477354480946651
0.480016767193077
0.48089015715151
0.478241481433809
0.478466450345865
0.47440579556586
0.475631476771471
0.472185989781682
0.468726666183363
0.461771808016304
0.46249783747657
0.460070384845039
0.462710410666186
0.454810673054809
0.455493633919217
0.448908935037112
0.447180657331146
0.443255616045731
0.439097594757135
0.435286972586201
0.433793386110714
0.428994681212407
0.425506531756249
0.428071623388111
0.42790916564424
0.427151128938435
0.426374225941842
0.419006954645292
0.422412180828215
0.421302531107101
0.416496974993822
0.417115604471682
0.418581277137454
0.409979660525588
0.410635517437106
0.404049419367156
0.403894692285963
0.397902142026263
0.392339617127961
0.389829939473758
0.382385919614293
0.373481526661235
0.374419050623205
0.370423706921276
0.368724901720792
0.367455219603351
0.369842673891846
0.369294728445365
0.375556144203703
0.378519404286608
0.387197968526878
0.390532192798745
0.403235029898626
0.415812631222537
0.432484924295334
0.442527476628175
0.464149898746589
0.477661893601939
0.49283661286263
0.510681450103974
0.533895453033457
0.545808923071618
0.566231017711333
0.580359712259637
0.600007286731839
0.611678735429895
0.630635149687692
0.651352052655691
0.666882426804213
0.681713552353957
0.697770460653898
0.704140180698917
0.718184804900937
0.73486933622392
0.742112950047919
0.754282780175738
0.767068863459207
0.772682436163886
0.786357570816343
0.793130950013744
0.804504757985598
0.812924603853498
0.817829315115791
0.822857493120307
0.823507736071393
0.814854699620793
0.8250923578905
0.823393153409364
0.817692940516019
0.83112390923142
0.837691535420965
0.827921668569046
0.833565008823557
0.835025779220399
0.846176269984981
0.841730747083388
0.842172820599359
0.849023546605298
0.85660878915205
0.858869022432339
0.864183657275767
0.867266172934098
0.87128816408536
0.888418689193877
0.884010132965083
0.890528839379063
0.914533310241128
0.911380527519135
0.934855518620757
0.9237941588237
0.943508559439952
0.948640438097326
0.964202323024288
0.984644425634283
1.00102495167343
1.01760119317749
1.02205251946011
1.04098935743245
1.04508966932712
1.03692602407941
1.05195692348051
1.05339154135818
1.06357835162034
1.06791968795379
1.05838808131518
1.04625579289728
1.04522046185787
1.04680659853341
1.05226626414288
1.03988173674285
1.06064823837467
1.04178127943173
1.0348893470205
1.0531120183446
1.06201113377968
1.08159124825313
1.09036811962741
1.11570593332726
1.10993796711282
1.13268321433902
1.15042880017918
1.16349706151268
1.18896094799749
1.19126735022253
1.22228308304416
1.23295872749973
1.22801367476392
1.27234953747722
1.27743499814627
1.31064056998164
1.30248228779243
1.32681573272801
1.34807816616431
1.3803735298519
1.39746097539629
1.4219450241246
1.45312961704354
1.48895636165053
1.48930356235755
1.51059911625187
1.55720678066752
1.62907096125588
1.57792926692421
1.63458370602546
1.59307299441477
1.69073880031744
1.62102604925368
1.64194323200481
1.69940529189387
1.83822528996029
1.73626416373805
1.72017615373355
1.72765653366956
1.75816889588565
1.85762922312517
1.75910835103306
1.79017823392743
1.73553991780551
1.73794940534539
1.78921097311248
1.71577713525081
1.70939525362008
1.82667491745638
1.82091483668051
1.75461210228908
1.77135231660645
1.75895151859323
1.86392989129874
1.83414317213098
1.85630275359792
1.80017366135047
1.89153498155439
1.78134897807126
1.87223805302434
1.93254645196103
1.99341178289058
1.93003133184764
1.86787399569062
1.96235504801233
1.86287761169368
1.91684447197673
1.98621816717065
2.0241165382786
2.15889277342979
1.9421187610148
2.16071830738704
2.21265643052972
1.92973548219031
1.84651750707676
2.38079000021519
2.05197509348934
2.12953433685702
2.07949240314595
2.07119213761459
2.09872476513915
2.11513804664957
2.2290290146699
2.356558048084
2.15270473683332
2.35344273278773
2.15015389139073
2.40949147081281
2.09532136346695
2.2838933369541
2.09524405847076
2.16708972056916
2.29937616637322
2.35562476759269
2.10212856552788
2.3018958107203
2.12717487412278
2.08084934848361
1.80541712183244
2.13260661095372
1.99943697144309
1.80140244069114
1.70779887919707
1.8220919166049
1.78822113725684
1.80568040242463
1.68876187398524
1.69717670376448
1.60763311764886
1.61395030170074
1.59662002496581
1.54251829675628
1.53220117765022
1.5335310175106
1.50751540203402
1.48647587078564
1.41981044461389
1.53031633283306
1.46576201068475
1.47942493416588
1.45574839334464
1.39171277948434
1.40032134800887
1.4012499575812
1.34611541425701
1.34704299369532
1.30334865176959
1.30677765334634
1.26715109586356
1.24512141654928
1.18794308211004
1.19623954674258
1.12756142711875
1.0851783877156
1.04859124613374
1.02019296087808
0.965965834963782
0.919687064302212
0.880726678761492
0.852893002562244
0.811507433860762
0.772364297355909
0.736076658148323
0.711184874317865
0.681405658695791
0.654562532684303
0.628991845615099
0.609648319076502
0.59286658346551
0.581038822140969
0.56125379124994
0.550048685299916
0.541797014692135
0.532361585985724
0.517034844209698
0.509868658672975
0.513490383155889
0.507172916487496
0.501189413098115
0.497550400830019
0.494638754684966
0.497498200707526
0.495493503486331
0.495884431342497
0.501495784392435
0.4970427574042
0.492968744899197
0.497702673352755
0.502029978733779
0.497138688910843
0.496628016196915
0.493306106798476
0.491238431943551
0.488192374730791
0.48418902209649
0.483598319762829
0.477483065341604
0.475909776459377
0.471658616802181
0.463248597306722
0.455537413623172
0.456799881822818
0.452101351553525
0.453922579000643
0.450757700435513
0.455902085060876
0.460138296513385
0.459405244815782
0.464690687226119
0.474567448352544
0.467275305110601
0.480321809578699
0.478606451471781
0.479697938403493
0.484865596681207
0.49010247855037
0.488528309058026
0.49192382192023
0.496772100837229
0.494721726111833
0.507251152950327
0.508486658510245
0.504327167519643
0.505015449534534
0.501870187508029
0.504230835771576
0.49820749707275
0.506245956662967
0.507137825167045
0.518862894832015
0.51816643322404
0.52132372191925
0.529458165232468
0.535100399735988
0.539450137209423
0.549284485229203
0.553056709458585
0.573196013212537
0.592702779256865
0.611746724267167
0.613512580829856
0.643775303835402
0.654677326412742
0.660256511483542
0.670670676572755
0.6774851337154
0.672358222847676
0.669881808490936
0.671786596134761
0.66787006924497
0.645829536008036
0.652476659763444
0.637174064638312
0.634515944342999
0.62253859695714
0.617665106595235
0.608977835916831
0.602432372869537
0.595801640458642
0.60411298439327
0.591305402823382
0.610739311547949
0.616461912034729
0.610773729141425
0.5949845064715
0.610909418429868
0.60337395648128
0.591823475938226
0.586916340131883
0.584962312638023
0.576090346674831
0.571470842000446
0.576623756614267
0.575905724685339
0.557546106538341
0.551975926909678
0.545220322605255
0.532820179838317
0.527243394588952
0.540233265399028
0.522963589590317
0.529150062455652
0.520343827179951
0.517672312241702
0.517830346047666
0.515825375321285
0.510611862009969
0.51411760962561
0.496542899453078
0.504846976192617
0.508205122681551
0.500831731636806
0.492415052149807
0.496952934427002
0.495560640281126
0.502206334341446
0.48746010618841
0.493087014480184
0.482344448268253
0.469254349026278
0.467477171267682
0.478000238041557
0.476696174226749
0.461686797401109
0.46707420995708
0.462645862073834
0.464202654096361
0.461726603376427
0.456457397827616
0.454725372124809
0.454044198045767
0.462321122935546
0.448633587192184
0.44366868238623
0.442381284052555
0.443940049373953
0.442334719818893
0.466986052206964
0.457675651651826
0.441589392781318
0.447169399251273
0.458498150098867
0.455606010782544
0.457667504458876
0.443662482995939
0.455347167836446
0.449606219259057
0.454850637881764
0.473826183870078
0.469711797711731
0.471929654397218
0.473409516320773
0.462875033314935
0.483081745633785
0.490965854812691
0.496007235633054
0.48810756959629
0.477863932018383
0.490697450753182
0.497095021757945
0.514329350349656
0.536864421299345
0.521437635081208
0.522621136948468
0.532225572392336
0.538934565127754
0.565172548152423
0.558008905313625
0.5581175458107
0.59240289336649
0.615597918385621
0.665330086437449
0.635740093595665
0.664255495374123
0.695677808734541
0.709566303096779
0.697111541572954
0.734344705123641
0.759347659274468
0.74756567542543
0.768366683107374
0.798204711246982
0.790858729282025
0.850714668550663
0.755419228834261
0.789311355126788
0.792142599988733
0.791243399405575
0.772041616012641
0.76691342649051
0.750800445836024
0.790004670802074
0.786886352285248
0.790621044794678
0.742932453443192
0.751985108663403
0.775095569779113
0.803862389326079
0.784511761946162
0.788518534094417
0.739647807825281
0.735148233749791
0.73955656546076
0.782475200299872
0.739965880877031
0.7971144785041
0.733538842209957
0.682103383382294
0.683937045490105
0.712050948199128
0.70030951294498
0.696449420973573
0.687552063911789
0.709101687199963
0.719295658469358
0.746614518000124
0.7215130047046
0.709814619311707
0.718148726948468
0.680036024068367
0.672128344442564
0.686285687644402
0.6704641215304
0.695859706975315
0.682704229669099
0.673729073966452
0.695920590307775
0.736278478777619
0.718549450007103
0.72196955108726
0.654044154337618
0.719064608832311
0.695006655095338
0.661425216206507
0.675176975757666
0.726681732832351
0.730592039992537
0.713915800811387
0.660584690958055
0.741658669129627
0.746080232061673
0.70529409884799
0.703178290179739
0.670476785488823
0.708699705974864
0.66829973781848
0.679394175607791
0.888915081415181
0.792222121736776
0.77430304977094
0.7502304095745
0.758753357836753
0.760228439850473
0.901304486169487
0.812570636241228
0.829165930808912
0.804415251522283
0.702094351756838
0.755904080588554
0.839786966644578
0.865792612391051
0.981515865346861
0.853529493352583
1.05063330997308
0.967010519022828
0.91708622649563
1.05050896388667
0.962620504504545
0.948848022358235
1.07954594114532
1.25280301903803
1.08575021168763
0.880943338618655
0.932875235366074
0.97689092540944
0.878605172998309
0.853045366011233
1.10728243172364
1.04700667423166
1.01575407139597
0.930044068377126
0.922721213956025
0.881291913279104
0.953704476868589
0.898260169183764
0.83432189506117
0.863198935373545
0.947020722568426
0.973286600948481
0.976027351080235
0.741289411629614
0.804964507319483
0.792626896192586
0.932560152431165
1.0092614755348
0.922844290370171
1.07311010027936
0.889408509514173
0.724449586505255
0.774717883061708
0.871601815686392
0.913189443513057
0.822595166848734
1.15043514856723
1.11524335719272
1.03599723316444
0.954611598918187
5
0.768338287044281
0.934850835017785
5
1.0386931602977
0.418688774740325
0.532190335359028
1.4803238008599
1.85926658429581
0.888077766021658
0.6949494755895
0.864140465649021
1.27880253342655
5
1.27241421388004
1.13337049190185
0.96578707024988
0.434080151539382
0.697119934235133
1.15594058919967
