3596
4000.36533379555
650.420452594757
1
2
2
0.0868761414195159
0.101886011843912
0.0744667450489838
0.101076605141509
0.0979183061673477
0.0920755331378858
0.0849279114889342
0.101101898676912
0.0796955687346286
0.103697021234959
0.0793737034340854
0.100758860202471
0.07728090350414
0.0981858797430007
0.0797856444304381
0.0965544407048971
0.0790700087379273
0.100535133778382
0.0809370401022964
0.0951767850859802
0.0663797830955664
0.107884280709058
0.0796703901481083
0.0988845409571371
0.0900668976766814
0.10961836901038
0.0802336957900857
0.0975728495287812
0.0815231291931664
0.109493719663062
0.0835577991991154
0.0975604489151126
0.0849128019456291
0.102275865654766
0.0810796872467483
0.0936528440999508
0.0789069815937248
0.0985173700060723
0.081472900761844
0.105229924656451
0.0948257367965648
0.0978852158197003
0.0850125457437989
0.1027345209884
0.0767448239962997
0.0921948270628128
0.0851384558165267
0.0960398654433434
0.0790526894596937
0.100544931943375
0.078722985134448
0.0877007122768609
0.0873136214953251
0.122735948161836
0.0856426582152099
0.114588124227354
0.0765832431177225
0.0979771949606064
0.0915786390468731
0.105416522589488
0.105083121060358
0.113147772821192
0.0841234521640706
0.0988231956801125
0.0822323115033633
0.0964139349350086
0.0766645605115502
0.0969599417005482
0.0727343288954864
0.0991191243639425
0.0792357501791991
0.105415921056041
0.0863227188337156
0.102771649036653
0.08658463171219
0.0988330713653431
0.0703291612108872
0.0929675353314189
0.0793938188109095
0.121742330189995
0.0882654284289356
0.107519424442504
0.0765694402416401
0.0932321212289974
0.0872291815645508
0.119532933995919
0.0657694961518182
0.112310747281967
0.0999140821955297
0.0969069705669133
0.0762331276498955
0.0954182083327436
0.0717813025660577
0.0964259424954112
0.0756150381721121
0.10110614421286
0.0741840296657632
0.105755561134624
0.0701936102353644
0.102786903160284
0.0852362439144322
0.113659116692321
0.123794414473009
0.0899466188119274
0.138503711749902
0.095677437490792
0.0770154784787606
0.138394785469043
0.089234657517949
0.105244272006755
0.074507679711872
0.102172140251652
0.0767188666588947
0.107942540737226
0.0638091240370241
0.134094638838928
0.10599642322428
0.104434238571613
0.0693090332467926
0.0943209720785658
0.0702265870242499
0.12680261560267
0.114130705125646
0.0970264198489463
0.0846202312539888
0.0946679567471345
0.0636073882601089
0.151839889337049
0.106892263599409
0.0963479741451167
0.0795676880949269
0.0940113723438653
0.064969411329124
0.0874077689999369
0.111960159955548
0.100424230107761
0.0879408748331276
0.0781793419876875
0.112875340653708
0.155207762699602
0.0918568348013817
0.0943144592947367
0.0582516129419317
0.114709324632862
0.117761919583427
0.10665274639364
0.0777504796685624
0.117145652314277
0.0755459978121915
0.0933642141242259
0.0763068968848506
0.0905961444785765
0.107363831644731
0.101514952117035
0.0462536036704486
0.196815518195511
0.123614156390466
0.121133919611316
0.127782468799816
0.0841559778800706
0.106252036844935
0.0770226055238376
0.0809664177431378
0.0831512588883482
0.0791349883182305
0.0783641734871573
0.0932609250286188
0.115740215884383
0.0868875004308437
0.112732886656821
0.107755788031174
0.104771321603361
0.0761693961566116
0.170983729570013
0.0879606195560105
0.103059013497648
0.106936254896974
0.0966578725104442
0.0666179505670806
0.109084150948052
0.0996979681274813
0.0930055768645242
0.0851873309797557
0.087561941390736
0.0875846965926021
0.11588080037246
0.0765107328758091
0.086289969401347
0.0853341886198441
0.0784473248214377
0.0969239194067889
0.133713999749232
0.0999839445982478
0.0821524712088995
0.09035718982699
0.0639106648028082
0.127265864994955
0.104037116650402
0.0730050342734357
0.0898882830683695
0.0648272714831171
0.0915992361083154
0.0701660383004225
0.0898099286942863
0.0710351629412344
0.0712019884259332
0.127108630525253
0.0993416374242901
0.0873970140125269
0.0876227149596549
0.0849032098022147
0.0890029379370926
0.139337906832212
0.121244061092138
0.080713493438851
0.0858822543963985
0.0726703357753835
0.114711817558094
0.0841259281665719
0.0884322860249765
0.077694723884394
0.0827027253640655
0.0673392127141042
0.0884286723870743
0.0710704650366326
0.0842933643795049
0.0768972685663208
0.0890780337227492
0.0729210024220658
0.0918258826509897
0.0896345651163167
0.0923088637879715
0.0756914835153071
0.0940785635010246
0.0670250960832067
0.106319563992057
0.0969532005896412
0.0876910257018335
0.0773884362828394
0.0796937093219087
0.0717519620356838
0.082010759214998
0.0801753110203842
0.0898022684041911
0.0732129625139644
0.0831860455582022
0.121495445623549
0.0903325389863553
0.0877168072440176
0.072826043873346
0.111308604310117
0.0937526427367643
0.0840698960099005
0.0854263527976576
0.0814980949195345
0.0867035991315683
0.0894067086222766
0.117181613184794
0.0844088338063445
0.0867790482065323
0.0988394478713083
0.100383357847699
0.081142200118387
0.0960239266857363
0.0806473316801388
0.180227275829148
0.0890272390282564
0.103239371019028
0.147853812084403
0.102375964901995
0.0912939251639138
0.101120500478208
0.0655657900112779
0.251640739341876
0.123502908845145
0.0933101148633874
0.0863013767754592
0.113981727304091
0.0776835602765532
0.100481038903663
0.07900402622088
0.11251994143114
0.121660073266423
0.127080177503144
0.148106842826775
0.0837702855036728
0.12139658880905
0.110730425548115
0.0904815480292583
0.0976460580764637
0.0875711742329737
0.0903433850415334
0.102128727613658
0.114372660891312
0.105553778345958
0.102567187473015
0.0866940114730829
0.131089187046536
0.0947991462148069
0.0938932285033681
0.0885272927529021
0.116688164434676
0.0825497746273216
0.0972861083582325
0.0824043049916321
0.104919292752488
0.0779577427047726
0.115802850741067
0.148337299668466
0.111974658199597
0.0951165742062607
0.128122182460445
0.0824104928018755
0.0992990341940645
0.0824591090044258
0.101464260057636
0.086033162590402
0.0956170829551887
0.0810771929985747
0.133469833433765
0.0846602908027333
0.107458096371884
0.0866510180119142
0.0990863878311705
0.0881694830150957
0.100511391302454
0.0894375738438465
0.0954948947703665
0.0908340419486485
0.0949848929338338
0.115361090432017
0.141628430221425
0.070371610686072
0.151120754155534
0.124916006881914
0.0950767024738401
0.0900900896409659
0.105474913092648
0.102315153687198
0.093646024787773
0.0987477809670517
0.104247196030036
0.116060854862334
0.125287524519682
0.110955168543995
0.116552501787505
0.112940328448295
0.199758075212687
0.161837014792387
0.124552585919744
0.115641796700803
0.102092310864084
0.141614283040394
0.145960999084678
0.123959665168997
0.148912174543654
0.0923487164674796
0.12844268018382
0.108471006481076
0.135976596072557
0.107421066561695
0.133067421032812
0.108864799422432
0.13210567109526
0.114627938895791
0.137585085636844
0.118674606851899
0.148244356154743
0.157212711205951
0.140732986882485
0.115546938550505
0.146176838734341
0.11868198707649
0.194036107139198
0.155005625969187
0.214726711824362
0.17104552959412
0.178168265361544
0.189733284640838
0.146772323460032
0.154475857514744
0.147038998008402
0.153736158835909
0.156762534209993
0.150229845140324
0.153032149901128
0.157587969455579
0.172855829365392
0.166050430571223
0.15619844394109
0.157232711433545
0.170136925746994
0.189028316715849
0.178694481526697
0.174157038870315
0.179443491950598
0.19453465924271
0.24575549911287
0.225199145416067
0.197244143211555
0.191842676584001
0.20011689961005
0.168720216044546
0.199508791546925
0.184652273602058
0.216002602285588
0.189395563042115
0.254148288206976
0.224472489114651
0.241151704792065
0.225256647207913
0.200338136089995
0.221274265435482
0.230684793332531
0.226288367418278
0.26056260918168
0.222067780416963
0.227097061663992
0.250447212709079
0.264853509935354
0.235992292903247
0.25992740459295
0.22914061934033
0.24489557343756
0.224090758299568
0.25594279054997
0.238633477626689
0.268946156505511
0.246931579206787
0.27122780306181
0.252845214446339
0.272055724278031
0.255970338468049
0.295231126380889
0.266307982146908
0.285212543415766
0.277611621900607
0.282734226339753
0.280170857750739
0.287037307062102
0.322418723875633
0.337691080269733
0.305535226725707
0.331345269672719
0.285595528446929
0.326071596853305
0.299256268151867
0.302517021926776
0.283957586723007
0.310331225235478
0.310883075605942
0.338495319117219
0.301144595999332
0.333975446410248
0.319438619066114
0.352704765017728
0.3468287913441
0.350992409663936
0.335175348609941
0.358418768908976
0.341371826763457
0.373133455806612
0.379626257422661
0.417282158508878
0.380740510708375
0.423166126875199
0.356681334854088
0.396268994078243
0.362949398188046
0.405452771982247
0.378459593467748
0.408276686170649
0.393047184805826
0.414791406353797
0.398507581703929
0.424874816761662
0.405610379781258
0.433641017605275
0.410650412360954
0.436073777708664
0.418026427229286
0.445069853179463
0.420919939889135
0.437334402760196
0.438725511669852
0.484703942945946
0.436992004905138
0.48429016297661
0.448990665322059
0.465102538535767
0.448464546017692
0.483658499524852
0.464850778306881
0.487009097540809
0.478641231644286
0.496724264244511
0.483973385744682
0.515379611708263
0.49764217774928
0.528536836953013
0.50272512011484
0.534414506949875
0.523019192623094
0.556328857972665
0.539014082861988
0.560492937987503
0.530257180009042
0.559139784398855
0.535525251966049
0.580377058030443
0.550569601899422
0.587055577529065
0.551674499620194
0.587847981958233
0.551482545900684
0.597425947579885
0.544588793209055
0.599009099942494
0.586872041637478
0.592007910077215
0.569648120440913
0.623137612686703
0.614739836543155
0.648781424559331
0.605420786907719
0.66480225306224
0.626828768292494
0.634140195816028
0.638361466319665
0.624555389459362
0.641543577040393
0.668408695490491
0.625117564362583
0.69287777138985
0.646117978042502
0.675056462303913
0.62135474202825
0.622316949032171
0.642175930409196
0.738480485174966
0.687051020254894
0.720134820977332
0.701026498537141
0.723088306438995
0.67010600264791
0.721239880559048
0.707587653295828
0.756371810960088
0.703575743030658
0.744478470683106
0.757515573248933
0.736553817213926
0.731367136116319
0.77271144787551
0.755413889121562
0.793302992967348
0.722198262983093
0.776636297299315
0.748899776209191
0.783940163939668
0.766662729534953
0.81214881840778
0.773689910892608
0.844974096344727
0.789210705024811
0.830434808608392
0.798445061456599
0.860029647953122
0.738132332108711
0.827037909151752
0.802489465221205
0.834016114981499
0.831786099873504
0.860966499150308
0.823438004488665
0.875694973753271
0.852669938352252
0.847290261042049
0.823141544028207
0.895502575090018
0.865500432592934
0.905890097567852
0.90884934339973
0.873437059126979
0.846223531001181
0.933704931339677
0.926435404138297
0.987252495464955
0.865237529778596
0.973615553511397
0.959285374388728
0.981022152386511
0.923768896664037
0.96382846114935
0.923467164657474
0.986943844824617
0.970104542294678
0.995044321056633
0.943302819792901
0.983816758457253
0.952162519867227
0.926341030005083
0.920425737664177
1.03402564847219
0.973652503663901
0.980860480229863
0.957494857951714
1.02511957546294
1.01610045095626
1.0065637098486
0.980629148021328
1.05116168087951
1.01671593348151
1.13117128062947
1.03994243766022
1.06379527310284
1.02324403227338
1.1247897806387
1.03307012562997
1.06076654512545
0.99409682893582
1.07273255973534
1.03344320773395
1.04237437759581
1.05463006222044
1.11100438193537
1.0043951757755
1.09662471773669
1.07316363950632
1.15548118228616
1.07900810910436
1.1324856391463
1.11282158742973
1.14905882340328
1.16272955618544
1.10842330386175
1.10318058775506
1.18218131117182
1.08624985919588
1.08140949000749
1.00213377728404
1.0824109702763
1.06306583186389
1.21604323556059
1.14050470690368
1.16065653579817
1.10735295523151
1.12502391293904
1.06998635991954
1.10415358799865
1.18080297311118
1.18314987354187
1.17105537879787
1.25276979968608
1.13361661075946
1.17123633768098
1.19102755545715
1.32147959187399
1.15287999891839
1.16739801960642
1.17692215784219
1.2427871070973
1.16668744422286
1.25005958433282
1.19132675812653
1.25489468855325
1.19754747711903
1.14482431826064
1.14813867570978
1.22491384621191
1.16405450916802
1.34899259772867
1.30491460643258
1.23700724380443
1.17128763129144
1.16403843494548
1.14939416060022
1.20405967910062
1.28278720564369
1.24823448350639
1.14362337116374
1.24078060731107
1.32606022565557
1.43078381997646
1.270839225045
1.25141445650915
1.23666037860789
1.29576448480595
1.19921760066746
1.24912709956573
1.29254828083888
1.32377277219531
1.28670937636945
1.30662306129124
1.22893293223242
1.15605384901191
1.14824140134217
1.3087683979667
1.29576017233817
1.33477454018616
1.26528344544688
1.29712078336004
1.27917638547001
1.30045138983164
1.26057670916318
1.29631212076146
1.35980807431605
1.26838440295594
1.3114052461671
1.3596110808049
1.31761487796118
1.22626878225229
1.21127176435046
1.30015466647907
1.28421799483137
1.39246599271393
1.39853669009183
1.32019013455261
1.24984055742721
1.27919742614093
1.28909198239001
1.26808434158177
1.24361191052234
1.34025600885175
1.3047160559803
1.2802096557662
1.31992194525312
1.37454326534987
1.36721876236071
1.27735709936523
1.29410981287939
1.35842960004177
1.2867387202985
1.30065907285586
1.28859675970114
1.28899390893653
1.28375766588551
1.34490775277439
1.3462287343045
1.4038649450635
1.33635618317424
1.28665541263968
1.25058981943186
1.35853389389267
1.2564205380718
1.2918214120482
1.3198091328205
1.29779842376071
1.37260781832708
1.33528101384059
1.32881398566681
1.31681294181262
1.27086996122854
1.30284900559856
1.30445403734992
1.2910035509425
1.31134385908965
1.28552712866653
1.19244574143693
1.29154685520873
1.33277571877076
1.31228205638486
1.34468854872539
1.33149237565175
1.32442097408897
1.34355200624986
1.32293246842947
1.33415889483339
1.29936176438191
1.32521463850099
1.34174948305208
1.28124271941606
1.27804942044644
1.34761293146222
1.30054208963562
1.31807751137761
1.25528594690404
1.27308326792403
1.3636759082022
1.36787494541684
1.32146615321049
1.21713959911083
1.23186982396473
1.3285400224136
1.28040581660105
1.3324739021669
1.27626110958536
1.27141573370008
1.27933422940004
1.22609113267827
1.26261813373898
1.33937230271112
1.30377233425744
1.25545870555674
1.19806913205023
1.31946677082466
1.37155763286773
1.23279452659573
1.24298989261117
1.27597593423791
1.27997648516216
1.34571612906293
1.27762994688827
1.27008736161873
1.20153146204656
1.25382378370126
1.32107305268164
1.25741262227526
1.25492083509642
1.25834925441916
1.19030253364583
1.2722875661714
1.28365963246979
1.20491704917923
1.21196422751651
1.28622032307137
1.26043305991289
1.22562267614159
1.2371284816201
1.24660199309324
1.19916836240656
1.24116063254701
1.20155358367726
1.25811601679571
1.28152354290133
1.21543409704138
1.19748402915517
1.17648665760476
1.19768959304599
1.16878956708943
1.17341697567115
1.1960986292581
1.25037974696759
1.18852063617837
1.14399026372319
1.18067133908469
1.21766356103394
1.21249646324194
1.14780910346129
1.20897985950447
1.19044247658639
1.14622222129397
1.14324550068053
1.18047922924668
1.18334041192213
1.13091163706181
1.13542489555815
1.1413490392168
1.13027519598865
1.15354662859643
1.11052763271412
1.12434899979879
1.12790112132922
1.10124725049815
1.11933421116095
1.16815457681464
1.15506914515507
1.09412623483288
1.0849464448185
1.0954146689309
1.11591799100985
1.10510698551013
1.07150738987182
1.11295662353405
1.12164940731579
1.07799203178695
1.06595500804992
1.09999983463368
1.08338430601153
1.06713507974239
1.0995658624853
1.10254933105136
1.06033940959821
1.0546462520151
1.0703789146519
1.05894873369094
1.0643844777225
1.00789108383783
1.02442072817609
1.05855397273938
1.00386348530898
1.01140466628952
1.03577601267213
1.03919009401464
0.999746746570214
0.97841568373236
0.984742143801781
0.994894377332793
1.02389661750059
1.00360313071869
0.995023511904275
0.970482207593976
0.992213699864598
0.966435309178937
0.957662232877494
0.965763736069839
0.982462250561952
0.978525801427169
0.928917472292468
0.935176336335917
0.939720406674506
0.918788336294357
0.935234164421588
0.953074337551388
0.940935778528493
0.926314618339563
0.92477951027752
0.928394200235769
0.917794855525964
0.892854119892305
0.917823933596725
0.909113397360395
0.8763538852684
0.88709322579868
0.902431100085931
0.880825175927544
0.898148612600577
0.902103341755665
0.87315496547313
0.857209459676391
0.854785703396498
0.854916062712445
0.835075078177995
0.825438545869519
0.843314361080623
0.847413485766197
0.851660790949331
0.828636194704452
0.811917541940705
0.846042562953418
0.85795518522025
0.840942864289719
0.822891695427954
0.809801398157605
0.813223135590627
0.817625998285482
0.82666904797861
0.812525514475891
0.783980602512269
0.766213605795688
0.785563919798136
0.786543591854944
0.803379218103013
0.790911405906481
0.756384454236952
0.780125580724302
0.777307624072237
0.750171239301154
0.754388428388914
0.753169836986038
0.736962123309852
0.744058687615759
0.736328190908734
0.737387926332434
0.74941217809519
0.737510479178577
0.727199967192823
0.725422063983247
0.729223842489304
0.731886766170522
0.730161239300778
0.707404979417362
0.708551551869842
0.702712901582822
0.689940002234659
0.706871171229761
0.701022529752711
0.6872477604928
0.695097151823471
0.677028211125968
0.671354335433437
0.673075532989164
0.688799358636666
0.675148959267351
0.666211690023053
0.670015896055937
0.661975907968829
0.65847669700437
0.674928310189175
0.656988897451655
0.647891908899735
0.646303393909211
0.622363731229764
0.638889722933629
0.636978421677747
0.625911880434347
0.626691055918739
0.634066677076485
0.633465395430563
0.625183753496416
0.619955140078113
0.619733713254366
0.605884337563759
0.600549100793605
0.609646547756015
0.609231617806037
0.599947219658982
0.590419519470692
0.595665616943492
0.599646003174001
0.588476367291493
0.582003659422062
0.579821393812164
0.586022126991462
0.586611668158954
0.582975402827341
0.571330975020982
0.571057385802134
0.5667482908235
0.578064827841939
0.569082431010131
0.572157897576807
0.56987425810202
0.56090783264193
0.55152729777294
0.544607410299176
0.554095942246076
0.537183351457217
0.546382303054743
0.548120147835568
0.546819050363309
0.542117170073052
0.528807960209344
0.531974190999722
0.527444125342629
0.528824282115114
0.528893075693111
0.523378306356255
0.525053791643613
0.523595278927478
0.501695846219875
0.512183082823646
0.522890531368267
0.513726046251724
0.501077203221908
0.500139375412491
0.507103178638811
0.501717459019468
0.501429660237189
0.495499151544994
0.49858108715509
0.494908933322857
0.488428471293718
0.48348233226466
0.4855973201519
0.48721396400116
0.483796069079458
0.481910253616413
0.491650216302922
0.47792478929715
0.466703435754428
0.471312842911987
0.469818177040906
0.472447307914444
0.475526456328289
0.472287074973446
0.463824769078957
0.462607176894632
0.462155166167915
0.457765668026283
0.466644606328971
0.472027519235879
0.458034518839244
0.458896461014306
0.458435425314736
0.456186001338969
0.448252631735687
0.450744029285939
0.449806677220268
0.45888598644739
0.449717367411185
0.449135633218761
0.444684071317421
0.446903645522668
0.448830073841606
0.441253164801065
0.441704073776212
0.441138056069602
0.444120434325004
0.445811821161037
0.446208536635932
0.437129860278584
0.44299008848642
0.443414804818483
0.444643991037869
0.446832210192231
0.43909102260326
0.446530408259226
0.43891974813032
0.440984906985177
0.438611715204449
0.442379424943273
0.448263312502257
0.44766998656243
0.458184994792233
0.459996859200016
0.456670188067953
0.453259695806118
0.459910060615607
0.461760570304828
0.468500693355448
0.459427717581184
0.460705547205168
0.466428544214415
0.469643467378709
0.467604058772314
0.47761781218121
0.477412529361632
0.473362060295136
0.4683283185029
0.471324603224987
0.484170839032526
0.493550917300155
0.477848631430395
0.483019980974444
0.48770065179063
0.487585924927714
0.492145377075436
0.493745708646345
0.493113808412871
0.492489465701876
0.49276383738005
0.502882465093751
0.498911223469414
0.511697505008929
0.508731178818989
0.521056973925386
0.521030927902992
0.524150023881818
0.521551240091142
0.535103045927179
0.528528645298234
0.531832430470399
0.535235989351135
0.539501314962661
0.532070594428135
0.542076934581678
0.546639683665623
0.550764570796349
0.549480802557415
0.564502942652028
0.567646137539522
0.567038778015162
0.566440557824636
0.574859873631421
0.565612331685107
0.581934499003925
0.576989218559015
0.578049131443918
0.573434770113026
0.583629740439196
0.572838153345465
0.575583078865569
0.589404732136491
0.59454561501473
0.575223588486873
0.578658537462951
0.582797511753491
0.576453624901951
0.574739575506551
0.579255096464975
0.575469667094398
0.594875280568808
0.585732245991897
0.574165749647407
0.577359375417072
0.57798056805745
0.584247080939294
0.577688164185174
0.574329892295274
0.57821307742738
0.575583796616629
0.579730336542012
0.571110151917784
0.571886380641359
0.55755781276833
0.587143896551433
0.582384213267849
0.574437222105867
0.576531720474341
0.577619247131779
0.576563291324733
0.577362245959588
0.574314838836114
0.579166019385263
0.582282729987216
0.581999515697882
0.583249547756658
0.577671978328146
0.596038028246361
0.583494398732347
0.571582163211272
0.584834254902004
0.589619576323563
0.576927233990807
0.565493480218697
0.573242555892636
0.576018140022504
0.585038840713188
0.575736883995286
0.57103024279389
0.570626265657626
0.571215193625169
0.558583789400995
0.569720439567448
0.570404609508827
0.56857999506687
0.567822198274501
0.552044177727036
0.558917427703294
0.572508940468927
0.568432033179336
0.554474873780917
0.557243755348439
0.556724656298856
0.538516648728651
0.544642457945714
0.53535935236743
0.539960105822328
0.542046923801338
0.535961167511624
0.525766071627095
0.525442197343081
0.515218563281617
0.523879563119084
0.506598373005111
0.509511169223007
0.51367592640858
0.513827439888049
0.497214244192047
0.49176711922942
0.49526429758277
0.488072920749913
0.485823346944408
0.481551008799031
0.478424122769863
0.47154492375377
0.474679664322364
0.477300729254827
0.469212995227262
0.472465175429414
0.454193157376933
0.459994678236227
0.45984851503022
0.455017479898031
0.4395733427591
0.456170686068875
0.443133427728683
0.444327365782554
0.451115302277341
0.450910146935154
0.440264163371929
0.436981138240628
0.4342430668096
0.438528334736389
0.435567226238426
0.427305401648031
0.429181957381217
0.423525365504824
0.417466630891646
0.421486720889565
0.420988847820979
0.415009006561195
0.415037826171229
0.421397163571221
0.410166395009256
0.405808837704655
0.412826993363123
0.416945134811161
0.406144896013277
0.406389511570002
0.407192559723547
0.405766466607009
0.394912483041221
0.403769308579431
0.397061593972438
0.396745078335339
0.388764049455031
0.392694441599313
0.387215257122092
0.387516347012979
0.390050001303769
0.386623034861003
0.385966842518723
0.39134148753493
0.382008117730645
0.375998335467954
0.381387048955569
0.382811057769069
0.37994292309833
0.370629419923262
0.376288913537629
0.375331680997796
0.371776838414868
0.368589774258594
0.369646024662658
0.37247285256708
0.367052648218706
0.368817670423735
0.365084482303655
0.362437024323433
0.369140431344612
0.360083014290469
0.36960462679412
0.361682124179594
0.354114614782794
0.360814871928079
0.357413173954465
0.360876388842071
0.358900041326241
0.363926064149288
0.357496784872147
0.354534054240954
0.354784888900524
0.356515260349824
0.349862553548852
0.349364856695788
0.349021960009093
0.351005562498406
0.346378069271013
0.346597289459798
0.346542122367367
0.344236446775092
0.348659142318287
0.349099861729472
0.345829781495867
0.342321726461898
0.342311150841046
0.343468609768314
0.339719984456703
0.342088566005971
0.345232170077006
0.341348254913638
0.338474597780059
0.344137350721454
0.333348451924217
0.337604919237524
0.337310599765012
0.338981377371811
0.331262356471496
0.331697748887245
0.336119294715509
0.334702743367702
0.333455529814936
0.329369382641573
0.329595297058749
0.333647022505891
0.33039705863905
0.328640774674682
0.324674544511252
0.330351789031396
0.326128743858869
0.32770320534802
0.323510647408305
0.330665765248602
0.328012847069346
0.325707378338905
0.321098231129741
0.329353409307849
0.316511804391655
0.325555522774389
0.321564261359997
0.321110017518082
0.321472759565535
0.324847947157382
0.323206592558269
0.323538668839186
0.322561706831823
0.325998720631915
0.317383036527165
0.322087111658663
0.320859340584872
0.31817409049403
0.323903113273208
0.317257615691784
0.312697205165297
0.320969288500721
0.314981788435689
0.320942061543381
0.316101519432167
0.317102911503837
0.317285883863702
0.312482004738645
0.315552094108405
0.317286101841607
0.315619942416566
0.311303380643683
0.316402423951588
0.314298597013355
0.307312948019277
0.309701876216697
0.304989056149191
0.308568493419899
0.303376811931704
0.300945548780243
0.305159010765707
0.311798779321263
0.307953520061404
0.302865241091571
0.301535046541043
0.304130126220803
0.300958890686454
0.299756933341323
0.30050365615708
0.304853532292314
0.298033350040594
0.297871275499279
0.294685007313168
0.297537076134499
0.291591153121141
0.293887960698124
0.296827072808647
0.296445842036999
0.293576508934148
0.294869643610866
0.293542313020785
0.295198223352155
0.293508190020617
0.294324979437078
0.287685582170844
0.289155584823407
0.291394704980598
0.288798811421737
0.286293385513769
0.284175740828813
0.282901152747928
0.28321313952749
0.288711228361706
0.28541191023094
0.278278780447041
0.281176365499029
0.283199539013316
0.279165804089182
0.283208237940943
0.274730085491502
0.281871401379894
0.273632966060939
0.274652301247113
0.277001464359626
0.275049252714603
0.274192918064708
0.273030460913552
0.276851099739108
0.273170472299522
0.273507588527219
0.27026134278212
0.272096256912286
0.269128734985694
0.269544617435121
0.268206763495169
0.262827789469689
0.263646776577683
0.262926936463918
0.262800606361934
0.263344216973703
0.25775651689147
0.260398740251415
0.260548324640707
0.256572076890716
0.256282245019535
0.258668663468504
0.251034444851952
0.252948374898714
0.249779191143683
0.253368140728186
0.250194385661359
0.249410215379818
0.250960423007403
0.250825833636741
0.247004623798889
0.245095094816895
0.243775939583579
0.250087029583499
0.24789787676581
0.242272863455821
0.242488263970081
0.245410354476379
0.243120759292609
0.243759588611497
0.235033618703563
0.239921728847161
0.238290417472215
0.242481830529168
0.240215583613334
0.23726844720335
0.235355922227403
0.231904311351969
0.230115265160458
0.235511018143342
0.231720638373444
0.233428432194232
0.2293867068659
0.230827848738374
0.23304334691447
0.230599345697142
0.228535976778363
0.224546604892282
0.224298157008216
0.230648240028979
0.229463155409658
0.227490644720437
0.224132901906845
0.231628844210756
0.220573224595561
0.223686445973996
0.223037591039351
0.222700567394811
0.221471709483379
0.220961582439928
0.222686869184922
0.220658466553923
0.215742387659546
0.217926875995826
0.214534917275193
0.215938368223667
0.219751918975803
0.213410417364145
0.216075393755404
0.215319730196288
0.21630103897591
0.20984899817327
0.212069264353354
0.211517982648898
0.213570813635967
0.214710427807379
0.210836473893472
0.209161770168714
0.208803742437614
0.208481522717457
0.209393712469954
0.208394234403149
0.209829672630525
0.206245047495154
0.209733641988889
0.207549765790661
0.207021774751746
0.204672545000199
0.206434020989359
0.20754678985167
0.20539834124315
0.202016247221192
0.205636559640012
0.201210872698047
0.201194524484044
0.204368976521718
0.202415856136303
0.203678174693574
0.203639551754975
0.199510103403603
0.199807600874367
0.201695894037253
0.201677453297715
0.195704137348803
0.203649200142412
0.201746490536659
0.197376122418001
0.196041121037881
0.196576933685327
0.196670400450126
0.195823148155879
0.194783681197896
0.197060322282366
0.197565435648043
0.196888557500517
0.197079083539925
0.197876987100159
0.196912266363835
0.196490431410277
0.190845669047738
0.19131276252198
0.192016676617967
0.194248003874994
0.19052041101713
0.191185030892178
0.191363519461396
0.188670083495269
0.185234837702043
0.189650061318014
0.186100062802269
0.19022927313577
0.186471034315374
0.189211816575338
0.18559121145714
0.184648192556605
0.186197481687366
0.18628003721995
0.18348229414607
0.184479384103656
0.181197439829258
0.183455392369474
0.182507361255959
0.180997687927181
0.183497149085031
0.182286450017708
0.182031859136797
0.181749950924884
0.179385306119223
0.183029512424606
0.181173457069095
0.180832029902407
0.181128640179677
0.177987247249204
0.179075254963455
0.181313672422774
0.176756960143872
0.17837018461731
0.178513346603862
0.180061027861378
0.177261644306553
0.175347111609766
0.177050850743865
0.171492371998831
0.174012019940678
0.174583040688223
0.171740144231286
0.175166216662627
0.171410637243103
0.17330456662348
0.17588423641224
0.172366683465198
0.169367638375007
0.173159040048105
0.173913815841072
0.172801579356089
0.169848913877298
0.169440102136788
0.167351852167584
0.168764500746779
0.166984024749543
0.166002835543157
0.163542862833209
0.166065647441285
0.165836924419606
0.170301568714507
0.164265536408378
0.161428811363376
0.162192458452188
0.160749906939259
0.158928875545499
0.162596081551805
0.158226888082234
0.162047712037494
0.155342085673267
0.160138937748781
0.155738869327784
0.155447362176245
0.151777689931994
0.15426807465777
0.154509587196839
0.154641960500668
0.151988781307661
0.156269461223186
0.15411340819713
0.151669881962831
0.149206345120895
0.151817434621302
0.1511805671827
0.153536643831038
0.148729985332391
0.150512286693296
0.152254478423365
0.151535427212927
0.145663650875242
0.145390337146549
0.145632312625681
0.149074742619461
0.144119610104683
0.146695571419436
0.142454250810834
0.147660873478868
0.139437731208703
0.14393131926477
0.144377959406953
0.140625215296714
0.14191934060864
0.144191469058283
0.139095791685244
0.141883487785111
0.140259812621201
0.143418841684324
0.136704521066524
0.139215434900045
0.134118503198327
0.137817836900395
0.137688839153444
0.13555060521578
0.134702552159532
0.13683712274359
0.132955567105504
0.134743217195399
0.131769557858807
0.131949463244788
0.132635438224385
0.135643391632222
0.12836404814573
0.134930662406288
0.129617390967167
0.133200853732215
0.12862991175085
0.130397352871372
0.126412927708714
0.128270601512838
0.126453351461196
0.128704624467984
0.122925003715403
0.126476302420458
0.123099766600122
0.125862254700219
0.124041529581607
0.125718601190254
0.124365159633278
0.125495822917856
0.122384046820492
0.121523879794314
0.121545680550183
0.124567653626629
0.121545131151818
0.118548024510854
0.118381066699675
0.122986077944654
0.118595840640491
0.121769898776731
0.121173318826255
0.120241533111927
0.116622952327163
0.120410042733941
0.119290869030564
0.121142880820235
0.116366246461362
0.117893866133856
0.118825216291587
0.12089921458574
0.11628434479463
0.12037213355511
0.115064416764875
0.120651661019714
0.116777676971222
0.123051475094437
0.121789223633801
0.121882370498153
0.116037108579283
0.120446535551107
0.12012590642977
0.12576322229594
0.120075624183709
0.128222196334145
0.11667469815723
0.125225310785801
0.118726783668149
0.121861834638047
0.112583851218122
0.115664937101479
0.112381269340369
0.125420547343663
0.112705491392021
0.119899534068122
0.110067629275368
0.116178786135831
0.108551752467749
0.119314400011139
0.105839475528239
0.118403047613723
0.115182358332106
0.115022703072188
0.102239538240585
0.119926576744385
0.102194151744738
0.123173991374244
0.10360909566871
0.124511951024195
0.108493074911911
0.119189761288997
0.097530184788405
0.124938981006815
0.102487662938825
0.123046894309007
0.108507469522391
0.123497941022631
0.101654867493091
0.123981066515787
0.10484258063446
0.125920747283929
0.102937978645489
0.128335510056695
0.102134459573391
0.128591729321666
0.0947332610303799
0.119172443980979
0.0939422596197564
0.119110199481101
0.105085504369318
0.127349036927983
0.104967143639243
0.110333699414846
0.103813846310263
0.106502704300159
0.120012989698083
0.109963247916547
0.114750629793862
0.0879001941183791
0.129642871721567
0.0943446186347325
0.131111779898099
0.0759386413672889
0.143212483061357
0.0778683851154435
0.135843697457859
0.0764049494895433
0.143518987164917
0.0790300315336468
0.134204097386814
0.0896812983207533
0.116757960897438
0.0974547713647783
0.112359844649106
0.10620944500989
0.1031418359056
0.10675633689389
0.100200756689496
0.105175847021201
0.105510550317451
0.101754829383396
0.103004865736157
0.0972960257790311
0.106537699891807
0.0952579959167358
0.105110512420433
0.0964879822870064
0.10168566269795
0.0986995473202463
0.102124149325872
0.0960952840536385
0.102425779541802
0.0952968525969225
0.100104360037111
0.0976195725555771
0.10228989387563
0.0941123578135266
0.0986478800087915
0.0955515228076029
0.0988234824487181
0.0964430177006283
0.0988767267614202
0.0942784616939387
0.0995276977549805
0.0971572495061803
0.0977674788908064
0.0944318181913543
0.0976304878940356
0.0953344215579645
0.0979684362825776
0.0955666323754182
0.0988977615105582
0.0981524190362388
0.0984153683368548
0.0973444752604596
0.0994839361451477
0.0946146479305147
0.0984460653462335
0.0964646638138004
0.0986151752747634
0.093657140950326
0.0979055420766517
0.0929969266053794
0.100125239437114
0.094963020041103
0.0995189120636388
0.0969713101852689
0.0990610872189286
0.0966957815125039
0.0998467027900864
0.0958132766754556
0.0992042579975393
0.0958669227604845
0.0986981026776003
0.0976836959886839
0.0966812686976334
0.0951231150478299
0.0980520071066864
0.0945267750212827
0.0973944875284037
0.0980714971907076
0.100437295116521
0.094383512733524
0.0946758752194537
0.0941489720967852
0.0955580807444254
0.0939895716470653
0.0950856029580132
0.0988812238258706
0.0969118162074619
0.0966214177736774
0.0958986778068874
0.0944935258847405
0.0953835852212465
0.0957096065733191
0.0992496672909736
0.0980839415493736
0.0992334738185098
0.0974891637105634
0.0988286641300742
0.0960634068406183
0.0965225197020235
0.0981293927804417
0.0974754374547429
0.0959523792749451
0.0992056853052291
0.0999280634266061
0.0941150757790171
0.0968231821799385
0.0970581114335996
0.0978073655648584
0.10124106779364
0.0991012030286754
0.0988899318568037
0.099098127635494
0.0985559180524732
0.0977021988735269
0.0956302893459052
0.0986367279320668
0.0980819309385595
0.100654140458126
0.101113578104349
0.101099641251232
0.0998678389125062
0.0994843138902258
0.0982965157091047
0.0999437221721355
0.0977385354664803
0.0988426347629911
0.100279388029308
0.100972891452144
0.102644232433833
0.0995331744510141
0.0997442531587566
0.0996262172714166
0.0986880862661761
0.100222708373845
0.102325102397086
0.101811370224188
0.0990376528411349
0.100441083699472
0.101982310248774
0.100311210009442
0.100269395631072
0.100806225320107
0.101830889243729
0.10137713483202
0.100618660869468
0.101746146687264
0.101811617858557
0.0986179783683967
0.101145303245196
0.102056933058902
0.10075907284642
0.101218885925831
0.103004372482649
0.101122528741246
0.0992463914850735
0.0991937672704303
0.102016147260115
0.102619017829077
0.103689392488014
0.104154030674777
0.105340811793243
0.104088360698011
0.102974232717012
0.103136249740642
0.102010775547565
0.105352205084651
0.104677687758638
0.104733367703499
0.104086076644885
0.104633399945551
0.100571892825494
0.102893837361095
0.106341541706732
0.105264199098235
0.104731492333515
0.106032123450679
0.10432664872994
0.106326864590105
0.105015404408092
0.106536306034707
0.106061310811714
0.107599669877701
0.103515558096241
0.102902663136621
0.104877656904004
0.10399728494334
0.104251766570475
0.106468118488976
0.103617473362824
0.103682271432843
0.105096779747325
0.104560797417067
0.102390767150401
0.103098867441846
0.105874549170627
0.102632338658524
0.103297744020998
0.102445888305964
0.102650143184434
0.100248047911001
0.101344813598901
0.0991848701278594
0.0971806810448035
0.10167574715778
0.0998420745652676
0.103747442309797
0.0994544437474049
0.102776812498485
0.100345963420887
0.101771930642155
0.100293226276139
0.101398399063617
0.100363010308421
0.100005643883272
0.09945427206267
0.100243231633402
0.0979441310666088
0.0992890204522847
0.0995345188105707
0.0995145157160086
0.0978733193915399
0.0971028854187281
0.0979886128228734
0.102885531369828
0.0987290157066892
0.0974056513440189
0.0981448983265579
0.0987951220203402
0.0995440318545106
0.0981320410863535
0.0965660227181688
0.0982116491613246
0.0940388503817292
0.0966671202831655
0.0956727081404322
0.0966867493769303
0.0970554526934353
0.0991072725054137
0.0976704239372274
0.0997161182235802
0.0964237816101432
0.0969270541297107
0.0958309136359885
0.0957332343236358
0.0968426465372171
0.0993415227407792
0.0975019545372444
0.0959649611612314
0.0957101297887602
0.0959866156061183
0.0942499842513205
0.0958971186963832
0.093220919369812
0.0977319782651149
0.0947589296925037
0.0963781781765485
0.093415061965483
0.0955312680251576
0.0961675124838178
0.0970549286806633
0.0955932184012821
0.0941497899230436
0.0953951992150473
0.0979928805350034
0.0962275333984357
0.0973191664078397
0.0927821139832571
0.0948333595140779
0.0944675297855944
0.0975910802400756
0.09602434246548
0.0948359218184438
0.0970443036082772
0.0972432894985174
0.0944461304238246
0.0975536575643401
0.0916923327292466
0.0942559247408465
0.0929665600734888
0.0947555651153372
0.0942486048825919
0.094657652858838
0.0945619191159038
0.0930118045099662
0.0940457303855659
0.0945596352454336
0.0930786774780388
0.0929545146598028
0.0912371101721322
0.0903786366810953
0.0921380875987366
0.0924950460838669
0.0895858928110137
0.0926513973510206
0.0911145803226703
0.0954673762127856
0.0915465697041262
0.0936587516327505
0.0943603591570507
0.0917914909574215
0.0915195206259399
0.092345268836575
0.0883144323389449
0.0911518160527431
0.090467832621903
0.0898815067631426
0.0887220563779653
0.0901549416063505
0.0905673712296563
0.0913325335255402
0.0882907257657579
0.0866304339312218
0.0886161038004478
0.0840402676141608
0.0871822763321713
0.0901409070824032
0.0868622250622675
0.0867274689935581
0.0856970485298008
0.0861408203492113
0.086788048594191
0.0841864080709203
0.084895777328442
0.0894598631890599
0.087595440186191
0.0888587363075058
0.0806779741563307
0.0842132954596134
0.0825098752495836
0.0863023471869091
0.0809805694430527
0.0836514191443783
0.0811255630482027
0.0838073364298791
0.0811420439024969
0.0844692617835405
0.0797484538781009
0.0823929885347919
0.0812280638309045
0.0823280648940569
0.0788783373159197
0.0843027877407444
0.078460310791712
0.0812589607012362
0.0798806156655209
0.0820159551417319
0.0802553168731047
0.0813657468821012
0.077782988120921
0.0808875029267594
0.0843790186320522
0.0910775481652909
0.078963208982096
0.0785845766637294
0.0806144922858493
0.0810929008761333
0.0775766896647686
0.0801139767668125
0.0768193185354347
0.0777356984657869
0.0777199891528665
0.0797328349275817
0.0766284421700663
0.0801298504259743
0.0786929100176605
0.0755159311340526
0.0764248924126606
0.0762407423111883
0.0752968031694026
0.0796780264324491
0.0767544687489055
0.0779058577068287
0.0775540347313944
0.0783612588863981
0.074128711755159
0.0755153756518182
0.0754209935254357
0.0813744799583695
0.0817102208487941
0.0761727997769959
0.0753692327558817
0.0720106590541047
0.0741079810940173
0.0743254278548017
0.0757536652138167
0.0767600872820462
0.0748246538553888
0.0737928343999723
0.0724754108550797
0.075283308458501
0.0752414490723906
0.0751209006048141
0.0731245029305411
0.0751871567761902
0.0725508174995964
0.0727821509862319
0.0728903334783517
0.0746631217355051
0.0715141975896243
0.0726726132675668
0.0758741382874109
0.0717993870891597
0.0738710170571705
0.0778149497847555
0.0858161025976895
0.0770265445710791
0.0687475697942908
0.0762379083178354
0.0698554369660696
0.0750736937208293
0.07058320724092
0.071508117906339
0.0691896146550313
0.0746206226823764
0.0712328858690381
0.0716846578438045
0.0709075502428927
0.0736761578336776
0.0691380229943146
0.070705409870248
0.0694895911786521
0.073899607324658
0.0689647200800989
0.0711473689994173
0.0738165391398528
0.0844991888165087
0.0775466247190739
0.0723902622433865
0.0711781543638371
0.0772240297570586
0.0796913919510225
0.0882885449321886
0.0669468116875331
0.0761847108482794
0.0675798175811293
0.0724343010205236
0.0659112456276924
0.07410111725143
0.0692347058525129
0.0789060501056741
0.0732494828111943
0.0742024901179816
0.0710243773543633
0.072288816195224
0.0713957616067715
0.07388414079322
0.0690068263857428
0.070943657387242
0.0667700490274218
0.0720325736296189
0.0683194703797142
0.0713780067355293
0.0673307361192171
0.072759269769037
0.0723922596137903
0.0809032634185821
0.0695941753040334
0.0732453412730869
0.0664913659958033
0.0725083714993871
0.078329123257829
0.083555323472679
0.075427302471993
0.0705505736812699
0.0692549137225858
0.0688616712017647
0.0711993026796634
0.0716904351376245
0.0699248015810807
0.0711252802000059
0.0695336684522929
0.0737548065958908
0.071624367181729
0.0695191785855378
0.0673375694473288
0.0683993992821887
0.0695826407140255
0.0692719659728973
0.0704782483538838
0.0746085766638457
0.0697955949649986
0.0797941348600953
0.0812837855730932
0.0981958254024613
0.0810514303230783
0.0874636907658797
0.0720459907807847
0.0723288778208409
0.0704844659744188
0.071897524686717
0.0691783784476498
0.0750619279448718
0.0683163348450663
0.0732580321900976
0.0722930204507855
0.070446982116559
0.0676544897623405
0.0692850352307614
0.0686537755387539
0.0710451720256968
0.0699455053841722
0.068812072924595
0.0678172520685131
0.0693220755668397
0.0744837241094684
0.0779673366201912
0.0819202236332849
0.0675364484398829
0.0832922105641115
0.0900902905073959
0.102534628307545
0.0771985706227156
0.0788830010896593
0.0760704101754061
0.0712277113816783
0.0747944809985528
0.0757395274954592
0.0783132206754619
0.0742923505221279
0.0710020223535464
0.0725470884652466
0.0782351999542818
0.0704589084955479
0.076246421543941
0.0889151737431549
0.103840550779633
0.0900381469624007
0.0734693561172185
0.074871789478403
0.0880951748954662
0.0944689561038503
0.0856443736314528
0.0730468688801175
0.0832811272250812
0.0712421198506027
0.0794113698851179
0.0748308249383359
0.0802387579228012
0.0774522388035874
0.0792622361106242
0.0717983724930735
0.0769716918220013
0.0745023870444935
0.0784289394282151
0.0819740186284197
0.0901532540773029
0.0866029991548781
0.082857418228157
0.0793073468133731
0.0840753223774568
0.0760144146791395
0.0818129824535305
0.0755557532675036
0.0792178170574782
0.0884441407654763
0.094414468618039
0.0886165529831118
0.0975155433995944
0.0875704652362461
0.0814095370662616
0.0798129286152119
0.0969992297023054
0.0805687785664827
0.0872312734308903
0.0899798529367058
0.113945698746191
0.10716881142366
0.0984826164349991
0.0920039344143996
0.0812883404958168
0.0896928449762009
0.0780878971346217
0.0931815083140674
0.0935667102072657
0.0967170257364553
0.077376201256513
0.0898425472596022
0.0891725054106044
0.100241190210569
0.0884110515489906
0.090452391259244
0.0859016188525836
0.0946612701179611
0.0995768380771318
0.0930419647546564
0.0954128464193405
0.11174759710747
0.128943411070518
0.103933839809327
0.0976958657664811
0.0985803937534532
0.115541491561237
0.103322588061232
0.086243208565213
0.0944631576703352
0.0881795802457639
0.0929078264960721
0.103877394804846
0.114348588514236
0.102959793959566
0.0944898889918801
0.0991038955383414
0.0993230869553412
0.113470652890072
0.110966291262806
0.0933878555098274
0.099922760211967
0.0959140718923636
0.111548928553967
0.124379780403434
0.128150889031782
0.112183165027243
0.131685060480863
0.125189560654131
0.115967755407963
0.114391286015181
0.111413196540648
0.127571381575545
0.12545024785365
0.11318070553034
0.110686176216944
0.130446633665084
0.130297308521726
0.123300061780241
0.115674007965333
0.122294888082663
0.117848475150404
0.170106388785478
0.175759663630388
0.150559062071785
0.123372754996234
0.138549559685
0.15118444243813
0.137944787417645
0.124536733280422
0.129832616853701
0.124989842544125
0.126716475157514
0.136741419069724
0.137603292189134
0.136347869122193
0.140315770731389
0.135465473790497
0.141496391203504
0.169262448384483
0.197342735803507
0.171066904866884
0.169775273367325
0.17087393174172
0.183378682758916
0.152619911219213
0.15743540650783
0.151040310913412
0.166621895599114
0.160206864415104
0.156939241396192
0.162330759053913
0.180889229173098
0.17985462541185
0.185286037889586
0.183087246186437
0.176879227931589
0.171342490964921
0.219599659862301
0.250959136644976
0.23924434290618
0.185360014186986
0.214645065128968
0.208987765674643
0.259438729351745
0.211914559289065
0.201378786044186
0.205409073874966
0.214507156760621
0.218911143060506
0.237130681394306
0.234690030378907
0.255747881212584
0.23924717263458
0.255740219358127
0.262245166785876
0.358700520982047
0.315907130638609
0.290418663671058
0.276334581075236
0.302769773946238
0.296845282407963
0.297863621962554
0.291716439050983
0.307953079741207
0.322353518057395
0.359944942668685
0.337373762233619
0.327561476787664
0.352126543263272
0.357734182687615
0.361180810799208
0.383835783213927
0.402468308621165
0.375939311774816
0.376227359793326
0.382527522307614
0.383430326037665
0.397012050527328
0.416737964953444
0.428711007714012
0.409416308739074
0.41682673663841
0.421014880336034
0.428486892937278
0.432969331541468
0.442851392052858
0.45336167398162
0.487660182547492
0.512542620893706
0.594333571139214
0.49136518236303
0.460640522107258
0.456184744177378
0.471207268148464
0.498594019684669
0.513896070967589
0.491807888408295
0.49813487528325
0.470258911522427
0.473740280983969
0.472856831107067
0.469324151804737
0.46884373683856
0.471094148927151
0.483789314396177
0.498125163414201
0.49404730223374
0.53380548676118
0.531433634252973
0.488020640656353
0.471987827727914
0.471417461149524
0.462701434623036
0.472251242369937
0.470150419428813
0.491867248382266
0.479769740894289
0.476392727068807
0.455801673732556
0.466650302120484
0.48116479199855
0.493851772049832
0.451566523630424
0.463980357883357
0.451061726750093
0.462429466322533
0.449354533961392
0.488518186723854
0.482218344114442
0.462868938004767
0.43750477344357
0.455206867240876
0.430048573610766
0.446730818772796
0.43350710399234
0.450669336325123
0.435826208064375
0.448655490030734
0.436588130277511
0.428310335657249
0.428118559638938
0.430739552221393
0.426159037151994
0.437013770153148
0.42957470903757
0.431205963915281
0.423592062515222
0.431654116367154
0.427777287380141
0.432118025849326
0.426245673475798
0.434036491378996
0.431176984772372
0.429468632684694
0.425292554277202
0.424904817231014
0.416402613080761
0.429052312036627
0.423599753637218
0.423694120861773
0.419510503025939
0.424897218602752
0.413036062567001
0.421072869301253
0.416447379112185
0.424830186822073
0.415470695341989
0.423478530038906
0.410579713026404
0.41648350901688
0.427287004937054
0.473538739949211
0.433249291192965
0.40443168318979
0.403479818331906
0.406723320013911
0.387622241737192
0.410790300813811
0.435902909215868
0.423180179948614
0.383671277764133
0.381391897921949
0.375770190019507
0.403618799084929
0.373195585234782
0.375924227663951
0.362882587507674
0.375668338813741
0.408450025278217
0.449061306134126
0.439697634205795
0.429355081286246
0.372463349758922
0.3591661342961
0.379775259508797
0.380693065377177
0.351100281664894
0.340542971884879
0.337389930914615
0.380295409949722
0.347840021800165
0.340672549666659
0.324311252445122
0.327888615468847
0.353919838206155
0.354086814740745
0.340279801576364
0.354153258963014
0.352473279602
0.361745611823351
0.368821352974871
0.396233734551287
0.342380365342589
0.309212725774311
0.302710883458128
0.302353466153103
0.309472800886749
0.357513299378845
0.318264510272247
0.312532383785327
0.289176911742417
0.28924706066628
0.290247787413667
0.310079799649064
0.293787509722398
0.322613274686387
0.306617371673128
0.285695795493214
0.295364115248732
0.31580136693499
0.316996797582247
0.338135406706228
0.284898336348895
0.27640788721914
0.316621197019499
0.317861293982182
0.286506533380382
0.28878830860194
0.259423084559746
0.283362478225717
0.278887444139889
0.270572454153398
0.288629487129218
0.293381885059187
0.300502950162426
0.330757240740185
0.346466093279519
0.310500029492362
0.264931414732191
0.259159191566322
0.252209124995935
0.261248962372685
0.24996752778225
0.261076771619868
0.287798096651111
0.265805887731901
0.266620989921661
0.310710243737832
0.271318303644653
0.258585074800863
0.262195393869992
0.265196650438356
0.276853973537989
0.309645872761779
0.316022622633977
0.296844049998388
0.294722678267109
0.308155936417376
0.287584563664926
0.287543346106824
0.290575859634949
0.295209725384261
0.301333290571167
0.323233727869052
0.314345817943998
0.318674406102336
0.323379419045088
0.33331871655918
0.369799790901677
0.367478621821224
0.353122344355162
0.387579448989464
0.389959246133654
0.430764969388498
0.390653732012833
0.38570733806077
0.384945539479063
0.401886998479305
0.393792158690306
0.403660291273913
0.421995651669714
0.450138786495998
0.418557469750141
0.431386006002449
0.425554427032607
0.434983712707086
0.440243621166301
0.48136648471631
0.472186610030737
0.514935726706974
0.496854197730704
0.486088410185774
0.466970743157217
0.465366888910242
0.472295427657161
0.472730799640417
0.468462096873107
0.468725837689967
0.478762191303966
0.499564372879699
0.481956617077772
0.476218292440078
0.483671196707628
0.486747766946126
0.487311022024245
0.496875807015865
0.49463893153899
0.506432874358423
0.50618737955065
0.511385224242543
0.525689171803986
0.591304780056345
0.53479501701345
0.532492130004787
0.518596264534884
0.538869840957413
0.528678920045211
0.54534559174716
0.558817184495581
0.569161350895301
0.557820667267584
0.562580381039849
0.563428331794956
0.56601885475273
0.577408094337738
0.598218487151708
0.564322116040676
0.592662174474672
0.57812198229523
0.637644576682357
0.638249637769887
0.620263877342067
0.604024647233051
0.602106004387481
0.596389151663871
0.611717341161476
0.602775721527328
0.613048143193255
0.609736801106088
0.617411486796619
0.612672452845349
0.611293236792685
0.605320915314346
0.610676955969269
0.616731222053528
0.630475080131443
0.613940250663236
0.611508452045364
0.602578953593687
0.611396623788326
0.606233250519658
0.638049749209172
0.627140831152896
0.611032071071558
0.614889548121879
0.635978766267856
0.635149777924424
0.626196346604493
0.59879944294132
0.615346694291524
0.606973760707335
0.617627038142859
0.604994694136493
0.624971528902083
0.635874661728404
0.634240885591289
0.614400475664327
0.62705312977126
0.618117658504303
0.634366833790368
0.625307718034907
0.640404919925325
0.637718997055062
0.645495299308496
0.641685565020661
0.640095193809873
0.64542418374139
0.654863043480044
0.668542375493309
0.665079130484958
0.643765823945905
0.643251488766919
0.636727480355454
0.643795144118689
0.643304077911234
0.63378490786737
0.617806808878922
0.637031288608466
0.614312191798558
0.629003088351134
0.638086417679076
0.616000941036923
0.622886636539216
0.600705999123226
0.597311337047524
0.599268410605663
0.589570570344841
0.583458692368675
0.579310950653917
0.579018109019124
0.578562944391715
0.570355486397938
0.568961337448897
0.567808833265928
0.570445951299814
0.570934092226828
0.560964954175274
0.560616033313983
0.554768556715736
0.564708944159094
0.554814813875649
0.560643313366866
0.561335823986697
0.55262196145808
0.573340487790656
0.580054814275298
0.576445894095526
0.568633220649018
0.561499801996035
0.559408903566864
0.551644943484716
0.5557459635706
0.548415484531167
0.554854625906695
0.547785348005673
0.559871225928811
0.547667452746539
0.551650761332552
0.545834768270329
0.559999129397676
0.544270521798299
0.556644472951107
0.544046930255707
0.547143695317474
0.541043329827199
0.553135360996117
0.547813674627364
0.559047571681895
0.554788531899418
0.553519163941818
0.555619400933625
0.550382211508403
0.550621999646213
0.553767781937827
0.552014941682858
0.551317127082578
0.541509045515253
0.550431704340415
0.548522788446887
0.549119901518246
0.54231475247099
0.549827735264622
0.548189029661988
0.548404515624459
0.538594039079549
0.541007129415956
0.531188271779927
0.536869072154774
0.51946098116854
0.528682546129684
0.521633253357955
0.523366249884612
0.519480773512558
0.511545493172245
0.503938887005282
0.502913248438417
0.500701244417972
0.496208122959453
0.495489415568703
0.48891579011633
0.487726294237432
0.490395520742622
0.483151864318027
0.485501207539303
0.481823005477749
0.477185375525324
0.474176411379676
0.482186226153097
0.476158081305143
0.480283232049425
0.477882720542006
0.479424437047839
0.48322337119795
0.482942632909277
0.478946605011882
0.4809641721708
0.478949294594559
0.483678029498442
0.487818348700861
0.483442846220202
0.484672340007227
0.491338263719634
0.491798661865796
0.493515364158797
0.493953572753913
0.500578639452461
0.501334790473338
0.496079042048324
0.498699457498755
0.508474891483265
0.503652703790789
0.506601377500139
0.506403013430956
0.510105883610229
0.502707176636094
0.505333025550741
0.503496710158408
0.508044124770409
0.502980636796516
0.504650559943798
0.502845157167868
0.499545127295184
0.495332504616189
0.497319846636167
0.493634984312765
0.496868484775001
0.499195514504094
0.493820883844622
0.490555472718245
0.491214582409092
0.487488354064726
0.487211628418838
0.489348520518116
0.482437404639381
0.477991615308144
0.480666361193578
0.47642376384843
0.479773917619836
0.472599728293719
0.472638489757482
0.473175120407142
0.470779654235153
0.469930489050283
0.464723264419266
0.467049694456881
0.466199971838943
0.463015437056861
0.465650759199214
0.462465524773213
0.464210054019286
0.456872544710894
0.459738106037401
0.456205564256181
0.456602007023901
0.450477367813532
0.450729524431901
0.446070965205418
0.447730643859369
0.44089205094614
0.441254121506048
0.43381418811702
0.433599815055924
0.433602955137163
0.428869751380563
0.424994211911245
0.419570144957271
0.414884111493909
0.417031453794895
0.409274994491878
0.414508729266569
0.410116156702966
0.411829161604372
0.409666427888077
0.408887749067581
0.408492736116962
0.40859501565524
0.40211984787783
0.400956744161574
0.39847688818269
0.39864624749592
0.391195587436263
0.388285214561996
0.38356595722764
0.382190042645199
0.373297729489223
0.368703633409717
0.364330107180315
0.360366238068059
0.358699887762544
0.356414595076055
0.356321943618681
0.356146984566609
0.357556681665136
0.361212788745026
0.364506059191934
0.373171587746574
0.377727813625682
0.38987701372552
0.398225614370778
0.410277701543929
0.424558972892792
0.43903793522124
0.453550328489404
0.473028333889279
0.486606953066904
0.507650623476688
0.516775827444541
0.535849544531447
0.551888013211514
0.573180986076422
0.581541586731745
0.600345331952114
0.61450158633693
0.628835486581127
0.642698547738337
0.658718699217851
0.673867062515018
0.683975776951938
0.699662056163074
0.712806870281959
0.71971405773029
0.729041780114365
0.734108754483904
0.748363390885923
0.758597468284765
0.764940235362554
0.767344413471452
0.778207737258066
0.772141841852865
0.779857639546708
0.787975425005886
0.787845405444503
0.789262166778775
0.788544756158313
0.783453820540931
0.788375500323359
0.789807725044626
0.790063334587759
0.789766295274946
0.802554771420939
0.795306127535296
0.801930323771422
0.802661574903081
0.807512776125612
0.813021728622747
0.819787161846567
0.828919987707729
0.831473706231692
0.842003478467939
0.847093332881896
0.841505385523032
0.855222321603651
0.860709590164472
0.879710142606783
0.88260901408481
0.890392611652793
0.901105107654658
0.913766439179601
0.922177174903003
0.943779047827667
0.963488632003844
0.972260916146087
0.969949359301193
0.98976260493409
0.992732763856502
0.985185041432313
1.00175621786718
0.999523305310395
1.00426428052793
1.01057367949873
0.996101822558632
1.00358109770019
0.985122151398318
0.985104942906568
0.989086029175045
0.974901456605013
0.97759856059903
0.983789621217773
0.996843915749421
1.00698163347422
1.00028430445178
1.02148316931055
1.03622120636253
1.05748033339275
1.0682236449677
1.07995465950025
1.08840055381913
1.09345859803785
1.12210757779916
1.14607021496084
1.1565165266757
1.17626835375666
1.19691973651301
1.21620164138169
1.21301733872747
1.23189496755874
1.24216539394591
1.2681838355393
1.27969423281096
1.34081457961572
1.325141473691
1.35285872904087
1.37967722182479
1.39474904858183
1.39628229685343
1.45307379487612
1.48651562960752
1.49236004191701
1.52051044844834
1.5241433045156
1.50629377841517
1.58559284648699
1.58618577369265
1.55196917552918
1.61311810862709
1.66938104821612
1.70097208082175
1.64139172560398
1.64647742510049
1.68888691976893
1.68913477617844
1.64897569974187
1.66718540349425
1.61480181850262
1.68567317788395
1.72624960583619
1.67904912378953
1.72465189216558
1.72240714390351
1.6363002928691
1.67122229178086
1.72100088149044
1.70655230126263
1.6417911119331
1.69007232556809
1.76411104832355
1.73845395295063
1.70721010778215
1.7850780170653
1.82452374678692
1.82744009321292
1.74785045094306
1.73897380820133
1.81311005300174
1.86720219565805
1.78062425446675
1.92740878390302
1.93063079464584
1.8902176222194
1.81639589833073
1.91620129170782
2.00889311132847
2.0268843839206
1.99611344283797
1.99467413960652
2.10115840050009
2.05641627458561
1.92290911751504
2.10024823624798
2.09181563914881
2.12458567471597
1.95525312828311
2.00947135113277
2.18400245740247
2.16921740163924
2.03530385640458
2.12686306114283
2.17504923022123
2.10464203700302
2.43478496081053
2.25815915554245
1.98166538916928
2.03485212326059
2.02001483685144
2.23072499329567
2.08503575512499
2.07275401365095
2.32179691020601
2.45277501678061
1.83541467646015
1.87337905288897
1.75511106071511
1.9068922589724
1.73196879343935
1.712780852351
1.70543393962087
1.70401665989652
1.60367117329532
1.56918267131234
1.56223301306231
1.63015810082085
1.529150811898
1.60469999755849
1.54253020746269
1.50518962221172
1.47970339515895
1.53866997777547
1.48786864154756
1.50402606485291
1.42938511031715
1.4586655266414
1.46090019877339
1.43061425377694
1.33853136083757
1.35143260599014
1.31578574650867
1.30803046392255
1.32400548340939
1.27745720593596
1.23454349251663
1.21445189177789
1.16561576889085
1.12632427569435
1.07370222833356
1.05302597482027
0.99148927949192
0.968394407570507
0.912176627454174
0.865539411925075
0.826510343930912
0.796810207591191
0.76809400917797
0.728173735049649
0.701198191072186
0.681426975012872
0.651311246954005
0.631786873123541
0.610265068379337
0.599459729973257
0.57464107712439
0.56455614770139
0.560114837992194
0.553555701850905
0.543211446445193
0.527753665946328
0.525735814944766
0.521289663824626
0.513096420024911
0.508666779743687
0.505087942947854
0.512965125867989
0.510547699733359
0.507559812955543
0.508661939947169
0.515876248194114
0.502700214593316
0.515648125895774
0.516548071406879
0.514457840435214
0.512132571325478
0.509952144970971
0.504354009982606
0.503806219671631
0.501510268890478
0.497642466506533
0.492828807462241
0.494032741761906
0.481705728340001
0.479498275197638
0.474920750806128
0.471667360572957
0.465155572168933
0.47223229727196
0.472816322649994
0.476953927144835
0.475049911259424
0.47254011837102
0.474776848432594
0.484267183681945
0.482808023601574
0.482047900527042
0.488936977735602
0.49742319506162
0.487080236890992
0.499237577139812
0.501204532790327
0.498638015882768
0.504125500576704
0.514447943251822
0.512000308795726
0.516538036426209
0.506422383681471
0.512248035516128
0.515212961774769
0.521485971436477
0.512950942957629
0.513852803916833
0.524399563193968
0.527655089813355
0.530906516772986
0.529177386996172
0.535868897250733
0.545318830784313
0.540081146800841
0.558691231955941
0.569322394561224
0.586440650376867
0.582101697676548
0.614642946324271
0.634648095074683
0.64788141204571
0.658438364533347
0.673240919612633
0.668235749591938
0.686895776349839
0.688515428663562
0.694759484762475
0.677674701892864
0.678450532865213
0.6662143913019
0.652160728848593
0.645368001245151
0.65132897135148
0.625373781677264
0.619425967994429
0.609121011690096
0.612533179886047
0.606252665139981
0.617500640802575
0.61325042321706
0.617323692392532
0.609911701926507
0.630224833648713
0.610363179736618
0.619077601278983
0.624002100482203
0.607286137590711
0.601997400286668
0.606285519128713
0.595801658472527
0.584453203941467
0.579740354067516
0.573313749411034
0.552052041452435
0.566617077799852
0.554748495786467
0.544515035425689
0.553270817805218
0.552987050927203
0.541570029864187
0.548880746093802
0.527423094530678
0.529723540405063
0.535149835449249
0.53995986856151
0.52970945844828
0.526888227496628
0.534023729499954
0.52420426119445
0.510338507134194
0.509647980553818
0.515117502327246
0.508727682938418
0.49505061273577
0.503936537388756
0.497456340685962
0.513975082399747
0.49796244121537
0.496698778200079
0.504893114097442
0.491647024115656
0.484417789715574
0.486578260080196
0.474413200282544
0.466889286300111
0.474711278925059
0.476128834464071
0.473248198009935
0.475598995067409
0.461192541823074
0.458987016668024
0.462332310304966
0.465857334161858
0.450619670978329
0.455405917270672
0.458999642290938
0.466329811367844
0.459758114903243
0.468342917553251
0.458094689367398
0.46243665322729
0.471641735159577
0.469532815364522
0.467590371199388
0.474332711570778
0.469011698366792
0.486044362904505
0.469478623959101
0.485917500010901
0.499307076331338
0.499531283890793
0.479988272295526
0.480043248445706
0.493897712546036
0.508474228562466
0.487202848657183
0.499958525016341
0.504771473962551
0.517535473002587
0.523450452580766
0.558627980963784
0.542881317910397
0.529890567185795
0.533925380717655
0.547935149325738
0.554297118606496
0.576517589922898
0.600792964694537
0.622950227996357
0.601428908362885
0.653346263432214
0.666327888249224
0.705776452305393
0.677361288456721
0.695893567534659
0.723499160699597
0.761895417752051
0.773885642295417
0.762480092152489
0.750655475439177
0.811745060073313
0.812482473161602
0.807365472759851
0.796808848039421
0.813728608389997
0.779998293097594
0.847661346241699
0.769530968005641
0.782302353162881
0.815884233012945
0.810836727344937
0.773904658353653
0.808589297687439
0.809187885981071
0.799781681590006
0.82737671755415
0.778744871940953
0.734889053775388
0.776834826073552
0.766750219247051
0.773315749559556
0.734455972121761
0.76459428545186
0.755122002058967
0.748994043153241
0.695949630159776
0.736965065609694
0.717214689733962
0.738376527577549
0.752967100893908
0.74275455625985
0.704226213562989
0.75673492061131
0.703012063200077
0.670490131416716
0.673594348095052
0.710076153684479
0.709827524874856
0.689942081953281
0.677043784499081
0.668286074097461
0.640618441318587
0.707667528685669
0.723548573789061
0.707499117925634
0.710935191106771
0.685951475170329
0.740182489310648
0.746359307496003
0.728152820514306
0.767508178235028
0.714637962485979
0.757050918611575
0.7183787528961
0.758896348951382
0.758207572846589
0.757840049480929
0.769963812071607
0.747957562848946
0.708379079394054
0.8035803073018
0.708005895747987
0.727118954450197
0.738093268443071
0.74628569366577
0.74611362010456
0.830255101315933
0.777552193105677
0.75418602779396
0.831551353985196
0.926390832790363
0.77538369919957
0.754442588420219
0.816356803655322
0.94047113819646
0.914677415119684
0.838658078834626
0.81866859246552
0.899851997359261
0.907874063522893
0.969630273762167
0.871283709898303
0.866711540504274
1.00861141473622
1.02147396246884
0.955998808042043
1.01224918133188
0.956482132350665
1.04109365371247
0.92347587225346
0.983058658500318
1.05803907232966
0.977751230066102
0.905937542027113
0.991581088461947
1.09503055775822
0.99052449378479
0.878407611250092
0.971756810535056
1.15686019991788
1.17272081610937
0.869631982278028
1.0622374675359
1.10671200530127
1.03299201697505
1.05309671100805
0.95623113510892
0.882545224605054
1.13466952050076
0.960831616789879
1.00736376253209
1.0078227539958
0.855958574242769
0.942888599849266
0.921080960504806
1.02976739064635
1.31502144778289
0.876135223658735
0.882095389501575
0.994219731289287
1.03272826503697
1.08437436428479
1.35054448014271
1.04750985268492
1.1651574552148
1.37948880115687
1.5351560730803
1.01085587452973
0.803291425189946
0.767702334166503
0.768621040010064
0.972274045623419
1.33496421735634
1.00936931543852
5
1.23835904798224
5
1.20177609119926
0.792373663024873
1.20232688426928
5
1.20133411447604
0.87298270746118
1.03353429181599
1.15841028025049
5
