3596
4000.36533379555
650.420452594757
1
2
2
0.0662193236683455
0.0803373398963431
0.0630094359095928
0.0789850405088423
0.0689199443932419
0.0758471788381303
0.0581892408354604
0.0783512479337622
0.068998372304782
0.0828910843149377
0.0624861221162144
0.0695171257742025
0.064275846985545
0.0749404041920061
0.0640892478570148
0.0731473750938738
0.0572828551979929
0.0750776259562125
0.0589051653926765
0.0828600424475162
0.0574831249837744
0.0808178879169442
0.0621227814000695
0.079164147444645
0.0647524496010718
0.0801126971491798
0.0635474122831013
0.0679332943871338
0.0643304605631054
0.0792888363961628
0.0609848619833721
0.084173679310084
0.0629290132907363
0.0825244367261592
0.0630621136255841
0.0811609711499064
0.0665037122446559
0.080284838571955
0.0597438469945007
0.0861165701498513
0.0650548740293085
0.0794688859894118
0.0672772966180936
0.0781111232706918
0.0577738418241319
0.07899776310784
0.0641098676369426
0.0709122210535104
0.0604293112321575
0.0742330892307221
0.0667465513749383
0.0760462579179783
0.0790317599726843
0.0909077737461439
0.0609976619612805
0.0900182390246498
0.069291330938835
0.0807915225349532
0.0641340364386902
0.0804591115967593
0.0890876877614726
0.0901597452498473
0.0660971202640272
0.0845073863985926
0.0621326779043198
0.07939197361663
0.0615535726176884
0.0787712256654308
0.05970972249418
0.0786122468986687
0.0642854451066478
0.0936989218613482
0.0701873643925839
0.0859699451483778
0.063598071282652
0.0764544676620287
0.0524898175974338
0.0709134937841939
0.0610528996832708
0.100666460601055
0.076628968781164
0.0777241094004073
0.0587288381188168
0.0718611203919099
0.0697833968090084
0.0965858315935827
0.0520439652189393
0.10232650228854
0.0838538462303273
0.087118022615607
0.0593073472659569
0.0799229945598201
0.0523152216380403
0.0779635549490674
0.0540154510056871
0.0792172497790599
0.0563242246443316
0.0761126778515136
0.0527420982244231
0.0960937305015309
0.0710145982293417
0.105453520290312
0.0985897115628812
0.0706172661182155
0.126877809333818
0.0884189248735199
0.0655481852899235
0.126456722759499
0.0659798225113187
0.0843871858518296
0.0554805786183876
0.0811178386901319
0.0564453598949163
0.0882707596297598
0.0402827623086796
0.11362649510676
0.0843198326685781
0.0880759793303373
0.0592105888851055
0.0769801806052702
0.0491638590324084
0.127026611324483
0.0973453553875097
0.0869321967605472
0.0708144843200673
0.074137563100077
0.0511909385836618
0.129474687922878
0.0876111470143013
0.0767408593845781
0.0674093921796504
0.0747108292966525
0.0482551227181031
0.0775735925879271
0.0944072797861606
0.0832499040332618
0.0708838887109605
0.0732792831122586
0.0846893526508541
0.143919088170319
0.0748021896121133
0.0818728901738075
0.0465962459424485
0.0907990249754561
0.0982311206796996
0.0866233792146164
0.0612565551870268
0.10094456892498
0.0714707470731725
0.07511801057563
0.0538575603166234
0.0793451392418596
0.0825561712340683
0.08664064214115
0.0202346756257053
0.170131755202137
0.110804496713615
0.108741855073573
0.116865650846648
0.0705433968039062
0.0828323596609513
0.0737975659950853
0.0611441535626148
0.0646565194363523
0.0706043367965174
0.0632716627300967
0.0797009448961472
0.0971900501908834
0.0615540717988413
0.0942850245230482
0.0959603299768991
0.0817905607224597
0.0545354984069786
0.159862110353048
0.0727103025655294
0.0811657766440125
0.0835508828847293
0.0898953997840969
0.0473509737225996
0.0915361717941685
0.0873479474928791
0.0741641001625497
0.0688677092440012
0.0754424214900512
0.0769323500099929
0.0939346762194816
0.0698203678815749
0.0789916363143722
0.0649978580798141
0.0591123035567841
0.0896672002511598
0.129149799660643
0.0892815013031457
0.069306304780616
0.0676496003155122
0.0372503971948304
0.112613860757362
0.0977473436655838
0.0586096583536129
0.0748858953045638
0.0562197119904458
0.072576415938833
0.0494113427560684
0.0707843687805195
0.0567097655550578
0.0550490227305735
0.108950423472015
0.0951439003457372
0.0671230449392498
0.0680234116192449
0.0744884155504606
0.0712384602203327
0.129787356704193
0.0968951457019532
0.0687273467222445
0.072392258602604
0.061936911935634
0.0847695254518558
0.0761090686722551
0.0765617571801123
0.0576160770791645
0.0684898411393739
0.0583588388974967
0.0679257874253464
0.0586244130602865
0.0740435640114464
0.0606368798903042
0.0690548849846535
0.0498710411919605
0.0786741473500425
0.0768387521638195
0.0715746096091268
0.0598070278933708
0.0739886828744478
0.0460508230972079
0.0933021762648282
0.0790660683585295
0.072791278255079
0.0635470969441913
0.0624519278696625
0.0574084965340133
0.0705702237375577
0.0605578623042767
0.067518451341121
0.0558911921714957
0.0641587720396729
0.104624633834649
0.0685772455240104
0.0688557407939797
0.0521501852040402
0.0998343418305129
0.0794881865273122
0.0631640213494964
0.0706968928944701
0.0618724325781913
0.0570225141477735
0.0714535572158588
0.103959280091484
0.0730749567338704
0.0621195224535607
0.0852726340410461
0.0824908541150453
0.0561938924412691
0.0717994019445435
0.0476521552582197
0.165095732553572
0.079446632446153
0.0847335966217732
0.14357862189748
0.0818465069632833
0.0773183073716955
0.0795363079866785
0.0254082141408368
0.231058143064648
0.118901589078523
0.0773972912501137
0.0648144943964179
0.104361726744731
0.0583132568946034
0.0912066823955334
0.0600448710764735
0.0946570556149693
0.100533154786477
0.11151389227101
0.125368738413731
0.0523681497410633
0.102064051524513
0.0960331163003216
0.0687923783070945
0.0770376034749398
0.0699405863981852
0.0612037102765974
0.0877001881390311
0.0868778437054329
0.0837712557702
0.0853558005319844
0.0648286650268222
0.102010176214919
0.0705973501163703
0.0718690801044757
0.0609760891286336
0.0926493355436195
0.0596166066161112
0.076150972164809
0.0631701682223538
0.0926271489322399
0.0577581386283715
0.0926579390049694
0.129623918284038
0.090243385773153
0.0709079194395148
0.110740291517744
0.0639385250581404
0.0775509992043898
0.0576459700050237
0.0774426654983852
0.0613631347206308
0.0690689129396679
0.0503265129771574
0.113766915377382
0.0678811258898497
0.0771110646221436
0.0614189928690605
0.0699098895819199
0.0618408497737191
0.0684517358540177
0.0613078142877092
0.0703541977649591
0.0652972064309137
0.0679935115591817
0.0850322203619585
0.11735851495123
0.0387897876716905
0.124991273853145
0.101934439513355
0.0712085183330857
0.0626336160802404
0.0728752345917942
0.0732210517343761
0.062139792776883
0.0618087082002058
0.07076950443228
0.0746429032288764
0.0981072723304271
0.0785885489142248
0.0795097976050762
0.0685592485714526
0.143554339495555
0.132392912026349
0.0908517953000398
0.0754957009525722
0.053537363422814
0.111107216107762
0.101985320927435
0.0903420412166889
0.116505025135932
0.0514980864384631
0.0885140345902485
0.0569545691396904
0.0848467950836293
0.0614170393457082
0.0857740781231883
0.0577092571872852
0.0835828229689536
0.0610921222695233
0.085984341999149
0.0608151946158183
0.0815693934294206
0.103067173252888
0.0900394039087176
0.0631389430672331
0.0875584332937222
0.0523750514127634
0.128194722748468
0.0894541263553446
0.147763021826487
0.102409212841175
0.117117486148719
0.130419882575078
0.0751611076147091
0.0802909677979899
0.0813535541054528
0.0786932046879869
0.0911145917651067
0.0807697125322216
0.0836824339668613
0.0758117151681053
0.0881685692768159
0.0850443827164182
0.078024941162972
0.079672987860329
0.091738879320667
0.109934462674701
0.0883708726766772
0.0836880961068177
0.0845719075853482
0.0996432969748564
0.14719599360607
0.135487052867931
0.109784127651434
0.0957018396448812
0.10179170384917
0.078185361340938
0.103543486136482
0.0819448171116693
0.113181088550445
0.0789813954405988
0.143647119911959
0.115500416133303
0.134684038384211
0.110749000215468
0.0913903013593935
0.11362006254658
0.104709478544126
0.112487736698356
0.137020971599221
0.102842890220245
0.0992732771753072
0.125363835757974
0.130309601904522
0.114081936142622
0.153677350032004
0.103806227429029
0.12347815393219
0.0887040968690082
0.126286984781827
0.0958291129981119
0.127350602312274
0.103319079633572
0.124210413131327
0.111219710744154
0.121480107706644
0.107362434787336
0.152863430833517
0.119074519357856
0.132816999529129
0.130677780803509
0.122193093004014
0.119271491569999
0.120208831406347
0.153105546137534
0.158254237689991
0.147306077058189
0.18147693467455
0.11985969480358
0.14459406043047
0.128531308519992
0.144485687689878
0.118372921124379
0.148148018498624
0.134633699926037
0.148764309422527
0.128284616690127
0.150759364593987
0.134706666172678
0.152144926200667
0.139627467787205
0.149429297849794
0.137358367346539
0.15851176196462
0.150734933624078
0.159672141156474
0.175533656554678
0.214229628319785
0.159824675370932
0.216343639193835
0.167897690501521
0.190820577002656
0.153646429705054
0.183137877924945
0.154990073869685
0.196741260404708
0.173051869723991
0.197385947940239
0.169639615974453
0.187799007040866
0.170796167429924
0.191591340725746
0.171740425443615
0.194170391751849
0.179339205446461
0.204428565872461
0.174411213781516
0.196862900617031
0.188634400994936
0.229216600473725
0.173243433712638
0.223041472184339
0.197140351578486
0.210450353944816
0.217613228093957
0.212052869929199
0.203563894345818
0.229242458229058
0.207073689236559
0.231932875479722
0.216219565525127
0.236319600895588
0.225596947290843
0.250815593671073
0.216245284132882
0.240546730758645
0.237325203792935
0.245015176570247
0.256138282617051
0.252851346817349
0.222739569827499
0.27013820811289
0.24347857113964
0.26536664030022
0.244938597870878
0.277772284556159
0.238823381452618
0.274882632639838
0.241569096046099
0.283256979751622
0.267607090491072
0.271804847234963
0.247592298837382
0.286836246279492
0.259187653222381
0.282312293765592
0.268877985747428
0.300231240966589
0.27092903186425
0.307751823368485
0.28137493087224
0.301789561443113
0.275237663339403
0.297596317088056
0.287973868015046
0.30894517621846
0.310954849710913
0.319887921054668
0.293813089350352
0.317233311742493
0.294709471609026
0.319342307544667
0.296884769127448
0.321549110373905
0.310673856927881
0.343250192469001
0.306730373697467
0.33839117697738
0.308733702867041
0.328263144387516
0.32024479591399
0.34837425655066
0.321741162850022
0.348364347538056
0.343910522470915
0.368141420156779
0.327438446645526
0.358758631171669
0.336379087655453
0.354697515715358
0.341546823235014
0.360795356983825
0.350327438586798
0.362215001362522
0.345777054420755
0.369687979564944
0.353708255093033
0.387545263553928
0.354652694978744
0.388613745099705
0.358413861013674
0.373694261312534
0.357494766244668
0.389386208685491
0.363414254581884
0.385723784579043
0.389483542641859
0.401235571950701
0.377477899219576
0.40408115382103
0.387036970172428
0.413242278721766
0.380046735496726
0.421885906548194
0.395136163211457
0.406089394559821
0.382205980931843
0.418267876915958
0.400888832733605
0.428960092467203
0.388685187490637
0.433057107753245
0.409886284727375
0.432268157510607
0.418419469990541
0.438905623944982
0.419865702158953
0.452225724046797
0.409442456556314
0.454766930588104
0.4368944750852
0.459638027176838
0.405919558648112
0.424254662730235
0.435322404807452
0.450496029212349
0.428069724569169
0.46733093444666
0.437039016383083
0.452169736866966
0.450708600892274
0.466042145754997
0.440598243949764
0.477362917627207
0.441171344045833
0.463879036113113
0.441768714688926
0.489191131492989
0.449018712648912
0.478218974201151
0.468057217193262
0.468470650113804
0.453812595159224
0.484805733684851
0.469635831637466
0.484457347935024
0.49445258185892
0.48437441812398
0.471903105693911
0.50803746948395
0.457753822901659
0.476119653362638
0.450460578479376
0.479091886475751
0.467468510105848
0.49050391873947
0.456353405016229
0.49437227733259
0.479837151333658
0.480192084405898
0.474759381313117
0.486613305083278
0.471858104950025
0.492219861616068
0.459606480274822
0.493938713423407
0.494570114580231
0.52472808653172
0.51199865234523
0.515825053538631
0.504834993199068
0.518292130175591
0.500225692733306
0.520776919912704
0.485712739616041
0.509428741892668
0.510583702726712
0.514623586983447
0.495643173581634
0.530846853450934
0.492102144398668
0.509605857004409
0.498796803570449
0.519542068655758
0.511375276664918
0.516642198355547
0.491006498599473
0.507838802982449
0.494683653287113
0.522846831897875
0.508272204242166
0.544135356982183
0.500190363590231
0.519955637505498
0.504928351725718
0.508476992780826
0.512934029218985
0.526174236650939
0.503137064149269
0.527444545906947
0.520543108846964
0.509356397338543
0.499559490974099
0.539568992803376
0.525984827956173
0.538267862582471
0.520202222389006
0.535348192768745
0.509921396866683
0.535275473909766
0.51825413954048
0.521059377418997
0.509680365385048
0.55498378760055
0.526758851040906
0.539418831693862
0.521253472347196
0.527226087042582
0.507891787160756
0.531865951167112
0.517696719786022
0.538716196313557
0.517922950133206
0.536599060611914
0.513114258318647
0.521628525264326
0.517149263416947
0.515746428144533
0.501918548271538
0.552978633429284
0.519891590720394
0.533357157747698
0.522772023471484
0.531374676952345
0.517937816077107
0.540580325973255
0.539482562388559
0.550507666122222
0.510592796927094
0.532639716106074
0.504019854144829
0.512273038255223
0.50989975635987
0.550893504345821
0.520912029399891
0.521593312923255
0.515598281342864
0.533984966781881
0.506262280765787
0.521353155552357
0.511380322447438
0.526637638861953
0.524828275664293
0.527096827032378
0.513699481987764
0.531456165163518
0.500877634622852
0.523820558714464
0.500038966301372
0.508781229889972
0.509280798769429
0.530383466062163
0.512851663896388
0.522993927401482
0.510265098902063
0.529698560358941
0.514868810642575
0.514776244358587
0.495614704050836
0.523115056019905
0.508305413569635
0.511649777377862
0.498000425728074
0.505786934493393
0.498574517242282
0.519435710496689
0.51078691002482
0.502793254881516
0.50143630571645
0.512718985508085
0.501821813852879
0.516308076697308
0.499706606322139
0.517536997700097
0.499499625837346
0.508999997890252
0.501267459606157
0.510893792905547
0.491382171718847
0.493831923842145
0.490848668412422
0.506161072493044
0.483229676712385
0.489550742240072
0.486137861411199
0.505090289833683
0.488184200991888
0.494271458811081
0.485768960001784
0.485711306310186
0.473946212276443
0.485239062294472
0.481796695822345
0.505891547333955
0.480670327171432
0.469767996108082
0.474443600141251
0.492032063228496
0.477546171046656
0.484022504316141
0.479273149008039
0.475210043517117
0.468580909599546
0.478200335858332
0.475784162079115
0.476965158910959
0.466927147276879
0.480342055763814
0.455377245394069
0.47708053780074
0.459806682653516
0.452567972646603
0.452815834906336
0.459402795690746
0.451869035613936
0.462381511689636
0.449094471212507
0.466655164867043
0.444809807711262
0.455937953630213
0.449559771900386
0.448292772989846
0.442208907689278
0.451307050427084
0.440261405734223
0.442453934075016
0.435133209431122
0.453889911125373
0.434703008607421
0.43850258288641
0.426171401034531
0.434193994910992
0.429951850768762
0.437107067439249
0.419938675731124
0.42018764582342
0.427226762802427
0.423882271104497
0.42512440841801
0.435415031336639
0.412846357148698
0.429990137612319
0.426057479276029
0.427286334492522
0.422413298491737
0.412546664111178
0.408916807864982
0.42069270652307
0.40228451864827
0.412431394466259
0.409528709411523
0.399949124210193
0.397633086710081
0.418272444085219
0.400400167543112
0.405306019004563
0.395461164617837
0.396321017663039
0.403568702788464
0.405475154354519
0.38013913734961
0.396986792674407
0.385161836973076
0.390695529366071
0.387498678136673
0.390648603911721
0.380415388424289
0.385955498984078
0.377310476567071
0.377822969625764
0.378840130495831
0.383805240789019
0.372805528770703
0.375446286248959
0.366578469476603
0.37552712476255
0.370018027690097
0.36609574419071
0.361074283640241
0.364239211161127
0.361661468191965
0.353700351500121
0.348969554531466
0.361866709606712
0.351615785320327
0.368641316989113
0.35395978819845
0.355128531689463
0.352408174128469
0.352982049038526
0.348383876499929
0.349360841598587
0.338482267049651
0.344050228176747
0.336084978226176
0.343204754334541
0.336757816651235
0.333409677616158
0.335362100095938
0.339313008032771
0.331293122990078
0.326827872889373
0.323001730292041
0.329841819737309
0.324479351715638
0.323731465330699
0.320051499577881
0.318219294742061
0.316412642021643
0.318566952524237
0.31508643385895
0.317612746160656
0.314371188020266
0.316529735886119
0.313264288768562
0.314608193544326
0.312476426408333
0.311464935815163
0.305285582673413
0.305303254581197
0.292227746200605
0.296870652319856
0.293591541253872
0.295557466033501
0.29292967309807
0.301342919590424
0.288453949815548
0.291183442209138
0.287472740533517
0.290205127295589
0.285284232361426
0.285231988872262
0.271759411864287
0.279424671239605
0.280844546607081
0.276536525938738
0.271439269188322
0.277140737080938
0.274989625461917
0.27631406803458
0.266806538542648
0.273595649954195
0.267942720926963
0.273167056247054
0.270691523075733
0.269623054280729
0.267025477255966
0.263327985399712
0.253509873847214
0.26011349643977
0.253625073985022
0.261385985820632
0.253898928036142
0.251012063123314
0.248095537080799
0.255416962843638
0.249342152870472
0.254379443164728
0.243090213270717
0.248304801472017
0.245812523806626
0.244649447057856
0.240906422142972
0.238431982453651
0.236402130244584
0.239213606196243
0.23766714064678
0.239060474556388
0.233331639692037
0.23580540014578
0.232421505805871
0.229797978540803
0.231456724914136
0.235132355231862
0.223703221756496
0.225152582488326
0.224054832614352
0.221005504361446
0.225742637938968
0.223336931852138
0.21469807388471
0.225190536075811
0.228049026350427
0.224022765081974
0.218667016467573
0.214423441095834
0.217552869261749
0.216780467149387
0.208779755224995
0.213426108130416
0.208669726717346
0.212456733855881
0.208412438627881
0.214694091599654
0.207670271970034
0.207958954619742
0.199225302847703
0.201443530271449
0.199428106647937
0.202750768053016
0.201874507570754
0.204224635300025
0.194065290899558
0.20006683095423
0.194599768964026
0.197102911986329
0.193827137843842
0.193259390580626
0.193470835913976
0.19641598044064
0.190302663696498
0.19541467718647
0.191362928826146
0.189353919937723
0.186935759969684
0.193340752277812
0.189450130185042
0.190241608735163
0.185140493041125
0.184169162070512
0.183500972040172
0.17986714008582
0.178667587737913
0.179714078647492
0.183031646376604
0.184866587909714
0.176874033235918
0.180029464212689
0.173978220914496
0.177057980232686
0.175673531465949
0.176596835328719
0.166217253420295
0.173909772602292
0.174948155777415
0.168303638657035
0.169482619298111
0.171290840697301
0.168382735096051
0.169506945362102
0.165167279130902
0.166361248471067
0.156544190841065
0.164749852893966
0.16164130372743
0.168172339696212
0.16367588075905
0.165344816518362
0.159297998781056
0.161662985836368
0.15624559314223
0.157593160329927
0.161166766249113
0.163664700907549
0.160314591817293
0.16167178744871
0.157561165130263
0.161218298012666
0.156144900774651
0.158038313284209
0.154252028395422
0.156213798188335
0.150954702993632
0.151828269547351
0.147885833065784
0.148370465792251
0.15058018525359
0.150682723396274
0.152150075377652
0.152841072344611
0.15076237805146
0.151737581803079
0.142588761583972
0.145742174367808
0.154290340760111
0.150460955279271
0.142772517613862
0.149033017403886
0.141311544376747
0.145494166081533
0.148412064773919
0.142073077156619
0.140310831313413
0.147428570353152
0.145075237629761
0.145507271950596
0.145565046764862
0.147972813637362
0.145020192567855
0.141709638417993
0.142805635241668
0.148287739971668
0.141054825967439
0.147856010372988
0.143070520479923
0.147675253424545
0.145149193991585
0.149829007417014
0.151135982847977
0.152373801122975
0.145892996160607
0.151604624475002
0.146955362377316
0.152480519146322
0.145779028704842
0.148354761618152
0.155179919028679
0.159613618213468
0.15105398499355
0.154134945013736
0.156749309884381
0.159057736475459
0.152417171463112
0.15579097577685
0.159114330545935
0.161431615829053
0.16052864967804
0.161259715782063
0.157373450103312
0.162072557491617
0.164458172806223
0.168891126640558
0.166796753445757
0.162560282535863
0.16652106426361
0.167990149448023
0.164543447995448
0.167306973560114
0.17228191812901
0.170575055642655
0.17321287235481
0.172427060445954
0.171972044803924
0.176181815855388
0.176144241362573
0.179941706989641
0.183420773919276
0.186379113702242
0.18223147431407
0.178417168610514
0.183464929075721
0.186027076958709
0.179570855397024
0.182360579117759
0.186126700849229
0.192212490160859
0.190082545303784
0.190844661766201
0.19440546345962
0.194951366525026
0.197758240899909
0.19583449544142
0.20219603557594
0.19643820517708
0.203499329993691
0.20092450084376
0.199542557956649
0.207195353954199
0.203921096482154
0.210428524999231
0.207143671999607
0.204839885971716
0.207420509254882
0.208927501079329
0.204690769941856
0.209662417895623
0.209094989829658
0.214094867690684
0.207879738742969
0.214024154605434
0.199793755305194
0.202351250747018
0.205280915454828
0.206563470177855
0.208184420682959
0.202090000830909
0.209196538525179
0.206636877264567
0.203117311261631
0.204901290843165
0.197978562786031
0.200980381627736
0.203276032132235
0.20491935716191
0.204895229272533
0.201881617841049
0.201032107472144
0.202832629142743
0.204038008345819
0.205821636670208
0.199758592622716
0.209032888113657
0.202883262224096
0.199878032318205
0.196140196551924
0.205003539694221
0.201197286998688
0.199617972111083
0.200027580461981
0.206680986619528
0.201969034578313
0.201122697742183
0.20220756026784
0.198145669415191
0.197775313055933
0.197996120589631
0.201711943755625
0.198594169561636
0.195242318868374
0.196105566494755
0.193370160248668
0.197653320141998
0.203621210777454
0.196850345567727
0.197497470042227
0.200734338819654
0.195834584033995
0.192825925629679
0.194370361395741
0.201537648785199
0.198130651350518
0.193605416280528
0.188151144501644
0.188024591995565
0.188414959478637
0.189070114536244
0.183063236596825
0.182140481380281
0.182352429448885
0.185612821853723
0.181335133294087
0.182078487753273
0.183373511492491
0.178572185355825
0.17347135550946
0.176085964198873
0.172758134567273
0.170786819325246
0.171852734133334
0.16739150148517
0.162840848058959
0.16726722191064
0.168598754973346
0.166570824813312
0.156282709807661
0.159556196283179
0.151903921526298
0.156388170168794
0.154537858384823
0.151215971506781
0.150323548943504
0.154950954528742
0.152302428324373
0.151383171194335
0.147989603966219
0.147600211994441
0.1475364545549
0.146852466993032
0.144917356873778
0.144017571710028
0.141609702564679
0.140710305332542
0.141361164584296
0.145487038700557
0.138584394036746
0.137147561286488
0.141050102839782
0.138279631932654
0.137207630256945
0.13650354305622
0.135105367784853
0.135326653516149
0.132174879660228
0.128642766238616
0.135606054446957
0.134296822090361
0.127858205192645
0.126213704320207
0.127505984809579
0.130399727849422
0.126633084954229
0.130401511322578
0.127389801227261
0.125787498724129
0.129342196242623
0.125637380695976
0.12389366899151
0.122598767525283
0.119513346953156
0.126994182349542
0.118785755161612
0.118794799597404
0.119893897309077
0.117773741930037
0.118701183868583
0.121416193597341
0.118773169039922
0.12051483844401
0.119742562742723
0.114962797489689
0.112238414906481
0.117064669377671
0.114961258536746
0.113381116496169
0.111667876671362
0.112554618887131
0.111172737207005
0.1134404408149
0.1105485162225
0.113579784162165
0.109792641588956
0.112316885271515
0.111887867527514
0.112376184136168
0.105740608268343
0.109569723884145
0.109208573495603
0.107455012473031
0.112254598418098
0.10833541491539
0.107473200262978
0.108989650008662
0.106650764647162
0.101880618640216
0.111662353704239
0.110280453628144
0.106982490786568
0.108028529550278
0.108616755118214
0.107971601740645
0.101799956333231
0.103772369737816
0.105600532195568
0.104651959028541
0.102464135052401
0.105020412702224
0.104610221104474
0.103264784565202
0.104362605680268
0.104373301501638
0.101101639619247
0.100641550235696
0.102903979085226
0.101832561300339
0.100437369256453
0.102320375196317
0.100679788672315
0.100094712661309
0.0998432676012579
0.102249589706653
0.0985248887216453
0.0990318886270854
0.0968384732275821
0.101414721136127
0.094405476319601
0.100189454952785
0.0956102970718871
0.0994837485303788
0.0976746939225067
0.0919997927074242
0.0970666542934077
0.0957650030313726
0.0984234815365085
0.0978894508985228
0.0981312588937014
0.0979548207688099
0.0924830858303704
0.0975161598541242
0.0975144750635464
0.0949047513594728
0.0952681125307523
0.0906573327356961
0.0947651759267172
0.0922308666778382
0.0937688570278949
0.0963145441479868
0.09723093032103
0.0956897063101319
0.09331972686141
0.0935529441846046
0.0942334151050813
0.0953450632641215
0.0933113582798688
0.0976745278178251
0.0969522067266907
0.0921009301071549
0.0918696612079658
0.092817492748924
0.0921775154291403
0.0919251155704077
0.091805441215045
0.0902683852451134
0.0927826879513346
0.0948539106145869
0.0948400081851169
0.0969972929621435
0.0910316061288107
0.0948559930165215
0.0931624062349124
0.0955322261572048
0.0904254731568831
0.0903518352696736
0.0923164770103243
0.0873904604248247
0.0876142434601213
0.0909388021950523
0.0888419472494652
0.0897631367399514
0.0887688786863212
0.0870871337696193
0.0898218967556281
0.0917076999186409
0.0882504369454944
0.086547358840991
0.0870532815404926
0.0859581937303128
0.0854590185533519
0.0874184848961972
0.0862255711365619
0.0855700075681174
0.085607009589474
0.0838669195165822
0.0876391119613561
0.0854813961111923
0.0842552384290821
0.0871465977981634
0.086364616008159
0.086468991853882
0.0841761465045827
0.0843430577620973
0.0830372750251679
0.0822778132264315
0.0806606922069599
0.0843253291004977
0.083546367987659
0.0832116406204115
0.0801511866098161
0.0839203926368122
0.0813278915172527
0.0821955080299385
0.079358989266644
0.0818248349177021
0.0808387468675403
0.0808012820842598
0.0784974952702757
0.0842822024494191
0.0786427969623652
0.0811211912909197
0.0760145061855242
0.0789532901125552
0.0796911432995521
0.0783648143154777
0.0764951723832968
0.0807996242612681
0.0800495213461778
0.0776168170595454
0.0763787029276626
0.0786607741445663
0.0766811050373989
0.0787028569358113
0.0763221723667971
0.0765499305559499
0.0767259020968874
0.0805304658325622
0.0761482735690729
0.0744290067224974
0.074648893306795
0.0740341537072093
0.0744339097815297
0.0736359871566354
0.0726804282777229
0.0749187529064132
0.0707574216729587
0.071327693425735
0.0716331885507265
0.0695122794131002
0.0703052307730357
0.0689308602622752
0.0694494721598951
0.0737645568822146
0.0680032500576755
0.0734284428285743
0.0690646229642182
0.0717574295988204
0.0683298927064198
0.0697539992698931
0.0708622265484407
0.0703404787466413
0.0684465707401941
0.0665360267233977
0.0680266553342253
0.0695475149194329
0.0687852147945848
0.061252825041222
0.068084527690118
0.0687364315736844
0.0699327130984642
0.0691848938409228
0.064723066588459
0.0649354409014551
0.0628856808523787
0.0631711710747781
0.0669477532649907
0.0676148259542773
0.0664799882705953
0.0659262855537724
0.0657833441383121
0.0646875092681242
0.0695315705945231
0.0684553879859353
0.0620183229190572
0.0644077119719726
0.0657828748504625
0.0656680742007313
0.0643551247002733
0.065557974706146
0.0657497380947709
0.0642269356482053
0.066058191769959
0.061601358217069
0.0631980524396426
0.065317735547365
0.0636568464277674
0.0642394567743403
0.0637709909554598
0.0610951173696126
0.0617706244831723
0.0640676646453376
0.0624448157193414
0.0620204536453301
0.0591094736146035
0.0632453655291828
0.0616886545862682
0.0636080939700196
0.0593136414916932
0.0620441341359991
0.0623944251233637
0.0615067912457871
0.0594648559421353
0.0635605590435812
0.0580179923651073
0.0606446271048395
0.0595382355525157
0.0594089706233401
0.0581695686798043
0.0571779249359776
0.0564049844341356
0.0610237885493415
0.062576179266462
0.0610014196196422
0.0566934360073761
0.059952474197742
0.0578634814378704
0.0580642375762384
0.0576827647127906
0.0613143219639621
0.0611545345071246
0.0579241755248926
0.0569635009972512
0.0596334909536852
0.059412582178836
0.0601216837845703
0.0542517630996577
0.0572804455620201
0.0590728692261059
0.0578769258604777
0.0562562346992672
0.0588394770331955
0.0596269314666058
0.0588326112492789
0.0526883742536345
0.0584221800747207
0.0561934814081608
0.0577133443261052
0.0543508199304511
0.0551931274676516
0.0588786684903426
0.0574027662715874
0.0544595364650256
0.0580778732967442
0.0559369975466621
0.0564867556162436
0.0545010379625652
0.0571794403978015
0.0548394546845007
0.0561777820801717
0.0537428949807315
0.0554992760679719
0.056085059791744
0.0570354492693135
0.0512882039344361
0.0562824313677329
0.0544637090010448
0.0575320805695411
0.052203176749746
0.0544234709156263
0.0568490584901211
0.0549544525753678
0.0528516249366726
0.0554802831310269
0.051916104950954
0.0530619371796395
0.0514584945829828
0.0546254150994499
0.0505042841014507
0.0532156525522266
0.0512770725012221
0.0527158807782467
0.0533587743952221
0.0534638670273192
0.04900561718041
0.0520227798179639
0.0538597468677258
0.0526872249776072
0.0512341422906814
0.0507466756296306
0.0486298447400516
0.0542293932000356
0.049909599585286
0.0508143199687835
0.0549570148551954
0.0539323310171235
0.0506799613341423
0.0499989667405416
0.0502362205370371
0.0510065488445441
0.0513892533939957
0.0531727833311259
0.0504494422833368
0.0542692567609381
0.048459663885083
0.0482977170727478
0.0507617771625701
0.0498796331556038
0.0476214900909163
0.0538654616161089
0.0515022362575018
0.0533789885862355
0.0516076744724304
0.0518359816999385
0.0475177882374752
0.0484186374546127
0.0503127978509832
0.0517846247101298
0.0473471542292109
0.0499104770598151
0.0474139672625662
0.049436406076719
0.0480574209122174
0.04827362066667
0.0496349895846479
0.0491301106312509
0.0452498410689538
0.0492513914757994
0.0473380465446814
0.0470394138963638
0.0451918295911012
0.0479758165724369
0.0481983328321156
0.0466489882968147
0.0441021984796421
0.0477491663640509
0.0441362673792162
0.0438573794647039
0.0439144725270785
0.0508120728863591
0.0454406782908008
0.0458761343661646
0.0436764165137661
0.0448826111408763
0.0449271754762848
0.0454729233083573
0.0434756281524995
0.0475853219337815
0.0447171121624187
0.0446392630723917
0.0432668268246408
0.0430427636239436
0.043502628516836
0.0475837740485016
0.0461544599792815
0.0465570718089815
0.0438184514873911
0.0465061208779957
0.0419638281963003
0.044584773705117
0.0406743702343214
0.0440292809201194
0.0405169427376461
0.041940034717837
0.0399198543057734
0.0463241122681848
0.0435154254566438
0.0499871133216632
0.0427956646421011
0.046698270119183
0.0423149057506571
0.0431449921187333
0.0426008890235444
0.0416379243690017
0.038935138543694
0.0435968216667919
0.041065978230979
0.043881582431086
0.0386190064309934
0.0428103323287437
0.0406755263801506
0.0448652612115311
0.0392620753800106
0.0428832119181368
0.0385829117916435
0.0418020226720016
0.0364406012996604
0.0450775957560766
0.0369752928229761
0.0406693542390244
0.038740891649353
0.0398667086171209
0.0373860412223005
0.0414963932146669
0.0370556294267599
0.0417548093748105
0.0390548276826345
0.0391022750860592
0.0368689545166945
0.0408458020114209
0.0362506472561394
0.0398924196611713
0.0375472733122322
0.0407414833317107
0.0390499172392697
0.0398706282565894
0.0354446648023871
0.0414996410757193
0.0348767235752242
0.0388202659795015
0.0358111050136669
0.0421229519062486
0.0353363913473357
0.0398802262121958
0.0392135388095901
0.0437277277674995
0.0357779545101465
0.0402606948133061
0.0379502020344768
0.0420265519138321
0.0370942288603535
0.0434192490558538
0.0398817831929613
0.0420042977165707
0.0374861085740415
0.0466881410037504
0.0403655256225984
0.0491839364537516
0.0414537793343435
0.0458234053970856
0.046614655193944
0.0504287351593989
0.0459821246564552
0.0565722064501232
0.0487786672068721
0.0514598696715844
0.0461448253788934
0.0520131345841275
0.0331498610230826
0.0477233943899828
0.042874750241307
0.0582603362172036
0.0431029891213255
0.046274571171079
0.0417612813685653
0.0518423292722473
0.0417510041940748
0.0513311062812544
0.0388684964725441
0.0535641893261749
0.0499095551547109
0.0515692155836301
0.0400053847040254
0.049303031864338
0.0325263166338146
0.0583467941540317
0.0367468015010455
0.0558023270889855
0.0403651090311746
0.0529226020769526
0.0295385779368391
0.0533137975894787
0.0321491635526923
0.0537914164857031
0.0341311196000707
0.0561627105191174
0.0298224102110866
0.0500410483918319
0.0310206109473894
0.053642171845323
0.0309422839829919
0.0599955410932215
0.033422901011146
0.0587085974548661
0.0240942204163793
0.054549706882953
0.0270618098174959
0.055036730251759
0.0332853717866207
0.0594883356941147
0.0391922335327208
0.052948102339355
0.0358426462806964
0.0444562293170511
0.0502469981131285
0.0434548192029358
0.0453757264901884
0.0245650122581171
0.0600805670697581
0.0346218213270746
0.0648478944381059
0.0152084263225773
0.0766935204206772
0.0135284848637074
0.0721672062111413
0.0109271106783781
0.0755763518214862
0.0106095966082197
0.0706352153643259
0.0226996354466211
0.0584579313069496
0.0303658977315984
0.0461954201059456
0.0394697588366414
0.0386197201971559
0.0426631480195221
0.0374410569151217
0.042338585352728
0.0386156333334063
0.0326195137670851
0.0405102341487795
0.0330412326959169
0.0404351370273418
0.0282132918669854
0.0421160807872464
0.0312714748769695
0.0360496091154078
0.033043667020572
0.0369965119149783
0.0325709146136345
0.0359604089554975
0.032802568990093
0.0355344002323866
0.0317650685297525
0.0364629998826765
0.0298268894000363
0.0325020703418984
0.0307113848660092
0.0336119691897315
0.029665389615179
0.0345357917295284
0.0282696936100781
0.0349185492233597
0.0321770532410694
0.0340637651226212
0.0298583878184124
0.0326655876256656
0.0306966527367165
0.0314213201711097
0.0308407818277992
0.0337987475118926
0.0313319802943826
0.03200972266132
0.0314490764063193
0.0336890049363959
0.030851069298536
0.0315004443203843
0.0307403992419201
0.0338121915341273
0.029431405448861
0.033938394216861
0.0298947546160868
0.0328304715751468
0.0295483180560312
0.0361876711020472
0.032103396844457
0.0339019402178616
0.0317017268038442
0.0332920597231882
0.0318798401606606
0.0329167398853376
0.0325695669308822
0.0332658287412437
0.0294085770574925
0.0311750226888419
0.028874920010824
0.0320147009162591
0.0319524343037608
0.0322108260592014
0.0303068384344657
0.0335081582530013
0.0306493926818585
0.0317546861403263
0.030739396494264
0.0316155171243404
0.0300531255045502
0.0306993539691273
0.0320024114043822
0.0305291650933699
0.0312474863210977
0.0294202361487378
0.0295393052652468
0.0302072121966238
0.0301749874307561
0.030514848886175
0.030079156886052
0.0309272187546358
0.03056665600253
0.032088752365584
0.0291097888967251
0.0336648630907013
0.0313056570679456
0.0303374701799945
0.0293522199973215
0.0303095622731396
0.0315455959219602
0.0284278215960811
0.030593736476225
0.0298516750178421
0.0295878965930193
0.0305110110845927
0.0323389670945975
0.0325082091132363
0.0302529147779218
0.0279167140303408
0.0305889039842049
0.0288643219674837
0.031057649167396
0.0317487845446001
0.0324149964726353
0.0318901330942717
0.03300038576826
0.0302093050913666
0.0298813760480581
0.0296624779479182
0.0316225495806342
0.0305776287737454
0.0296188995955985
0.0314844141069636
0.0331434221974311
0.0316911286471329
0.0292747334792824
0.0323334860035238
0.0292892707135008
0.0316742340036603
0.0307258306367612
0.0315439157933708
0.0292933934283617
0.0298888287335532
0.0309055940248677
0.0315609698643015
0.0305104651348143
0.0305106170194665
0.0289409170435781
0.0308322756125589
0.029805547464841
0.0307995121361516
0.0309473728186884
0.0309237473099276
0.0309726847428063
0.032080189416518
0.0316778880747833
0.0290229948660301
0.0279038780198216
0.0321530693260886
0.0307933842164899
0.0288822237559359
0.0290385090604242
0.02931989051366
0.0297883914472703
0.0304959730588867
0.0309958551395759
0.0302010169435019
0.0313201014072861
0.0292899901056107
0.0313496337365631
0.0295269646534636
0.0332914662954757
0.0319945353493745
0.0304178948663215
0.0310323221567075
0.0320073300319436
0.028478323046705
0.0327159927282906
0.0311873036833558
0.031201748394079
0.0318592028060566
0.0307070278224089
0.0310919102154955
0.0308933192518808
0.0298149664609079
0.0301667262652535
0.0311072430165857
0.030808186336229
0.0284486847877554
0.0310209666343581
0.0307152814599152
0.0283531764924958
0.0299607514726552
0.0329114509571903
0.0315706817413618
0.030762136102947
0.0301321043227014
0.0308181224600128
0.0300626925750392
0.0306212206876146
0.0303637979490569
0.0272664654296497
0.0290288095888662
0.0309145542786187
0.0300060334321441
0.0291618530291644
0.0294747551829223
0.0287456413730306
0.0256620369990365
0.029227659245774
0.0297321830103215
0.0311990913468485
0.0292936898024896
0.0310358022526491
0.027812579148194
0.0296066268261661
0.0281408392880384
0.0296800706142058
0.0296071485315049
0.0310734053623462
0.0302293050202593
0.0293137240322588
0.0280965844098282
0.0300852266570334
0.028745967932409
0.0310944896288574
0.0286142834542136
0.0277242837511743
0.0275536702344266
0.028584609295109
0.0264477099735917
0.0285194956814853
0.029046542327163
0.028857106956617
0.0297591655722754
0.0307344602299419
0.0289474632495873
0.029998171695513
0.027202858128685
0.0282218930024598
0.0281963759926374
0.0276380290277113
0.0279070600173449
0.0281450333668413
0.0279957892533966
0.0298337479827576
0.0283428995355888
0.0296210557664085
0.0280718655946997
0.0269925494176082
0.0293860471538322
0.0306097534826668
0.0293763633047222
0.0303755656594375
0.0284683541014282
0.0290150466660347
0.0279819662212968
0.0292827512440926
0.0281568941033515
0.027710560698814
0.0282645161529296
0.0300231187420888
0.0272101502803063
0.0292121787029034
0.0280854047006204
0.0287467141127038
0.0277747763637722
0.0266145874375321
0.0263174367115469
0.0295270036501715
0.0275272585513085
0.0281152462256872
0.0282047403261189
0.0289375189674933
0.0255013099760202
0.0277882767691645
0.0287455586899646
0.0283008452057768
0.0291454258122138
0.0318479539898947
0.0272974055568982
0.0292514538216643
0.0264320239615008
0.0288811782906437
0.029294332842779
0.0284064119630974
0.0290048863021332
0.0276694845025195
0.0276128843452359
0.0283334728903768
0.0289468375891624
0.0270595453476742
0.0260266487641276
0.0277198429825961
0.0269927687593992
0.0271814550275994
0.025894461865483
0.0262783071851856
0.0270223808696311
0.0287997840302348
0.027943637289473
0.0322998404756681
0.029032688852056
0.0274343648625634
0.027316581606113
0.029527930131915
0.0283588881832861
0.0273140998014121
0.025255827755871
0.0282784326551795
0.0271831081619894
0.0271144793040022
0.0276686367095361
0.0273917510843818
0.0267772678586266
0.0290464261648047
0.0278897198691796
0.0231450205452628
0.0243010579990245
0.0250649615904203
0.0272323653980726
0.0288229107676815
0.025627879625495
0.0272593171563626
0.0274903996536087
0.0253424187614234
0.0259084085495806
0.0257946561291646
0.0247245744788085
0.0273613757999435
0.0293756746359697
0.0283124955071446
0.0209918661953573
0.0273397603485855
0.0239544816291474
0.0266294671024404
0.0238586841168335
0.0266443128411567
0.0229811194910137
0.0270200024796507
0.0249019485082963
0.0267022612769589
0.0243229613945192
0.0260717958487729
0.0232943965937483
0.0259982454312178
0.0223879866795766
0.02710906756547
0.0240805606287467
0.0249250066994508
0.0224436812897834
0.0278558611726077
0.0248808597859995
0.0264915760780098
0.0232718398024841
0.027086622455687
0.0304866127712174
0.0389579947212061
0.026591485632853
0.025186420160344
0.0262691409086638
0.027913711238405
0.024876270950274
0.0260000121628854
0.0220672574923807
0.0253328456891253
0.0237944281244848
0.0265508681923801
0.0244849349486874
0.0257533644637835
0.0234272944941348
0.0255704582615223
0.0266100698020663
0.0243524560540572
0.0219711587131283
0.0249339706895625
0.0243737137029263
0.0241634240988636
0.0232442284908374
0.0263304297045188
0.0211358840796555
0.0223191417613885
0.0253173645247545
0.0306585378308733
0.0298111197462198
0.0254394154202241
0.0255349238335211
0.0218744171168941
0.0216690619605355
0.0224411949644932
0.0232414840274918
0.0227340139745103
0.0233959393103403
0.0230798897058751
0.0215699228399161
0.0247409224955933
0.0239988178444203
0.0231765033793005
0.020976517274147
0.0244016585534151
0.024207262048865
0.0245480429738802
0.0232719137952472
0.0229340459926831
0.0202821753238218
0.0224084466567076
0.0275107217503978
0.0231849898283992
0.0251159596133513
0.0273387755024041
0.0392682428297525
0.0296688133253812
0.0226995388798675
0.0272110762865888
0.0200207128862439
0.0244697374509756
0.0211792917010076
0.0234652480722776
0.023626389816117
0.02758181362118
0.0217485963342972
0.0247178651537735
0.0230712660870265
0.0259392714824908
0.0222248677053345
0.02404666617196
0.0216700018062068
0.0253756314858617
0.0208792053820563
0.0239273543325838
0.0271500055349758
0.0360705870028484
0.0307474129175874
0.0245021180970746
0.0220840790559138
0.0275256415446656
0.0337414581584119
0.0404286768995199
0.0181419364746336
0.0285390831482444
0.0204602348725422
0.0275413000314391
0.0169249753399786
0.025769451896017
0.0212383276578361
0.0308756257080374
0.0247987174602185
0.0277249133503783
0.0243475690111866
0.0220038808735212
0.0215081478115943
0.0247020856238631
0.020149603920536
0.0237799251896597
0.0198824752055699
0.0229225313595419
0.0206028609263156
0.0242783645731833
0.0201020098796519
0.0254268588186049
0.022526375389671
0.0322260852916545
0.0220984817573674
0.0250387646977554
0.0193454585699667
0.0243979488304446
0.0281056954058615
0.0369770548833458
0.0252701598526608
0.023214938730049
0.0238619193129031
0.0224452051065608
0.025153179893994
0.0244949800692851
0.0221357779639021
0.0219591460206137
0.0218587389613303
0.0228479952798245
0.0220468421449535
0.0224574513036811
0.0207028220086607
0.0206978697294361
0.0224228476911159
0.0239150632867534
0.0221165503691088
0.0248748682342383
0.0210619067499383
0.028875487395188
0.0319429852260652
0.052969902120199
0.0353822362568126
0.0377057172171969
0.0238700147937731
0.0262814289653019
0.0208833816209947
0.0245524641893412
0.0215839991178141
0.0273364769522859
0.0210445513400083
0.0231347789696259
0.0242771541467905
0.0235345033358973
0.0199913421835146
0.0251554416663853
0.0220578748271545
0.0222050263393136
0.0212668431056563
0.0211919132326763
0.0205950143068534
0.0222974147057153
0.0241362956165059
0.0272899199807039
0.0335753370565914
0.0199125551206049
0.0346234810019361
0.0369173130154513
0.0551438507320729
0.0258051093140011
0.0286788402141066
0.0247688397176496
0.0207311520754752
0.0237163784310393
0.0245768436355312
0.0283317133474148
0.0226880478171817
0.0202858009994621
0.0231691436956931
0.0259329600299998
0.0209074179812981
0.0255199858791023
0.0350334041379224
0.0495076719352312
0.0378587213995994
0.0227592624365468
0.0244001311255063
0.0347734912393989
0.0459370014627311
0.0348945337064556
0.020708964830642
0.0316963156789821
0.021106659605151
0.0254712404122089
0.019380515108163
0.0274826109491078
0.0255354649352806
0.0280564208985802
0.0216013438292515
0.0229189172144583
0.0207860989066868
0.0261500517404872
0.0270698783012477
0.0367739644205914
0.0326252660567459
0.0263309076358385
0.0233599988146926
0.0285708304632269
0.0213746764146991
0.026595742002373
0.0198484180776969
0.0256369794800241
0.0342028186513046
0.0394698410577464
0.0327255686624712
0.0393238984666355
0.0342513683306965
0.0282244032439454
0.0236441708585919
0.0402978872216954
0.0241597480310996
0.0310249559708877
0.0289139411271671
0.0577898965055166
0.0477549688370135
0.039539940975296
0.0314082135820056
0.0208800853856444
0.0289669273243515
0.0182582292200286
0.0336574111604888
0.0331853356486954
0.0400530639008592
0.0170759162761314
0.0305468795362622
0.02707287617518
0.0416932424177815
0.0277156655864799
0.0288217246010544
0.0240565941726116
0.0342451783230097
0.0336651883588419
0.0338214271688544
0.0337355373042702
0.0487747161103411
0.0667161658759661
0.0432379566032902
0.0376589998132409
0.0336736375575738
0.0491435604254851
0.039811432038547
0.0230317853449732
0.0309659221861012
0.0224662365956105
0.0280064800897963
0.0331338811013968
0.0512332629549253
0.0384247978304688
0.0246570522409685
0.0326396770993367
0.0339278949764038
0.0439371793178091
0.0422707295277253
0.0246236170785271
0.0342396545532067
0.0249905470659183
0.0391174454954017
0.0521199358885333
0.0609276198735924
0.0377923930562647
0.0622553381293067
0.0532132125203634
0.0435451971823369
0.0409421963886054
0.0350721267837192
0.0493010937561717
0.0513206572419498
0.0353942728972135
0.033995295649765
0.0500849899149537
0.0524920521986335
0.0431392175483514
0.031368573894182
0.0391713816143659
0.0336547121393631
0.0786549426181643
0.0934619864498421
0.0628628693449722
0.0360210128947942
0.0478146048167469
0.0582652266584456
0.0467849949636045
0.032693052100225
0.0345494789181125
0.0304491204787764
0.0297084454366371
0.0377027877736372
0.0409756911108939
0.0380487798334051
0.0379232787121562
0.0362125998567267
0.0393544716618627
0.0671842462592093
0.0962124485976246
0.0726262232664325
0.0645787814178769
0.0620523604729051
0.076373127803565
0.0467626211996023
0.0460289900449827
0.0380490393173134
0.0509576825147001
0.0449503956062409
0.0427011138614702
0.0468039152122986
0.0621445534913302
0.0638424081275692
0.0638052397832244
0.0647852306095911
0.0553006568366139
0.0492084066077929
0.0966707006414274
0.118355212407209
0.109784822021586
0.0513430916779356
0.0824676957579831
0.0707590628344413
0.122922700242132
0.0769438533783026
0.0604884158749518
0.0584685423340263
0.0630592069582902
0.0629549160610701
0.0753964503587211
0.0750949081427874
0.0898683383236947
0.0710873720695491
0.0819109555268635
0.0828543519433494
0.171438867537761
0.129677623003189
0.104600967286826
0.086569827056806
0.105599337094893
0.0960319548058133
0.0939215295576717
0.0842428943120323
0.0951273908112605
0.106419517967974
0.131534181943694
0.111750355787536
0.0947158760280928
0.119575844391879
0.116476343657843
0.123019280905125
0.125738103037439
0.148799820537106
0.111137559366694
0.116572423313758
0.111217392260023
0.110911909131924
0.120670911894776
0.140379327089942
0.143704848807605
0.124755593833016
0.128201175785845
0.123573472497904
0.125739720751557
0.127042057068752
0.130522772524225
0.140731794480047
0.163643282775663
0.19991278944742
0.229164288526762
0.178547862323163
0.135816340855448
0.131472944898571
0.148270855909273
0.157511467941376
0.170922838457937
0.15497864497115
0.158673039587592
0.131227982971604
0.131611677410963
0.129331880371695
0.127775147628291
0.133875282023425
0.127227882503669
0.140872200024849
0.149466045704926
0.15359667945246
0.169642601708038
0.182535593328823
0.145364789968874
0.129494442430818
0.131455778414634
0.124076951107305
0.130581495389494
0.124691731897538
0.142054461595706
0.137476513687852
0.137571000108677
0.11890857718573
0.133824355981712
0.143455952213772
0.151660300863448
0.12332631920089
0.120569364241495
0.119557685592882
0.115971401730914
0.121658479977117
0.147135808992572
0.15455116297859
0.132620640827709
0.110138831834315
0.119892498993251
0.108755827413194
0.116840579858941
0.108045759743935
0.123212359702448
0.113611371565691
0.119441396141816
0.114634296386106
0.115532981276426
0.106650581621351
0.116136234907251
0.109226082707639
0.120994377446116
0.113120521421033
0.117186366148703
0.110420474772318
0.112008231511618
0.105923537380643
0.11587282673502
0.108369471241728
0.114092088774979
0.111802254500144
0.115397046715826
0.106098543845406
0.112941730333846
0.111196059183862
0.11457770688901
0.112274416179771
0.114267353940112
0.107117716678936
0.110987793518135
0.104165498759919
0.112748964128766
0.106903440864994
0.11008279640368
0.104852185167173
0.105781946960049
0.10616535598895
0.111124704340234
0.124346156211493
0.143961132686777
0.130887016152324
0.111007279881519
0.102382049064128
0.110034065132223
0.096678096015572
0.111135423302717
0.136917950819603
0.129616907373373
0.100595235244781
0.102248835948584
0.0976582776978365
0.119437969883588
0.0991375869919878
0.100936829356151
0.0920500727043514
0.111788094688926
0.128315074707169
0.179785453898422
0.17008415196736
0.171007962554144
0.117269641344843
0.102343996990234
0.124599541958558
0.130200615705139
0.103288972395923
0.0875215922281505
0.0966840557499931
0.131292726829305
0.109573962410682
0.0961982380564429
0.0896284495715679
0.0934055071299507
0.119800045792639
0.123836597853029
0.11617112924748
0.12061456041364
0.132376476523917
0.135156245528081
0.155433063545056
0.166776555239166
0.116731666085805
0.0914121543830125
0.0942467252132934
0.0890918981905058
0.104278367925291
0.134663188178002
0.105196254534804
0.100982522360326
0.081886315684291
0.0840319526486863
0.0898762178036202
0.107911835181363
0.0933136431185099
0.111635901121386
0.109932386415928
0.0923115589691252
0.0944825773816243
0.118695714496951
0.126891273981031
0.142503409141645
0.0909949437794257
0.0839696256535589
0.126536873752156
0.127045354958544
0.100864430140235
0.0959799313828471
0.0728399797633332
0.0920639581327956
0.0929783803844281
0.0837915948378874
0.0968315984439727
0.107682383970871
0.114679893145761
0.148941050620893
0.161784358474182
0.12733162220316
0.0826759920092771
0.0744582547929891
0.067790244000782
0.080829173522953
0.0677894538748738
0.0760391723826537
0.10095358770878
0.0815677894367944
0.0802521420269517
0.109705999664368
0.082330415332084
0.0715042858332396
0.0721345340559559
0.0718980328683187
0.0794686241367049
0.108005982643291
0.116317999359599
0.094124842631374
0.0973035696899382
0.099495108527835
0.0851844785789617
0.080736256504358
0.0770964572488286
0.0779710094832523
0.0858539360651246
0.0969487423084205
0.0854574125163711
0.0885478524789651
0.0883165966004489
0.0922812697305258
0.125549754013567
0.114964863619312
0.101643130360088
0.129456471919444
0.135966737428852
0.15775711505094
0.118544836676238
0.109784953387037
0.109129950723721
0.112049372101604
0.112521543995899
0.110824357370081
0.135192493135704
0.139412793074601
0.121021890693734
0.117444583557884
0.119124958868621
0.121590500722608
0.135575866343526
0.157457294391276
0.155225276837195
0.200542641284755
0.171359632167131
0.159748087918341
0.135844659760672
0.132350890596805
0.138278567529619
0.137633479731534
0.128252674937877
0.13284564536487
0.142229493383459
0.159175336603114
0.137178269615821
0.137157545143849
0.137940713787826
0.136535472119554
0.130895595805051
0.142756833606629
0.138009357120606
0.141635433855223
0.141742610582719
0.141752599833498
0.157734334520283
0.212051479010617
0.162337401497473
0.156227462709417
0.155040638850767
0.15822511485274
0.149112792650041
0.15949498580049
0.170895600127108
0.16563964273172
0.160174298953582
0.157636526703191
0.157028022522618
0.159923008893706
0.178340493132192
0.181060830384152
0.165043370341693
0.167758323171449
0.160903319608491
0.211819997281648
0.205145254858283
0.198607517052822
0.183195360537076
0.175656971686513
0.169801401052651
0.173028163318417
0.164856199514737
0.173538926674007
0.174457551008593
0.172739336618885
0.169984218314816
0.171696011576298
0.171012733660149
0.168141277745883
0.171155258185576
0.194374330729576
0.170874921490212
0.168360661338605
0.168518842870932
0.170310266820275
0.167785997833775
0.195440012813105
0.185106220676368
0.176628887231566
0.172489868358746
0.188731252769848
0.190952927639601
0.182880211435999
0.167035153602991
0.171432792873521
0.160533174264509
0.172546522739869
0.160298692470461
0.188350806750993
0.19243678162522
0.177851041546455
0.169204872367969
0.170348060441669
0.166075256924077
0.172172725327966
0.168188122633429
0.17270978020855
0.170391305340085
0.171653533163973
0.174217220703198
0.170624235125229
0.16883246184984
0.18360419783074
0.19116781998352
0.184677115261036
0.170094191310648
0.170559792706048
0.165327321042553
0.166523663859357
0.17114671034035
0.166924668560337
0.155837835815956
0.1649511792585
0.154675381209664
0.172913454440587
0.182130704126211
0.16482024253026
0.168273828564834
0.155630971467113
0.153029386859579
0.150108597115799
0.148393744112694
0.147564261163685
0.149939961173781
0.149422879511269
0.1461436033954
0.1463792867258
0.143600869882529
0.144706172692229
0.141839156138411
0.145692400470094
0.138976313828653
0.143703613022534
0.140332186182031
0.145153862071346
0.141794701951199
0.144456959316614
0.135722424744369
0.140295000158616
0.153934239633957
0.159288438203055
0.159386859064715
0.147409768035815
0.146026083626197
0.142772041996867
0.132822717990897
0.14060937233104
0.137342827481297
0.141646868720808
0.135680713858029
0.140159489755532
0.137619295711143
0.140249915838201
0.136778762949969
0.139096267360313
0.135240131281074
0.139677075337397
0.135240514971583
0.138795739244615
0.135713408116296
0.141365570422212
0.138426393487681
0.145802028743497
0.139085010534289
0.143673497265464
0.139659942874735
0.136831058124442
0.140409773433361
0.139627023404389
0.139109414703086
0.138125848308907
0.138295335913572
0.135894959224003
0.138586401228064
0.140836176110777
0.132785042227868
0.136185806060015
0.134217826712947
0.140478677027164
0.129466799113053
0.135193276864249
0.131079945291733
0.133570763970548
0.128746265848353
0.128129525520126
0.125411799999403
0.129052659731392
0.124985703965444
0.125455071237477
0.123459744537236
0.120999642665554
0.119335353569957
0.123470589626093
0.119292408537315
0.120729243559066
0.12071259567463
0.122605086414661
0.118962969406497
0.117550851576136
0.117595086631125
0.11972332652515
0.116473776776411
0.116453685511527
0.114542013812854
0.118277098704106
0.11544780815303
0.11821549334405
0.114918189498371
0.114874590548543
0.115977553260554
0.120337645299233
0.115893948365808
0.120679412697046
0.120791630907966
0.121088255758315
0.121025293091238
0.120406033917804
0.120063867290466
0.124268148135957
0.122333997364237
0.125533584976917
0.122327141847519
0.123935856001229
0.123939788884678
0.12475424392217
0.125073154176337
0.127466297726004
0.124615109352664
0.126002050074612
0.122990454976958
0.125157843699325
0.124943773628842
0.126346530205765
0.123831824533484
0.126219136150364
0.123990099972276
0.123704346501411
0.121277670429775
0.121292841368689
0.121396990456878
0.122381675106009
0.121156127952879
0.124282159349277
0.121457823186394
0.120891565169645
0.118090481083165
0.12357211234482
0.121924031619064
0.120695839000398
0.117760501161112
0.120126505925055
0.117862523562029
0.118627549161736
0.118426560831829
0.1208992398504
0.116859446183775
0.117532035553885
0.116123086502158
0.117319461369818
0.116347231582006
0.114442483308457
0.112156628707283
0.115314371634126
0.117019485537331
0.116451095597059
0.114053040122265
0.115575453390125
0.112349700260409
0.114030292468056
0.111728964289557
0.112651843646843
0.109288084371999
0.111966470132225
0.108951208158591
0.111282112155859
0.107487874697367
0.109249351018751
0.106364205412782
0.10838273019556
0.106287117416304
0.106592282588742
0.104259220173003
0.104793979426848
0.104584229171854
0.10342553733497
0.103388052955802
0.104083416442125
0.101600608955618
0.10212122506052
0.101297964615482
0.104012087660331
0.102090069190261
0.102918337231847
0.100477707906189
0.101833273167674
0.0996557575894705
0.100441100955323
0.0958802266298163
0.0956685930391297
0.0963876349489389
0.0951091929016169
0.0928672527287714
0.0949847747620193
0.0943847842646536
0.095844917138519
0.0942813289201886
0.0954198020560139
0.0972131860021836
0.0991364486011401
0.0988982502257476
0.103117861279787
0.103938611763763
0.109399653495185
0.112009572790482
0.119290732118388
0.121055003062196
0.12863860610656
0.132412404125736
0.139332727393072
0.141101494173508
0.14991478164181
0.152082543433982
0.160056565067965
0.163210638267172
0.170116154776709
0.175470595502049
0.177985280817519
0.182859263109155
0.188092055564087
0.19140809956615
0.196459219096447
0.200694257172768
0.204917590575798
0.206013124210052
0.209588471986908
0.212824974650984
0.21560036158277
0.217825783335576
0.222896330247132
0.220640891705729
0.223609375990803
0.223935778806612
0.226073609407083
0.226458450298556
0.228444245596163
0.228785166276202
0.229121531314216
0.228401639693704
0.229915521277244
0.228081316237813
0.230705541217208
0.230129741543275
0.231477115325474
0.233175099843305
0.234535377418461
0.234745114729504
0.235513132633306
0.234578738404946
0.240299943052178
0.23745676462215
0.242228170602037
0.24241207989274
0.247302655264275
0.246024088712947
0.249529735701795
0.251417861060343
0.255238804294752
0.258329431775161
0.262682090436438
0.261915859849007
0.266700673113883
0.270317366756899
0.275503353489489
0.277953932970976
0.281722943795831
0.284300834274608
0.288866067057341
0.287390153790819
0.29230870712153
0.291935666299896
0.293446979851374
0.294633701326308
0.296056335764069
0.295975873667029
0.297052494984608
0.293705835469553
0.294332538197932
0.294046128117239
0.293925319636467
0.292999339831864
0.295767668253618
0.294871877052162
0.299540248740248
0.30299015937109
0.305567178989033
0.310385420963389
0.316106277986473
0.318987266598972
0.326681441184799
0.329467157379901
0.337606556459846
0.338624982072129
0.347015852375664
0.353963606227863
0.356699007386923
0.363806903051819
0.370995322574461
0.375155421426279
0.379858708246544
0.381818635682062
0.389053044451527
0.396864635685995
0.406887091605201
0.405081118894813
0.417663298871469
0.416502272751531
0.432459805702286
0.436692218315322
0.442284961655548
0.446296140237396
0.454503957517194
0.456337137105907
0.462838448274264
0.466484678360702
0.470991710185928
0.474208473823283
0.482127504596157
0.486924763527273
0.484412187524465
0.484629855483069
0.489023123710828
0.482720958853735
0.481153245466299
0.480195584859453
0.482920704737379
0.482410301340315
0.481509271928912
0.481116529480694
0.480359783554272
0.477326307662387
0.475260030744123
0.469733205345845
0.475932489113445
0.472096308203386
0.475274351722906
0.475630623603822
0.480116304004469
0.478988514530964
0.483220716941126
0.4809580363869
0.488535927423967
0.483445972120893
0.491186556210649
0.493744891264994
0.49615084669545
0.496661721779331
0.491464066945215
0.491610322999365
0.495708497517285
0.496728128721483
0.49210429006712
0.492410108577702
0.493819604702535
0.486759425312724
0.48972591575461
0.48685901327219
0.483446379529934
0.484130623115653
0.506520828977752
0.51792475835838
0.50135809592569
0.485672442537857
0.484426918080884
0.471279120507226
0.467211308625758
0.457784530953668
0.460019384712062
0.45706805498154
0.450535212635578
0.444949582889015
0.442642740173293
0.440714361012243
0.436343672119755
0.425529564917565
0.429309399237368
0.414168908932603
0.407332645662398
0.403749976775174
0.391812277070698
0.378561806086661
0.369112447774089
0.354172424765468
0.349224547832645
0.33281996506565
0.325549443108016
0.307621308789623
0.298652279203098
0.288880435168585
0.28071605688199
0.266500402004511
0.261303519411808
0.254813074284159
0.251721612379763
0.248550191805708
0.242970418181254
0.240978612382881
0.23336048501308
0.238474936335111
0.232461643128365
0.231180865080793
0.227293736458652
0.223955357171396
0.222380346852132
0.221642657988558
0.217006501406331
0.21402796376657
0.207272094395212
0.201428801444761
0.199843755920106
0.194321531424803
0.194380244352624
0.182087676041123
0.17672430324691
0.170324781165282
0.164486080228936
0.161964692551581
0.154931768670988
0.148487282640422
0.138161139143422
0.136400822780218
0.128898976488485
0.117574663805641
0.117030181250353
0.113386402785302
0.10339350078097
0.10120167840936
0.0977709080272899
0.0914569475143661
0.0862607295682228
0.0844011993534686
0.0844243152640351
0.0806093277332715
0.0786281199999107
0.0763524849423414
0.0736359890879602
0.0740768731318752
0.070672614639065
0.0727377475044775
0.0654221631234428
0.0674890658440013
0.0655006697702655
0.0647424114241606
0.0684491419083866
0.0693129447201991
0.0658126696726085
0.064871674645558
0.0672452334914613
0.0691039428463907
0.0676286283471566
0.0721674486367499
0.0688336445733022
0.0684938275986787
0.0697523926440273
0.0681810317426036
0.0691255860978316
0.0696716208612837
0.0651006192516236
0.0686963811856346
0.0666774666452646
0.0685492235488624
0.0633715879023947
0.0693585844279234
0.0641280423713021
0.065437335258701
0.0617983462355874
0.0640077437311955
0.0638310830819152
0.0618859685199108
0.0627306250690684
0.0677138933871757
0.0678321054803128
0.0669316399477297
0.0660128922207288
0.0736082764589273
0.0691917477883589
0.0702055402977925
0.0688069651647318
0.0719488110802544
0.0715934830871971
0.0748827710083859
0.0738150245449598
0.0762322399671123
0.0730738176094417
0.0759960172119904
0.0766317119068008
0.0757196722179088
0.0766121797395441
0.0802524928418983
0.0782355713319794
0.0785012919136294
0.0736096101260159
0.0800427867160384
0.0783564914267035
0.081780932050097
0.0801606454364669
0.0805483678119907
0.0809791933229469
0.0835798299135096
0.0835202876239736
0.0848672438264006
0.0870149019776015
0.0933140884931077
0.0907617854567432
0.0973988941130635
0.0995431660782953
0.105224453082293
0.104247820780493
0.111521340617649
0.105745021531662
0.108767630074165
0.105762667558947
0.106878626831453
0.108217590987766
0.101079501099646
0.100014316449904
0.100208013943685
0.0923816400280076
0.0913791358763832
0.0881662669890996
0.091002851481422
0.0892787439987213
0.0916592573364175
0.0873534062817971
0.089801699456956
0.0861253901427087
0.0868713796779095
0.085927048785136
0.087400828462431
0.0902513495538327
0.087372025315141
0.0891150595632429
0.0897864919856872
0.0842644967204563
0.0912934131046315
0.0844710597206366
0.085860702647739
0.0795877220846996
0.0820074259459913
0.0854092582784181
0.0833890539385971
0.0782441535317955
0.0754555959083475
0.0802758789496317
0.0815582617414976
0.0728846837170349
0.0722746758088511
0.0740485811618053
0.0763798150263765
0.0726244478108313
0.0678777334218819
0.0713694970714162
0.0735201395903548
0.0694626964881176
0.0722715532215772
0.0725632269617766
0.0752949648239984
0.0718044029061629
0.068217004443804
0.0664599128601482
0.070624865454045
0.0671395473804635
0.0728004453373355
0.0694683465261204
0.0710184130425772
0.0664105330046115
0.0719942918637343
0.0665641393004092
0.0631276776669988
0.0658540727121002
0.0588792064668827
0.0589497069628041
0.0642550788867321
0.059402740465129
0.064214934254699
0.058595041163263
0.0616829339447592
0.0552516637205019
0.054175920158568
0.0561793521858591
0.0604821403095477
0.0549186467729941
0.0585228714956554
0.0631869952286663
0.0576239048794364
0.0579186971984303
0.0625725378505416
0.0578139361608569
0.0629801007665706
0.0551759388619505
0.0587896735642933
0.064578691561904
0.0631977505244525
0.0623539403139038
0.0654350109087891
0.0566861276124278
0.0700426754992513
0.0615714839883441
0.0706639833925365
0.0690045818349171
0.0690951150825805
0.0641549037661943
0.0726243612450319
0.0789647009406835
0.077560678268677
0.0754699706164148
0.0714704934969028
0.0764229220126437
0.0841671765342532
0.074769464462644
0.0764748897556176
0.0882595287656041
0.0930512529419745
0.0857012911646242
0.0916176158809941
0.0919395510304858
0.109161281345654
0.0959941152796633
0.105814879206819
0.0996683733375144
0.11204127367446
0.108622413155587
0.117916628121513
0.113007878322957
0.114303081157388
0.113768420220106
0.125508008461896
0.119021223425933
0.135468791018383
0.116092253521229
0.139889221022564
0.122036316791674
0.111589871212266
0.105174879322519
0.114027415502432
0.112815981170116
0.123031711604912
0.113355394162329
0.124701630223083
0.111101389976929
0.116088518969779
0.120337685810457
0.107115974642138
0.108140240980872
0.10203305197921
0.10234659341947
0.117156688402462
0.101660449373936
0.114976408306036
0.0956475451300916
0.107942544163885
0.106303531257233
0.087586605054025
0.0916581427601743
0.101494861364466
0.0943486215755973
0.113304230593815
0.107712265528981
0.0970520264886024
0.0927265805423316
0.0955028817945497
0.101461263273228
0.0977510778246246
0.100995652078989
0.0994687422292069
0.0969015256271503
0.0967632794143799
0.0807569944839511
0.0981401495629136
0.115833441125177
0.116835230344044
0.106649318105862
0.0979635209960991
0.105573131623532
0.10582393997854
0.102328835829823
0.101187718508491
0.0967691332171365
0.105634015341736
0.0954357030989818
0.114181110404389
0.0806420057622204
0.128123749190743
0.0931039421326048
0.107981756511187
0.10079253335959
0.1106137300396
0.0926910584208518
0.0968451820962505
0.0996416007619459
0.0902691727736229
0.104444781384547
0.14484005750324
0.118943863509269
0.118333444891623
0.112655436995634
0.120296017904717
0.0955980165956956
0.12788294945954
0.10209131728477
0.130910200230447
0.143650617109341
0.127448863367417
0.13039833933827
0.1593699199394
0.117406423903881
0.0966738324986777
0.127260852169726
0.137913099079902
0.123270025065604
0.161606224809548
0.14158712212256
0.151399792720241
0.154061300040949
0.139305995848135
0.153813435279375
0.13979051041644
0.131781438322324
0.165110785438623
0.141065889126411
0.145826911066719
0.113553516675863
0.168420664979795
0.129263599197866
0.133890556337248
0.145207474487342
0.161679187496817
0.114633031846702
0.11945103973438
0.149445230154313
0.181221851528292
0.115044600842314
0.129615879121381
0.117432928490078
0.141657822983451
0.12307288497452
0.138212772076313
0.0966394601381406
0.127504312633766
0.127789723280486
0.0871232840217075
0.0859806570461139
0.169715774154724
0.143179794107313
0.130717666089113
0.0719564058100622
0.0955518103187609
0.161464049409601
0.19993097924707
0.130937162605754
0.181373825894552
0.124708702548438
0.217399720824551
0.148762419918808
0.121679465368572
0.0919556654195705
0.143970429330777
0.132893617093136
0.0627989809235259
0.0721710750647276
0.187287722617348
0.198413590476199
0.220964677826738
0.126551079820331
0.236308255428455
0.187916055973066
0.323189614112405
0.25403592079023
0.0904897727231882
0.22703387731468
0.255832306258831
0.107440399936003
