3596
4000.36533379555
650.420452594757
1
2
2
0.0757795669842044
0.0767730493510059
0.0685678585252316
0.0813821957833541
0.0792734022442237
0.0832468127196225
0.0665333933235132
0.0857093344620338
0.064965342178797
0.0765354380882178
0.0672487068099426
0.0830565020601643
0.0627315385010424
0.0835335898248339
0.059253362324071
0.0777193861623987
0.067461363440191
0.0749197573512616
0.0677497765339794
0.0842703871274758
0.0531824730779102
0.0876250580730499
0.065463413924596
0.0788716842284692
0.0653518496646626
0.0830541405393145
0.0648449329212713
0.0710300913945324
0.0620217918216666
0.0929843486972449
0.0633705264775942
0.0888702720339571
0.0657257019692298
0.0820541381459379
0.0669652829296292
0.0768117562424233
0.0634109258449144
0.0780087200983045
0.0592774020412599
0.0863707389355021
0.0718005831842004
0.086889874833426
0.0719826359860533
0.0826087615235674
0.0615287483377375
0.0806327206629294
0.0632623515950055
0.07420021689029
0.0632725779657148
0.0830391727507468
0.0661003490912891
0.0772445751689963
0.0748686099701113
0.101997380739692
0.0703980899778354
0.0907356336846113
0.0724321818314551
0.0850393843261782
0.0735921417908511
0.0839792389882542
0.081619313764799
0.088030650094437
0.0688594629328502
0.0816910711868844
0.0649762892621813
0.0760688918891133
0.0620609698766053
0.0749873911547148
0.0619242283630061
0.0864287983432425
0.0655001900855308
0.100924974525424
0.0751013247033069
0.0905903314882859
0.0691756612495317
0.0827588425109418
0.05481684746449
0.0763041978093305
0.0681037889780256
0.0988433150279734
0.075033155812765
0.0892858266418905
0.0619413409526483
0.0686742442790696
0.0693809999319789
0.0953259031181069
0.0500860740275887
0.100806791195439
0.0846313639448227
0.0825097003580683
0.0632632514405383
0.0739911321575327
0.0591738935027947
0.0809912290574263
0.0568080925804672
0.0756716857645107
0.0607406886962544
0.0779695519897324
0.0521051072970849
0.0935630806541437
0.0744305183030137
0.112943665635094
0.103368045779096
0.0783038366085114
0.123145620817338
0.0957263269827307
0.0637162950558752
0.121185709083172
0.0807226287199548
0.0885036880671145
0.0567463173377597
0.0785607395703576
0.0590494093817568
0.0937405343434592
0.0435952529410194
0.114005212693596
0.0855134282681075
0.0866418441198289
0.0634350719227823
0.0816457296464264
0.0603652715116248
0.123129576499697
0.0950527979363135
0.0856861405611122
0.0713217288783748
0.0785412499841716
0.0571194634970356
0.125855144351265
0.089945118879331
0.0745604236005477
0.06669840149503
0.07693403364664
0.0466160527512782
0.0914251577948933
0.0931862720634147
0.0854028189660362
0.0773668365807093
0.0742676159392019
0.0984671960919812
0.128178555236058
0.0742536375071992
0.0804632433603957
0.0518478876443497
0.0974295348808509
0.0878366824723658
0.0856326530112809
0.0692169602667786
0.102206920678739
0.0680269915669865
0.0757115262616435
0.0578869735813865
0.0802002184103408
0.0801712554802592
0.0856881738763464
0.0282961486443186
0.174213430446506
0.118370739901982
0.127683668719651
0.118668876065699
0.0761440231606483
0.0754715088591831
0.0721802443188163
0.064964615158753
0.0645426281902727
0.0702013457998947
0.0696374202905534
0.0798054940561672
0.0940586049086945
0.0636226915522756
0.0970813932413523
0.0949005314473472
0.0846194217237669
0.0670124803532433
0.139462381941172
0.0732786253370018
0.0874137717640401
0.100549737490316
0.088024692723999
0.0555690332158402
0.089486406971112
0.0804789879359739
0.0765375948330277
0.070586102202471
0.0765137334399904
0.0723971142713093
0.098629638506092
0.0643409962762009
0.0750350672160693
0.067276509433326
0.0696518639450627
0.0808068422681362
0.131091832523986
0.0885726738876401
0.0776203081538445
0.0694802384527434
0.0495568098306672
0.107915001035687
0.0982807505176474
0.0604981323877641
0.0769650537952388
0.0499165796743507
0.0763208111777441
0.0580798815682581
0.0736484069941884
0.0532038221731849
0.0562334194922914
0.112810760012234
0.0877748533671494
0.0621125798685333
0.0670944483720661
0.0691940344078519
0.0740354672857073
0.118696339057638
0.101003194183857
0.0721659597749061
0.0718998391461203
0.0643317102892114
0.102650653020569
0.0788273166427361
0.0774868395822175
0.0592468522822643
0.0692111439914455
0.0572826476169076
0.0739122163523152
0.0598275860372405
0.0736047239545772
0.0589023073468153
0.0666455691146014
0.0599902064069309
0.0761393820175302
0.079825403310758
0.0763989822503715
0.0589844538424986
0.0769245325837858
0.0514968581111073
0.0908853509685731
0.0835194546099765
0.0737043894314895
0.0598392298192239
0.0686719404867908
0.0590127650776748
0.0661417419188093
0.062020685925285
0.0698033814003061
0.058108097161753
0.0745482164572718
0.106679005570709
0.0733099374727917
0.0637370527302687
0.0648217534068003
0.0928912721023787
0.0890567235536792
0.0701414239800893
0.0691594169250141
0.0597655455606642
0.0641584660732018
0.0751878820071915
0.10550148541981
0.0747840181658825
0.0641210518459148
0.0843270462001906
0.0854532408561349
0.066623420654481
0.0761454507967084
0.0538164243675802
0.16326389460309
0.0784725150898544
0.0961946896106133
0.14072462412621
0.0862033550592441
0.0691210046626613
0.0764765475913751
0.0338973233796805
0.231593383580431
0.11613670220168
0.0736865957965869
0.0649186980996171
0.0976955888140545
0.0574625408241971
0.0934386733652157
0.0716997584816268
0.0972763673545986
0.0911781947400263
0.124084420792038
0.125193970919733
0.055846565487595
0.105867678124291
0.0964193437438741
0.0701599022691126
0.0845010233280827
0.0675259090847635
0.0748378375972022
0.0917172375051422
0.0902906254042092
0.0822127349520925
0.085942248930235
0.0640190459872918
0.103292408075789
0.0748896499317742
0.0700130479105745
0.0703833223275013
0.094659615704793
0.0618617017441102
0.0741114189445679
0.0605634226365107
0.0897048219986161
0.0619325442059729
0.0881593938673692
0.122557878193079
0.0858003330384299
0.0711368278344345
0.111889903234014
0.070237490927585
0.078904640719505
0.0558021053011799
0.081278276082685
0.0624169812124544
0.0754382758475886
0.0555021747536529
0.114624978485553
0.0665440135078555
0.0795589653218334
0.0628862874729438
0.0725000834032124
0.0677430780600669
0.0779841121724148
0.0633735677509527
0.0741644201768896
0.0696254996484182
0.0743259734614257
0.083824173497439
0.119033389205649
0.0427402268470995
0.125178566351089
0.0991237996155825
0.0772476273916574
0.0667971521260066
0.0757395656120298
0.0750472691388615
0.0707016494716152
0.0722363788903948
0.075685373227674
0.0724894282318465
0.091577373363856
0.0819110900933918
0.0838240945502212
0.0838700620835384
0.146855116392934
0.133799644488311
0.0939413561170658
0.0874821813687973
0.0583635331044815
0.113836711649427
0.104963438281105
0.0946430721983241
0.112834076115698
0.0573624660967092
0.0907311834759264
0.0717788661718653
0.0923296263647339
0.0727502192551933
0.0962646991356732
0.0645143579354889
0.085637918099295
0.0715241525021396
0.0955150908894184
0.0703688795888309
0.0938655142451545
0.108463565664767
0.0930879368623211
0.073758581912076
0.0977751621908256
0.0658231532341367
0.129485469331367
0.105889547194796
0.161442929702432
0.116545985159135
0.140159022423967
0.132428586614548
0.0940190176169033
0.093357556767612
0.0852471856412425
0.0897102722268398
0.104956065666468
0.0937050697397551
0.105785306054383
0.0904825331093352
0.102561516483903
0.0980622844945565
0.0925530554227976
0.0981919079311691
0.098672945277057
0.122554617185031
0.102479443363048
0.103766434214779
0.0980480742472686
0.1184880568696
0.171739991736613
0.156240650172181
0.125750891932275
0.123671619454391
0.122177297480363
0.0951445286223878
0.123419774451563
0.103400642284253
0.126528396950646
0.107761123791982
0.164811952030577
0.136834031190132
0.157112487644367
0.141478981940729
0.112153459727465
0.145822215605125
0.132438849572829
0.146622585620883
0.170230266156946
0.125713047098115
0.11813463159699
0.146208991783103
0.157252759992789
0.143494668378848
0.169079659869458
0.123105789577451
0.152330114893406
0.128760950715678
0.156111255524004
0.137525671548409
0.15219774739672
0.138492519882538
0.161246686861866
0.143736225650986
0.160431548577146
0.141398267943164
0.185163359770815
0.145820890563781
0.157414707706755
0.170722015549128
0.16537676710386
0.15153963800516
0.150223358771411
0.189573076591885
0.189110967442435
0.177446941773767
0.211884979518526
0.157840650969874
0.194793696201522
0.170147221329599
0.186429822283217
0.165891493049137
0.189015871795899
0.177121110641901
0.193628020880742
0.168703493002464
0.197729141714839
0.180838079917173
0.211114873623112
0.19684332977484
0.210157142845558
0.197697880346876
0.216172379704086
0.207567840379227
0.218352779429923
0.223042576517218
0.273986124002347
0.21937635532832
0.260610758817945
0.210997026546534
0.248004165967392
0.218156672430865
0.249658773196973
0.220612638410549
0.268337811847029
0.227845504190232
0.251204116788059
0.243578141413851
0.260587186586033
0.245004611718971
0.279945400481565
0.240298849562795
0.275310290626209
0.259099252228253
0.276044653246081
0.256323730445012
0.275060570525258
0.273088228729777
0.297912411872888
0.269075149926021
0.305666714114525
0.281036613309253
0.297887525373102
0.290228440809988
0.310842787223077
0.273522844112424
0.309852778445342
0.290176886707886
0.324927751116667
0.3129096197447
0.318274278212954
0.316985500971639
0.324693981331823
0.304056844299981
0.333403670120648
0.317341713539404
0.334359089839185
0.34083046626497
0.352790871232359
0.332046447619844
0.35767481507284
0.343469594286927
0.365035151405024
0.339383046582204
0.374577095675229
0.357698859752257
0.37736823041617
0.349615245556555
0.388304534543312
0.364497931381587
0.383925136684452
0.352600789048318
0.403396270965285
0.361727455502224
0.404765714678892
0.389901972456746
0.420304827189956
0.387200270080856
0.440881059708405
0.401575307616011
0.407839168893591
0.391968278782117
0.446896037639625
0.402978851926367
0.438359365708919
0.413928434255028
0.461582288130039
0.423230049116922
0.452921665872079
0.431807868363647
0.458072398818548
0.43169344079333
0.473385663113376
0.460741762164652
0.463666454524663
0.448099809451256
0.4978658575963
0.453394077944901
0.508682917928647
0.493798077692276
0.513541992651133
0.477980658920046
0.49838600806139
0.481079765602446
0.515765626255166
0.484830325883707
0.531772789529804
0.495996851375145
0.516807149168709
0.474668476865441
0.52615608073012
0.507445333403466
0.566329000628292
0.534707981771756
0.544071739337032
0.543259039061329
0.565738284591204
0.521047420201151
0.543049175342326
0.548365180881218
0.545901418439291
0.531127723664079
0.575872963947423
0.538479996591547
0.579747557574421
0.542955438453325
0.58047485701954
0.568867935369942
0.601436471708043
0.591565145788858
0.587801616936484
0.593809334757504
0.600965687481836
0.585736127531108
0.639518119509625
0.602055321373152
0.625044761433003
0.608290863305769
0.641881320115161
0.618878013005137
0.633725563322776
0.604582862078048
0.611480594552087
0.588584099314766
0.645298273093983
0.641435456422035
0.655406554189057
0.634427179388678
0.660012278114845
0.636652401687509
0.661980159653262
0.62804080911662
0.635122574232545
0.656369696181774
0.674777380702616
0.634896903483308
0.685129565070221
0.65748553162875
0.692623677862541
0.684445811384163
0.725929133548964
0.685444804088327
0.686206456007465
0.666593557506724
0.722589387631891
0.67074498207791
0.731881331637207
0.679669643345746
0.722424410695823
0.675871469709014
0.722937525426793
0.682608249338056
0.706450749784402
0.691833857268792
0.727621767665019
0.713039110314539
0.752006302224914
0.719566326175303
0.733662821799816
0.716638803673636
0.743359199628091
0.701491728575978
0.759239964323546
0.737570395620708
0.765375278965686
0.737592214476613
0.761659974262226
0.748363545349188
0.762062142782973
0.734928669823377
0.781197997796934
0.712619724646331
0.78327270260739
0.707288143962729
0.744139031880674
0.74434027820542
0.760474200095869
0.755222905156456
0.817986939828808
0.774683571948721
0.804394091052902
0.755454963012361
0.780761851255061
0.729866810959691
0.79092946861974
0.781119537690477
0.799693489620467
0.765226976416779
0.793968301221205
0.769910884010434
0.826222857866702
0.804836324385599
0.805189823157121
0.792286599798034
0.776778189429902
0.780847221656119
0.808220174632512
0.765891544184457
0.798333048668553
0.805649269381193
0.847743080620962
0.798515235353921
0.798681264403482
0.773238552298196
0.804492315570179
0.797616876667412
0.836705534687763
0.800313548050464
0.794784738482137
0.796396417520138
0.809694199900968
0.82198603412203
0.846574402588358
0.821743684960463
0.825356284847132
0.796166231384161
0.809757821249307
0.793997966812297
0.83869687227533
0.813718399018617
0.819909185818908
0.796091998242628
0.832412988567255
0.806397986132637
0.850196443192262
0.822943257905214
0.802453134308073
0.778666492067317
0.824824185172734
0.820762508616661
0.854174673527492
0.854787617942081
0.851426953318311
0.831779131992423
0.860997857412593
0.82760380530789
0.853091465550994
0.796419673891895
0.856106805935268
0.804860176043932
0.841284393153452
0.827886105534949
0.834585761134147
0.798012997047459
0.869929704455266
0.843880540730677
0.843188972960105
0.835060076295463
0.854281350087918
0.78877253062829
0.803678992479217
0.805983195156137
0.836279809926334
0.820179427535888
0.832322410460143
0.800275418914782
0.80095145669717
0.813402455792126
0.857804939663796
0.779687411178368
0.811147269011934
0.81343640008454
0.818000343451187
0.799458578777899
0.838309760181623
0.811477505828543
0.818804792078204
0.810338437505874
0.837548221856611
0.836705384937635
0.838664223057389
0.808875069885601
0.837700531483963
0.792617572648589
0.810712244207685
0.786990285345735
0.803783335723725
0.79240776839628
0.815976746272705
0.81292769782576
0.822349407376964
0.830055640692755
0.827641679875872
0.808962925664107
0.816168697497468
0.77341959252417
0.806129561687587
0.797480015000865
0.817899817934265
0.79193399170475
0.80511691426437
0.781771234630888
0.823319074975188
0.780608656736143
0.806851119739679
0.793385086381615
0.799684085268594
0.792731538304517
0.799047150797038
0.774873890971604
0.822173797770466
0.788825796809732
0.791954052849938
0.795167288010809
0.770864703291785
0.756335110412933
0.793638789476992
0.787750936413307
0.778106011951231
0.760753857872631
0.773396022626839
0.758814985979079
0.782198683718849
0.770667506003359
0.768067268681074
0.771664246440226
0.780682566430568
0.763483070245026
0.779567081299305
0.753155307882581
0.77300602749968
0.750964311882406
0.766648489519451
0.750287444404306
0.73791278939202
0.736597768855188
0.771399131485072
0.741811175485477
0.749207004682462
0.742529617647551
0.758227836899027
0.733572912148398
0.731118902146162
0.748136451075766
0.740343053807422
0.721209323410759
0.735951929023869
0.697026828488717
0.728453866820718
0.711072015382053
0.734231397525376
0.716417937181775
0.705637051009075
0.685233853060029
0.700259701663194
0.70486005549846
0.707571242703949
0.682358411787497
0.698206803844991
0.690948857156956
0.68849713955657
0.691230127868829
0.702864090292076
0.687103174752655
0.689571995892516
0.672838356871255
0.668093711338566
0.676834689373437
0.695249310942307
0.670480814206314
0.671186741246355
0.669051023553739
0.66598691973029
0.648692511402858
0.666354569642951
0.655542192669066
0.658213369799401
0.662295564079191
0.659019215490498
0.67162196724157
0.659913070487186
0.648941426702105
0.651002702686422
0.624077667748946
0.646791554378998
0.643837346834911
0.649814787956443
0.620394293559201
0.633149644815771
0.623482152218065
0.618175995300908
0.613263947366382
0.61146147019778
0.594915335163848
0.600716227209186
0.601414491376689
0.613027835023488
0.610471673893893
0.617963661754703
0.602590196011238
0.599789440035883
0.585143362752425
0.58840432690243
0.585750201173202
0.60494412560166
0.593879468233405
0.587171669598591
0.568737597088444
0.5789285266627
0.573348598672655
0.565528215118746
0.563905124262054
0.56130060575464
0.561656269143377
0.569691898435791
0.549920748611872
0.558937482682027
0.546555780799568
0.552712699555561
0.543404651830106
0.544863631569935
0.543739965085363
0.551220492444502
0.534265947959479
0.530934118192298
0.522585408494001
0.518721515510281
0.523387197876933
0.534313633118943
0.512469799815929
0.524063211878505
0.516307392673968
0.521217582995415
0.505675710699078
0.50359189387112
0.510734294707227
0.504901014229971
0.496725812787586
0.496953240913472
0.500647814897318
0.498006349030888
0.489266491365073
0.495907687656573
0.486828775818225
0.487044696771601
0.473223122800981
0.473308192717524
0.478751346603311
0.4776228204753
0.459641573109011
0.471198975530102
0.465037710358501
0.466158448515199
0.458598543410826
0.470361379573579
0.453320126056722
0.454475074783535
0.446973799836827
0.443254020030255
0.435955471775409
0.440302175453144
0.43620712237008
0.434473518642427
0.438152691529586
0.432451013012362
0.42159432472429
0.431173455636033
0.423526100653392
0.42286914179822
0.41812552638949
0.426842981605789
0.414511711905484
0.417141469256087
0.412846174160747
0.40952716701745
0.409719332166115
0.412479469634158
0.399283697457503
0.406582493399299
0.391891933222819
0.394425738422285
0.390728972776609
0.394398010969674
0.388511311370491
0.387237704537247
0.386370907601702
0.387305419078475
0.382360012600397
0.386365007656098
0.379599820428893
0.383986464471019
0.36627100839072
0.375448428707822
0.373401577582506
0.365587372156859
0.367092239240404
0.367227914679604
0.355505640936013
0.361741727025797
0.357329850406581
0.348829682913834
0.350268430809592
0.356696852308023
0.346991330244176
0.346267105378146
0.349396808601506
0.343705639037642
0.340865284776431
0.347054975262264
0.343812360094249
0.345697240372442
0.343464374444434
0.335167320442555
0.332086265077611
0.335299629225826
0.328096400362103
0.331435918502848
0.329894115603052
0.324957597240691
0.322352217148276
0.329627179827494
0.321032053684446
0.323250156392973
0.314324215573294
0.313086710200814
0.313707467866676
0.317081592846095
0.306922916187549
0.308510839600071
0.304613722339473
0.307181159234857
0.301435375325384
0.311906550947315
0.297726652291505
0.302204645008611
0.301028108444288
0.298684025799964
0.298242532268882
0.297704842977619
0.28876409813364
0.292922391425071
0.285572717455582
0.283972797130539
0.286519397279477
0.289240754785433
0.286960199408253
0.286857197437925
0.27795964936659
0.276206338245563
0.281415637962291
0.279989523454427
0.272322058360135
0.27940527305612
0.277137412168735
0.277214095569094
0.268385206369726
0.273724005316637
0.263972513313127
0.267853650287963
0.267267899512316
0.263643258049719
0.262283119805939
0.267843713441511
0.263081401073291
0.257699387930121
0.252424946085567
0.254930325732922
0.250730675261575
0.259123099194402
0.253341046908484
0.247101336619916
0.242310533778152
0.255849896999359
0.250219266364057
0.248212086863263
0.24338144034778
0.244706509443724
0.245390227798706
0.239756590873853
0.232995612764071
0.239267018692792
0.239771752912618
0.241347100537985
0.23667359914169
0.235620029601776
0.232151651680532
0.236381886655283
0.2337040141861
0.232035238042312
0.225343700986935
0.231173361741556
0.230394157760558
0.224512616595395
0.218474764674892
0.222610239601809
0.224750033605231
0.225577757440124
0.2207792112559
0.222513550174136
0.219482082692455
0.219678195067064
0.218160161575527
0.216806558771068
0.220649500307057
0.22328868768521
0.215584417645633
0.221029659711942
0.216805360992799
0.215577058640962
0.217427378149069
0.208907569146139
0.21167783202193
0.215596943221838
0.211134886976397
0.216864754634731
0.217212023079074
0.218512679839567
0.212656299717242
0.212269871960161
0.212486273295091
0.217572801333614
0.210537115399172
0.210124994935275
0.209242514457856
0.214383334311405
0.217825147491252
0.220793084994243
0.216243149654496
0.219931778464043
0.217211945762499
0.221068876509301
0.211446533558435
0.216030368866972
0.219638152867478
0.222204159576128
0.220781380013922
0.225244961069281
0.227091324431294
0.229103894301052
0.225182252598778
0.229268154911135
0.230497597207039
0.231610976730337
0.231231818814976
0.236998635913689
0.235052792699283
0.24103212999451
0.242514775834789
0.240274132460159
0.24226542517957
0.244006728402453
0.24270644661852
0.248494789105691
0.248887753335805
0.249478007810357
0.250267462070725
0.254674714692559
0.257862858643527
0.260936341775279
0.258436371158293
0.261384927038478
0.262736431744218
0.263620935637066
0.262809211609021
0.264935576609207
0.268811611114124
0.2744863862496
0.27020858073193
0.266029389758322
0.270386699939287
0.27573399671132
0.277235571331314
0.281162079327203
0.275684068727062
0.289314030991326
0.288696795573948
0.283002647388985
0.291131558932855
0.2971588511716
0.294467076226111
0.294952347844414
0.300734126420959
0.296967869876509
0.308251909445442
0.310520916277022
0.306614508157446
0.315413479879387
0.31783246972282
0.314869090487824
0.318023379481125
0.320903753320247
0.317615330805897
0.317813449180788
0.310239205623354
0.313230766675424
0.314071961487958
0.326227380813495
0.320935409991445
0.319265108826581
0.314633631352613
0.312740074478424
0.31173631669902
0.318387855069872
0.312666151199538
0.315868472164509
0.315732172612144
0.311537610202524
0.314453733806054
0.313841277410839
0.308640500294418
0.310104047505094
0.307439573987468
0.311546206961734
0.305983244854598
0.311268340652611
0.309340324027728
0.305075502729107
0.311895838111048
0.308508776950735
0.302082925173323
0.308612982006533
0.298137936017316
0.313284108267589
0.314976920529796
0.305034854770779
0.307993820544235
0.307015207571269
0.304430424542184
0.30902551250101
0.3135968580191
0.307983514415411
0.306724042297513
0.309782331976149
0.30763339035311
0.303163743216873
0.305909049614105
0.309486790464484
0.305828431701983
0.309864198413529
0.303694529535517
0.300421290693093
0.307596054902898
0.305003069783736
0.301756517300098
0.301271138218993
0.298378967227581
0.302521273310791
0.301346090452654
0.298172576774645
0.295768793939578
0.295619333483224
0.285915089805115
0.293193306082849
0.289419639845032
0.287778873282302
0.284948771110303
0.28092055207232
0.284136799842982
0.279296937580921
0.277492687728511
0.27785451861473
0.277377377503479
0.26990146095972
0.274590042518653
0.266595629052475
0.264018476215767
0.261124823011787
0.257782281667625
0.256986089498116
0.253620779591455
0.255720867931883
0.253097895432919
0.251600031049133
0.245091544211296
0.243489293605624
0.243041014288385
0.244233800886981
0.234221177964482
0.231662928011728
0.229509737846114
0.233927905542788
0.230853743866546
0.224886240495156
0.229061743786065
0.221303906750729
0.223803377718998
0.220254962024074
0.218295867092329
0.218069150667085
0.217138218310977
0.211382337520734
0.210496748383937
0.213874521598667
0.209608021569105
0.205552495714278
0.206596956507808
0.209479137351234
0.206288031640193
0.206634428802185
0.20481917425229
0.200408918479407
0.198945162897269
0.196137012682781
0.198523626225016
0.197614917430629
0.196960122657444
0.194948121141071
0.191027862930629
0.192105462385591
0.190023006434316
0.193316841368367
0.195893613908753
0.188880302155346
0.185139334365855
0.188632010302273
0.182017047755632
0.187174588440301
0.186712907724559
0.184916940547358
0.178336422139744
0.179309787511831
0.177294110312452
0.176578011868696
0.178549227746649
0.17926512313975
0.175425808174869
0.173035829941109
0.172384284780263
0.17657292833137
0.16779166364485
0.175187815705725
0.168395207750648
0.172393222319128
0.165069934966162
0.172266293653433
0.167848575019622
0.162452014741056
0.1649188523983
0.167662173330279
0.162851000463616
0.161663302897689
0.165844719457827
0.165939841759653
0.160479168427737
0.165049415950956
0.161429346131349
0.160714325583882
0.162193894688822
0.16273865744189
0.159371307217541
0.161502882458947
0.15873203236823
0.157532398807446
0.160120727651985
0.159186162665833
0.153435675167545
0.155996753743106
0.157636164122744
0.156908579843514
0.152291559866687
0.153798623180995
0.157788810444324
0.155895566384757
0.153781710402897
0.151876853103689
0.149119858451183
0.149525628079991
0.152751587477849
0.149675723414962
0.153480636788811
0.152617250688234
0.150980753306573
0.148132262479606
0.14402227120937
0.15088845221977
0.14939708322646
0.146535658474969
0.146998758635958
0.146099818089914
0.144058807021198
0.144445030187208
0.142625745776324
0.144736627758895
0.142359020635655
0.144220592426124
0.142972830747802
0.141584488457479
0.140594226618155
0.140267847976892
0.139623725728618
0.143836180142063
0.139923555212109
0.144405116399326
0.143037688247245
0.141549240631886
0.141203401480631
0.140561693498121
0.142628263828066
0.136600657795765
0.139624217100469
0.136073336524866
0.138706397423799
0.136838201241325
0.135690040933558
0.138481597322016
0.135760687239824
0.143432280978001
0.13882509593009
0.139977054792595
0.142596554695498
0.141414971041207
0.139277715087443
0.138688674413858
0.137286574237597
0.137395018053354
0.134951257937348
0.139708096352462
0.134951020430263
0.133952617389948
0.134399237318128
0.136624271685356
0.137182179850791
0.133474671802163
0.136918332366139
0.133490646066073
0.132838765444041
0.136797253063084
0.134132546908385
0.132441707790391
0.133481727318687
0.132106378858554
0.12866750388595
0.131899902494908
0.135082069865668
0.133735771384028
0.130551391389073
0.131791282622845
0.126470996878622
0.125158673820814
0.127766674518859
0.133212754890467
0.126125180763587
0.127259474459812
0.127798366843866
0.124776377294974
0.125474259107682
0.127725068740965
0.123989498245978
0.12996542305382
0.123436078700761
0.125390815266235
0.122350008643615
0.121374563828796
0.120300043906626
0.126926798401768
0.126473711540666
0.124374818207775
0.124370502174892
0.119239913316645
0.120056700839743
0.120952534220511
0.121772162999647
0.123260057252862
0.120432302575488
0.122382097008465
0.118929898271425
0.119455513880052
0.116599384790944
0.121194237509795
0.11754707661016
0.120401604069986
0.116114793316161
0.114575339647734
0.113944261478283
0.119000223547814
0.112912923934407
0.119016590127001
0.11470568507594
0.115846096627202
0.113576038245849
0.113170377934083
0.116349168451566
0.116534227781539
0.118784304355717
0.109782822533538
0.114650348834735
0.112196299902374
0.113246022966017
0.108330129520026
0.111949551290308
0.110876683599353
0.107918237787666
0.110981765971739
0.109392574695232
0.107367711258193
0.106839316466118
0.108421969384596
0.106157503611638
0.105872065848795
0.105771537194777
0.105664135658039
0.104681203720151
0.102747444824842
0.104420691508491
0.102352593003625
0.102048389781956
0.10212243582817
0.0986242702232333
0.104039069883703
0.101597646876396
0.0999344296958772
0.100451214919238
0.103642814040601
0.0991229830388875
0.0963300858749712
0.097363328693667
0.0960509021863374
0.0971065053932096
0.0994797099562481
0.0968710074066958
0.0971400473622994
0.100265620511681
0.0924080120741253
0.0953725716541347
0.0936315878543221
0.0921204799300083
0.0988036917486471
0.0955200992855593
0.0928007272050398
0.0923751733647285
0.092531862534383
0.0936649027548113
0.0939232494817295
0.0891653841856774
0.0948304339550229
0.0928273674864577
0.0920109892565734
0.0945651576485695
0.087049051482904
0.0886742151256494
0.0916547781479269
0.0901759179639887
0.0936950326167443
0.0870583203080623
0.0886548081130244
0.090999379108845
0.0881231562371004
0.0891274635244512
0.0898965704129967
0.0882311516061439
0.0929341139293274
0.0862620495246799
0.090522026103113
0.0875695367605095
0.0857538929909119
0.0868039877112896
0.0888214895761693
0.0833993431635234
0.0868071387896205
0.0851435421085282
0.0848786123127452
0.085987622027838
0.0835478574083113
0.0814550656063841
0.0817570615456051
0.0835444334755162
0.0815835479302384
0.0796255904261743
0.0842315758726868
0.0834242698968898
0.0816217415475611
0.0817963792891834
0.0822425688570362
0.0821600229214068
0.0803337129215459
0.0805217325337729
0.0831483316709159
0.0834712771546128
0.0824970264237032
0.0790588582149617
0.0823220243491104
0.0848592981011615
0.0820176429799056
0.0780972024640066
0.0821664020995588
0.0813091249592904
0.0806785991073155
0.0825630090469543
0.0835990189591938
0.0805695778173331
0.0753850678298262
0.0768785972705982
0.080388429440395
0.0801251561772226
0.079799866422281
0.0751501695845712
0.0815014207366435
0.0792069457476877
0.0793879451574504
0.0760841052280434
0.0789927369344376
0.0765427684957899
0.0778759547792333
0.0776674686158145
0.077342542539059
0.0772162217952551
0.0782360640933544
0.0757874071955357
0.0765257087126208
0.0780955163510093
0.0756610421043881
0.0753898282933579
0.0761323033069814
0.0782253946629458
0.076288545755587
0.0736014495248865
0.0791305482360253
0.0737804559920559
0.0775458340520697
0.0763600945430312
0.0749970880180425
0.0747405291681852
0.0764366279671274
0.0695491397947905
0.076920841257459
0.0762209475261504
0.0741582621388939
0.0710223041746755
0.0742496344292326
0.0697456207236522
0.0735944653852047
0.072730319299221
0.0724611080136873
0.0720704251179636
0.0717190882259101
0.0725142805691329
0.072906506363932
0.0713773303846947
0.0720749594176223
0.0705468611212571
0.069400765606009
0.0699654918195311
0.068819283026224
0.070313598374645
0.0735323658528486
0.0661761645341144
0.0715694534873231
0.0688742255826124
0.0706028963861493
0.0717992479112341
0.0720096599252734
0.0676173770966114
0.0690957233461684
0.0688583902961217
0.0685654948725469
0.0693696696536305
0.0700759971593917
0.0703869000984503
0.0705287123465994
0.0685743130312904
0.0667556972193993
0.0703252609231838
0.067499310699488
0.0674902542449602
0.0667999400109352
0.0677751393389902
0.0682139376417003
0.0662368972343161
0.0681553489437559
0.0652474548119565
0.0663296719503791
0.06720537917819
0.0677486289202482
0.0678119384432626
0.0670179301705406
0.0673247630812952
0.0689985423361106
0.0632239033739558
0.0640858919707289
0.065705302421518
0.0637610509864999
0.0613673122620939
0.0642362872597527
0.0629130172836713
0.065962944990005
0.0600446607117474
0.0646653586032554
0.0631083371128967
0.0610262306632225
0.0619986099551384
0.063328733258344
0.0584312687888666
0.0609037012670364
0.056635697976294
0.0618559402603294
0.0611640115853064
0.0612957353169286
0.0574570112185022
0.058911807036292
0.0565087314437367
0.0601005099060215
0.0583675917861193
0.0606077081374649
0.0602347239022672
0.062934907620552
0.0595589441960077
0.0592587200536766
0.0570170126284769
0.0614194345171316
0.0587451402942382
0.0585774945371324
0.0552178753421099
0.0582012300734867
0.0545427064395561
0.0578023332329639
0.0560637548144511
0.0571205538951069
0.0559777842389782
0.0575505516363862
0.0561307044381288
0.0568469751812978
0.0555274687467488
0.0595050555225571
0.052774000920432
0.0601659054866515
0.0549483191277583
0.0555632312865838
0.0525449359290039
0.0542107232916699
0.0529648532552752
0.0556979657893519
0.0540969049029454
0.0543084936451305
0.0517030869998623
0.0543251705883042
0.0527732095075439
0.0563471633031818
0.0501908938794988
0.0539250800494951
0.0490578915575914
0.0525923986731094
0.0504095426908963
0.0532586775783347
0.0534026387423556
0.0530900458908729
0.0498474433196602
0.0514924373483278
0.0476653077897597
0.0541893214625126
0.0480739193380752
0.0518045210533514
0.0472695870353061
0.0510474555168001
0.0491352131612672
0.0515862679660181
0.0459264951020524
0.0502254890219907
0.0515569234240099
0.0519859820400729
0.0491762491694457
0.0506623366648093
0.0486354821418159
0.0503578158887298
0.0433097920439225
0.0486274402314903
0.04673359494316
0.0481731864988829
0.0465075506554666
0.0489876192894347
0.0458860335611399
0.0513868077460132
0.0464341978459789
0.0488040077864719
0.0483628317495717
0.0514530433968093
0.0477098946870572
0.0528518056576857
0.0484236097039117
0.0521441267121635
0.0486214622906834
0.0551120479523898
0.0500498811133736
0.0550783246002424
0.0527207866754953
0.0556052409960205
0.0540451581155308
0.0585542730406658
0.0590466675334811
0.0592434259304377
0.054137598535173
0.0604228105087055
0.0519149019982077
0.0584777754824874
0.0450428352640067
0.0504764594864675
0.053019088710586
0.0662042029644
0.0500959470688638
0.0537898843791259
0.0471616806662892
0.0569755424973896
0.0481238373441855
0.058849603129883
0.0446359755652966
0.0635960329371889
0.0546286491001531
0.0546269938315608
0.0435561845113942
0.055274377182057
0.0416485505042333
0.0639695075700167
0.0444075489204925
0.060928943714986
0.0488133195805379
0.0604735731644575
0.0378087111487608
0.06184993709602
0.0419766374149304
0.0631269025804017
0.0433927682751472
0.0583369577760393
0.0366515080750077
0.05927174339151
0.0337012714845381
0.0659863243777729
0.0363105246746034
0.0643741853003885
0.0375898287522475
0.0664608716355351
0.0365286129121865
0.0628003306233025
0.0323286570553786
0.0642426379335058
0.0400085549305179
0.066938031786945
0.0439856347407602
0.0609660615546661
0.0421048001096367
0.0514548717110433
0.0545773114434289
0.0539416075501372
0.0489608975917227
0.034959461315396
0.0649016067228476
0.0424151175706097
0.0675847525887987
0.022504977576187
0.0795150486750855
0.0235021016216631
0.0755432369082992
0.0200037159022577
0.0816579704663262
0.0197663876909365
0.0756266051614628
0.031989648524446
0.0613934290782452
0.0388774797945447
0.0573149398724404
0.0448141139150623
0.0475452294759978
0.0483049058647866
0.0438904385943613
0.0477070708706213
0.0463049111068299
0.0442946335827995
0.0433189817630346
0.0420370424238698
0.0508684118051405
0.0375324757508127
0.0487558923708808
0.0380894924569946
0.0449379449590929
0.0392590449693178
0.0419943830847288
0.0408926682333096
0.043081259536316
0.0383333767920159
0.0414447338252889
0.0377654722282708
0.0429521488880475
0.0354633051339911
0.0414590703937981
0.0368886702644056
0.0394568329177418
0.0373146992807837
0.0403975491047748
0.0367876159395297
0.042247018933809
0.039874482981101
0.0427002466941454
0.0366378438385286
0.0376053773258442
0.0390366528352524
0.0401484405416656
0.0386232657116315
0.0408572821251806
0.0385278338512643
0.0403145481991506
0.0385684620320266
0.0407494679267106
0.0383821757076834
0.0407192375086337
0.0375942666670342
0.0396983401774989
0.0361993947854305
0.039929609125411
0.0354372809020371
0.0391242775010145
0.0366241842775197
0.0418087124854635
0.037288219965311
0.0401581124409262
0.0390118305826692
0.0390943413127409
0.038519000282651
0.0415132635727831
0.0383008363063882
0.0414116823458671
0.0380342665667903
0.0381883110557537
0.0381736540077531
0.0382131267453856
0.0372214601272766
0.0393423226584057
0.0384682708143143
0.0412372078079388
0.0376547765188049
0.0386197077985733
0.0365352824490257
0.0375011599046765
0.0368879251463838
0.0372092896721575
0.0374600689177303
0.0354704169153573
0.0393130810928659
0.0377698949759326
0.0372282329933616
0.0370897482817337
0.0363653962300943
0.0383403358738032
0.0378442906600832
0.0386988939818145
0.0393638627857103
0.0399500666987911
0.0351421733156703
0.0372384739659425
0.0396684086027444
0.0389045137476883
0.0376690649371457
0.0382470280169406
0.0395423430199928
0.0345457332809115
0.0371630213469413
0.0393949678990248
0.0363547591061282
0.0380411969134085
0.0375675602695718
0.0380843997650969
0.0399130229581973
0.038911935903552
0.0377803648342391
0.0370233605684892
0.0379410948710514
0.0386477851982739
0.0395559466855628
0.0395179524623051
0.0392288134663282
0.0384680558556574
0.0371050558777612
0.036582191885231
0.0380471352196571
0.0369346284152293
0.0370834707002461
0.038203428693631
0.0403514673620373
0.0404139158691338
0.0366806649610775
0.039011030449792
0.0381999993617673
0.0385554978464683
0.0386981993049751
0.0386267774787713
0.0373085949352599
0.0354472357968533
0.0371877902379455
0.0391514744824205
0.0375294738013543
0.0381589747752962
0.0378310862141495
0.0407633546858265
0.0373798359675186
0.0389399884987538
0.0370482534246149
0.0383610392026697
0.0371966200902416
0.0381862797674799
0.0383823274216019
0.0372336307874642
0.0378860868643339
0.0390225382544936
0.0372312691352623
0.0357045744422795
0.0374184589035994
0.0392143481200123
0.0363352205082397
0.038157843314663
0.0382865707099922
0.0396454946778879
0.0389971502905956
0.0364109841958553
0.0394982688016943
0.0382795710325058
0.0395224313357002
0.040468749612579
0.0391270751447415
0.0378049401190866
0.0416602735346578
0.0345766458934907
0.0399153744864915
0.0407988221519119
0.038582612426168
0.0374609728789538
0.0398472132636346
0.0378823897537194
0.0382162856168514
0.0392372322213817
0.0404380010746166
0.038326652097939
0.0396326240051459
0.0371004391795997
0.0394805242391597
0.0376754533415335
0.0376431929452931
0.0392660215641675
0.0401563126730851
0.0390430543704379
0.0369050563436273
0.0391677833275022
0.041244779891597
0.0385947542708551
0.0354852681061871
0.0370746616883445
0.0361331015858231
0.0372227593145916
0.0388747232406703
0.037254967548713
0.0337261695537478
0.0369424244807623
0.0354856411430607
0.0317682724865808
0.0374182738601908
0.0373512845166841
0.0389360328495694
0.0350757898768012
0.0396230575782923
0.0369886490521787
0.0382371041908594
0.0369562566818697
0.0368503273585263
0.0368031757962632
0.0373157515937657
0.0362873767869618
0.036535390288871
0.0336867481298195
0.0352766827516355
0.038279624061648
0.0374759193741375
0.0357813828309253
0.0348812601309737
0.0356281218304089
0.0384857718138263
0.0347201116717177
0.0360829587481334
0.037381720064178
0.0357586640303034
0.0358930996362216
0.037723734384184
0.0366478230296139
0.0368465641720563
0.0338586397839563
0.035521621694414
0.0337021633957104
0.0344655697146702
0.0367867366147517
0.0364916360294391
0.0358021398841626
0.0369381206783548
0.0359364111667689
0.0363815514115482
0.0340941756893013
0.0348241300853202
0.0351911326641102
0.0369920940089627
0.0352318514463274
0.0360182646476902
0.0371392123815672
0.036680408627099
0.0342907029852403
0.0351009675646043
0.0340322664147354
0.0363172120577114
0.0377841377908699
0.0367804511722623
0.0340170026485602
0.037409337891742
0.0357411946558207
0.0354190909436903
0.0360862631087994
0.035193154600493
0.0330110491327806
0.0371720369985914
0.035352851298154
0.0351059811436365
0.0333486099263522
0.0364013670956992
0.0348457107965
0.0355871056016739
0.0343041808435072
0.0350079112556874
0.0376228560718559
0.0388377739461937
0.0356108618776405
0.036827403763194
0.0329321572157905
0.0363721581278414
0.0343030003251262
0.0346984813620551
0.0365790466042555
0.0361269035695645
0.0361438100600894
0.0354855624611374
0.0358072536965891
0.0364513599061469
0.0358374107904109
0.0363339313843277
0.0345562512317928
0.0328847282982116
0.0316489285358127
0.0334580353365598
0.0320062029512233
0.0352941853501096
0.0344672434915819
0.0362617197740829
0.0343298906287563
0.0348618393860916
0.0366044578922172
0.036999248473095
0.0364295034898174
0.0357901237421259
0.0337193986840034
0.0352352792082628
0.0346895098663406
0.0342481166125818
0.0337944686905547
0.0350036540215014
0.0335345067213537
0.0339968111835155
0.0333798258215027
0.0320798792849822
0.0332383074448458
0.0305023298168477
0.0320277067879386
0.0335813065474467
0.0316862435810899
0.0311616509666463
0.0333643436729795
0.0327410112649185
0.0328861882183756
0.0320038270780582
0.0321876514096896
0.0357624399747451
0.0359645447305681
0.0350467369053821
0.0293089159768215
0.0340150512986473
0.0307822855848886
0.0341672757694646
0.0294432075336082
0.0318484413782015
0.0288843693348917
0.0335594914845297
0.030075127368916
0.0331003767189924
0.0302285992310775
0.0317421664779995
0.0319895687317486
0.033494054334978
0.0296780755224442
0.0341337215049434
0.029905748338024
0.0310685466967142
0.0283707589099188
0.0320199044682775
0.0299563191752138
0.0323631330684445
0.0281696832599925
0.0309652103654904
0.0352092699879757
0.0437381010910744
0.0319258204353455
0.0323940235188438
0.0331203044807087
0.0337159628720589
0.0300329076173748
0.030944645547338
0.0288992601150666
0.0304412098456839
0.029934867608893
0.0310046783943661
0.0284003255162167
0.0301014883610202
0.0291934749146557
0.0316189985046065
0.0306272621215488
0.0298496364118245
0.0289314389779158
0.031947845414593
0.0313092309953282
0.030498858268788
0.0295903993722701
0.0311356158143689
0.0278132957754417
0.029230640319283
0.0306073348002048
0.0359161794343526
0.035144319739118
0.0308382316474252
0.0300466215840041
0.0290112617683273
0.0286148417748943
0.0279609079062857
0.0315943351084737
0.0300763824219893
0.0296702346563237
0.0293367722991771
0.0272069796375085
0.0299484466695157
0.0288933753795011
0.0287768629131738
0.0282525006349826
0.0303203063615758
0.0275480628664553
0.0287904915120409
0.0294622295980645
0.0290097306716733
0.025990926749137
0.027042158457156
0.0314428144969075
0.0292965958544171
0.0305953413461386
0.0339104850052688
0.047689056274669
0.0338747104947586
0.0248324701990411
0.0316544702840621
0.0263022653539945
0.0306906107673943
0.0268774222829592
0.0265163768513424
0.0269898083801081
0.0314866984016478
0.0272087519877542
0.0280990612829814
0.0267878290147237
0.0295635981032499
0.0274377994450695
0.0295313718722494
0.0274898494501404
0.0311778336423776
0.0258246349365945
0.0294976188334208
0.0320520332353552
0.0414421128272456
0.0353986131130076
0.0274809361330186
0.0267763680988872
0.0317018942931528
0.0394024543205657
0.0457674311338764
0.0212170835666817
0.0327043363292517
0.0255796052323017
0.0328149283958368
0.0232291272569964
0.031100842942391
0.0265118394011821
0.0364441990991079
0.0278560289932403
0.0322926079348164
0.0286414117626852
0.0272707184837487
0.0287244595843365
0.0302311278378851
0.025591127816518
0.0297043364164385
0.0255706819413767
0.0268032187594785
0.0257563819510819
0.0306270274243983
0.0246779281071434
0.0308910924183645
0.0299557191804434
0.0382112162137369
0.0252248309682159
0.0297045489173395
0.0249235626283527
0.0313103192789864
0.0326147495418856
0.0397206833742424
0.03071259140531
0.028186262743318
0.0278765683950831
0.0259832643560778
0.0288354201208338
0.0288262783274279
0.0281097481971026
0.0290579724569434
0.0274632016759463
0.029873154748501
0.0285703677593253
0.0270064818624487
0.0264390926083052
0.0279484332061195
0.0282577423461066
0.0264736942258083
0.0279947801991296
0.0314651290790712
0.0264340436319737
0.0360853270806607
0.0368105312664859
0.0557139702083133
0.0376934470173704
0.0440906028065471
0.0291526515957481
0.0314676239585094
0.0267272192128976
0.0295074735592027
0.0263061661313221
0.0322095225931642
0.0269546776419829
0.0289207765758764
0.0286095771429389
0.0294392593800967
0.0239820526289743
0.0282045457629677
0.0262531098442225
0.0276395399116915
0.0265487311505406
0.0274743176723498
0.0261372584400052
0.0252671485473153
0.0274248143071056
0.0323940154475292
0.037864009910771
0.024861259826877
0.0424304512009717
0.0430115795074714
0.0629571846457095
0.0332771516087691
0.0357321917606308
0.0301936100481348
0.0274646590856998
0.0295848709804328
0.0309308200107696
0.0349552708842183
0.0304398544584306
0.0270284500858264
0.0267622960207272
0.0331611984667468
0.0277722760354656
0.0310378614167339
0.0419555183837849
0.0561761770535998
0.0430728252384425
0.0266731835126574
0.0309238892060782
0.0402588704686569
0.048442947938776
0.0384082129232983
0.0258987186960726
0.0352716725743002
0.0254947106297568
0.0311164344285583
0.0247660218335716
0.0321219109288499
0.0308770566439042
0.0343681130159941
0.0257540170614832
0.0303734571220459
0.0294460336988386
0.032874615273367
0.0342042371021692
0.0425963374765166
0.0396078844103272
0.0334948291081982
0.0292715175906576
0.0354123405350435
0.027965498498865
0.0325110525650423
0.0258201003416723
0.0327279004190904
0.0401647499900648
0.0466110957043449
0.0409924222272624
0.0480394706155468
0.0409127676014146
0.0329429071446302
0.0290306349022776
0.046155290674386
0.0304218228151869
0.0388169196061858
0.0314418567552815
0.063389790213061
0.054206275235133
0.0474931651287144
0.0402142938282532
0.0285138852782211
0.0354532622143386
0.0263890898642987
0.0402021204045266
0.0382563589874307
0.0464036347437279
0.0226730554677055
0.0386434960909266
0.0348694179918056
0.0497447220600675
0.0357583227166321
0.0385327565788244
0.0304665470614533
0.0394551628493616
0.0410377114471396
0.0416633341305144
0.0400811906738675
0.0586982751903131
0.074672434441283
0.0487941963666439
0.045660897960354
0.0421163569184552
0.0603385825649033
0.0481257114543447
0.0306063930727438
0.0396565339484973
0.0290241624044587
0.0374799146867973
0.0434782922365327
0.0608705890926929
0.0451044079472866
0.0330421714471515
0.0423224217516188
0.04160632762025
0.054365943513091
0.0531691727246228
0.0338845034934649
0.0417369184976487
0.0342213244241236
0.0513566242241574
0.0629464340525647
0.0719061452608961
0.0468521501045473
0.0740269332567543
0.062000246060604
0.0554999428262935
0.0507574592380834
0.0456672765381059
0.0596906431627757
0.0626052947771809
0.0461507764040416
0.0437906795110539
0.0582738291639642
0.0646872091020986
0.0548479666212116
0.0440409401025384
0.051345810280644
0.0444138216347129
0.0894479830358654
0.107102542893817
0.0792684455117047
0.0514622145767173
0.0609270787158141
0.0707575685109617
0.0606280188694756
0.0472742458945568
0.0504928074641925
0.0450473975908387
0.0443712732553472
0.0534184096244931
0.0570110700064001
0.0549314099888942
0.0520321230398998
0.0513303560229407
0.0530714731571743
0.0810794382804192
0.109519672221959
0.0881557403109032
0.0816043102345882
0.0763232389824692
0.0929779422787845
0.0655385803843944
0.0665419572939802
0.0555464884392664
0.0699350420262476
0.062957830601005
0.0619003588350664
0.0663953655187275
0.0810673206172113
0.0887938333574277
0.0862109180161405
0.0856552704607382
0.0762251249675452
0.0715142792847651
0.117937436107239
0.141515833058949
0.137364825700337
0.0749991721038279
0.110137446018646
0.0972453575149083
0.156023534191068
0.110745790647802
0.0956259421194214
0.0933176911463395
0.0989447769317075
0.102055597942343
0.113946178098151
0.117269271454071
0.131983165202829
0.110063044477383
0.12843372333125
0.123512432457304
0.217581682315878
0.180978385994844
0.157326959373553
0.137262048028863
0.161907519647569
0.151304195731628
0.150737550789988
0.142477367561623
0.155986926221835
0.165036041201786
0.200729460721685
0.179199562577773
0.164306609538541
0.187637911234469
0.187413269777147
0.196985353002268
0.20074812338809
0.226440677418688
0.190667312884151
0.198718342707365
0.194788374643093
0.198335185835543
0.207977827949294
0.224511482166196
0.235030212021617
0.215100598372451
0.219102243377017
0.217122631799809
0.220448160336038
0.223536247850774
0.225457179817667
0.235424487843027
0.254116502540148
0.273557859912531
0.319881901692448
0.278655784097819
0.237190896676628
0.234926395724945
0.243809374598089
0.255595679008601
0.271051032144378
0.252555931195153
0.263876471243332
0.231808018313127
0.227218345940403
0.225827188440948
0.227822411373284
0.230709180146798
0.224258631502779
0.233014446740376
0.247654361251461
0.244900109252129
0.249569829053717
0.286365478580639
0.243204792831897
0.225970535025938
0.23005667537666
0.21965770846833
0.223514030403251
0.218660706438623
0.235886882026332
0.231226684215388
0.232025428458601
0.212094249891349
0.221600123566455
0.227139922600957
0.242939257104439
0.214182536512899
0.207852346067125
0.203053810335466
0.201873000638899
0.205220714428514
0.220021714492365
0.242911080988853
0.218075217867014
0.18913914386777
0.203697233730906
0.190513063194782
0.196105438060305
0.184404947023866
0.200673206985658
0.191451403631094
0.195030442490222
0.190437314252127
0.19405037007146
0.185202533097461
0.189883755286263
0.185504163152118
0.19827219854061
0.188956880120432
0.19467629816115
0.188969687600905
0.187719711946072
0.181994027757421
0.188080296268902
0.188917948051072
0.193062014352249
0.189754858034675
0.190259345868047
0.187337117537026
0.189986915492205
0.185388099737596
0.191366239786149
0.183474275850823
0.184500958246886
0.184422845166182
0.189385972510892
0.181348652975055
0.189279426350944
0.183060824431473
0.189601091261567
0.183525747372892
0.186752794543077
0.182725325596895
0.187651542253645
0.197107214454304
0.214439316785529
0.206996038643855
0.183957149024806
0.181838237331197
0.184589794774831
0.173363825394288
0.185587792600687
0.207744180917202
0.205685528958001
0.174685702708111
0.174115847682682
0.167523672090131
0.18677764045217
0.171382912727182
0.175005856867496
0.163835055135326
0.179418573749649
0.18608514511932
0.246674123008851
0.252160469265196
0.24826318655143
0.19091603417559
0.173639123048811
0.187056974035447
0.193245744660758
0.175900992984652
0.160319484000676
0.167285932223921
0.198957841251184
0.182037455919101
0.165142092796613
0.156753423261088
0.163949158535085
0.184005225568084
0.193142325462485
0.184195551564847
0.191423453845979
0.194464757937472
0.193651159004192
0.212013026032329
0.239684406791077
0.183355667984174
0.160310077770904
0.156402587017203
0.154811308811337
0.156315993044957
0.202057261667151
0.172835866234508
0.159427092365454
0.14565503261963
0.14618424367216
0.149212435393548
0.166213845975721
0.15403358520084
0.173555517070196
0.168763343579516
0.152663549090489
0.151847802870225
0.173059752466006
0.174834517078088
0.197581206332778
0.14855346909984
0.144545948457605
0.178130707650357
0.180533547440589
0.154228706550747
0.149466231397397
0.125584980938068
0.140830332812855
0.141483280571359
0.135215169285767
0.146934244479389
0.154330894236291
0.162142236682831
0.189987803433033
0.201012777962132
0.171917253279155
0.132173655623548
0.120680424269833
0.113872129471851
0.125093525451102
0.107603072532011
0.119755224400333
0.139429456749371
0.12979117596402
0.123428979018609
0.149600025495544
0.130602447368361
0.114460680115167
0.116152091428216
0.113837977321168
0.123842743180028
0.154077849312446
0.165453614664214
0.13897133632193
0.140827057786807
0.150365902293788
0.130676826319162
0.127401603301742
0.128700766797002
0.129764486173637
0.136156287218835
0.150355172445721
0.138184858287961
0.142673820628638
0.140498859724543
0.149769149241465
0.177448764646554
0.17587166883329
0.162703765790751
0.184746278833851
0.19753369293523
0.219836594750148
0.188472372673019
0.177738946354184
0.17670797645086
0.18208465301214
0.18253685852948
0.183589289866075
0.204449554452758
0.214076633900128
0.198880728917591
0.199119321702154
0.197685965207798
0.202089845182653
0.211742114529566
0.237531470996283
0.236945727417149
0.269719666561028
0.257590364708641
0.246192152939693
0.22557267688295
0.221965575652902
0.221648055058841
0.222831288330241
0.216905170548432
0.218778876157562
0.226039234297422
0.241881373806969
0.226187419462977
0.22865559662719
0.228783304246142
0.227794141161586
0.22219443314684
0.23469427269734
0.231327408744948
0.239194048563664
0.234753260065998
0.239451637476011
0.243917207523089
0.30127425916037
0.26362399526243
0.251302160209338
0.254312457881765
0.258940287220745
0.248628431398162
0.256542348273989
0.269606027935232
0.269939875950355
0.258287394667212
0.261374302979214
0.262279912218146
0.264937953841108
0.281716299849947
0.285120773975524
0.273770472566034
0.275699518159025
0.270384410509612
0.316593356055749
0.309362312774991
0.308568731109077
0.296631005661805
0.293976198541352
0.280913515196281
0.286580778961158
0.280523144908116
0.287971117544671
0.289954201690875
0.289289110833579
0.28346416640562
0.285164434774072
0.28510644127167
0.281973629273119
0.287175263181872
0.310827299424824
0.289475709427524
0.287531978379152
0.280583220678002
0.284253571576042
0.284081576156156
0.308457007180962
0.293907726025974
0.296074585593927
0.289335949694549
0.301707968713689
0.301557052120631
0.296687814784934
0.280468190828539
0.282503658821275
0.275782356644285
0.282651933960129
0.273815865009647
0.302258173893107
0.310635013770955
0.294063683453341
0.283697345164785
0.284643488643804
0.279480476725896
0.287524567187987
0.283742570965311
0.284101540364002
0.283582808295718
0.289378987362379
0.290594233214564
0.290378547365925
0.287173127201179
0.295401974585563
0.309294379087027
0.299876621518491
0.285062138255072
0.282287611197706
0.277693008711653
0.279772895383953
0.2835049300809
0.280972602674699
0.267175798751928
0.273320339622818
0.260429451790249
0.276822909939324
0.287365894887136
0.272819839393936
0.27150389898724
0.25784568997598
0.250584734012131
0.253263002135525
0.248753890317006
0.249326223100175
0.248323339599754
0.248059029381494
0.24213649199038
0.246566833979901
0.240610638446551
0.241907169352946
0.239626704246695
0.242088232177488
0.23980288983513
0.23866552216313
0.23499507465334
0.240790183184853
0.236868735469478
0.240576425286701
0.232742974221896
0.236426251724584
0.246685990723219
0.253530573055611
0.253203452199333
0.244479466782319
0.239902782734444
0.233962750727003
0.231631456898225
0.236610905375906
0.233412695646379
0.237169429159914
0.229641008899772
0.233707564353787
0.231244624328249
0.232968732516563
0.229143688137654
0.233036853415541
0.229997573293544
0.23301584603126
0.228529202919608
0.234641936373014
0.230730936944289
0.233824396648997
0.231267276962189
0.238859423967263
0.230470231204989
0.236966937510849
0.229434823028128
0.232675509532602
0.231944074226371
0.233052328295798
0.231714923749966
0.232471441577769
0.227991048794432
0.229665046106997
0.227718175219199
0.234273677309421
0.228988862050187
0.229640261601126
0.226904901046305
0.227236513112888
0.223121088070901
0.224384438069907
0.221993290221074
0.223206312245391
0.215871416272088
0.218803538459325
0.214781665341231
0.218148724627886
0.210842220808821
0.210470557917814
0.209423195042792
0.207934945105689
0.202478395064616
0.204313464574589
0.203473225200732
0.202547221002313
0.20070137248748
0.202139799848175
0.19965879117815
0.197874435769104
0.194652812354233
0.199352140269257
0.195023605834734
0.197422398752218
0.194030004485297
0.197475725615761
0.193396829895614
0.199104667741633
0.196427306147595
0.197185034787197
0.194634368057265
0.199252515303325
0.195550201274794
0.202613152327455
0.204885998582239
0.201672338135327
0.201225671494365
0.203977086683638
0.201600043452308
0.20730431852513
0.207391672606413
0.204869280721711
0.207337288530126
0.20603644677692
0.208908984371322
0.210960170763282
0.210175668270327
0.21036065955295
0.208472845802464
0.211606751597184
0.206769703413587
0.21093913982007
0.211178568345297
0.21198213941828
0.20864657253729
0.208912157810527
0.208629071570884
0.209900468661348
0.206463377677766
0.206883409341149
0.205175418299504
0.204521679745828
0.20650608061822
0.207591972000531
0.205821325466821
0.203549894676038
0.202333532132771
0.205565907616513
0.20346324125526
0.203557878742261
0.20013447743377
0.201110205837046
0.201527525107342
0.201375627976839
0.197280951495405
0.199922925186847
0.196020455819994
0.198527181134282
0.196227514272303
0.195698036794872
0.198445672177722
0.195737052974858
0.193023923954633
0.195593944088297
0.195166957782969
0.195820440167972
0.192515776741887
0.190162147657812
0.190563178240772
0.190159771002828
0.186818035186586
0.187257642028487
0.185533065012333
0.186528667115713
0.183028456296863
0.181142376215691
0.181828860209098
0.179580147156762
0.17808533102526
0.177220726811688
0.175434515227189
0.177364527602353
0.172630239996242
0.174111639788706
0.173417968762028
0.174217342066759
0.172155459323888
0.171794193425215
0.170922429111252
0.168962001036536
0.170675690366435
0.170570731179855
0.168089689213623
0.16940548921288
0.165913394864228
0.16846587656064
0.166863288752723
0.165067881919537
0.162060973858446
0.163016669276023
0.160036212438277
0.158550583247032
0.155937109167967
0.15821337106828
0.155022107736614
0.155988403393948
0.15302068827803
0.157505795290933
0.156920824249798
0.159825589475174
0.163966210862105
0.16891292949038
0.171603150961075
0.178065196515174
0.184504034523956
0.193130762717075
0.199179750862398
0.209344168088743
0.216863702940215
0.227023555610069
0.2313455757215
0.248336370380255
0.252966809113036
0.262753973921924
0.270459633373587
0.280953183714769
0.288212959039314
0.297604237134457
0.301201201668346
0.310882260151383
0.318549675412843
0.32567958267948
0.329554034282569
0.341165278079834
0.344394694337386
0.352822704679562
0.356209866539923
0.359632034257635
0.361865076144426
0.372219013463763
0.37128033667919
0.377227226640125
0.379112004067239
0.380546221037609
0.379625596967338
0.383053903171813
0.385636276006587
0.38473869620363
0.387236293739955
0.385971759807257
0.388102333159962
0.386687767545412
0.387695853422665
0.390794286341263
0.389560855386835
0.390969671044259
0.391681890769623
0.397112111740112
0.397773528394775
0.401761155809663
0.404230112025902
0.407616629966704
0.408455539051587
0.412572958583908
0.415215954635806
0.421493688248503
0.425571043165288
0.43198255545124
0.43222509842205
0.439741038027686
0.442140945701004
0.450268334215946
0.457905278991676
0.462562606114783
0.470253216373587
0.473786774092715
0.482455140363987
0.489305648903323
0.49239200670934
0.495575705807535
0.499394990614252
0.499983262315086
0.504189899816232
0.50212642957171
0.503138459386005
0.498868579258205
0.500859614998216
0.499750135345391
0.49970068090441
0.496982079681977
0.497987299336722
0.503128313696688
0.508688108838135
0.506949387925693
0.511058275840039
0.521415850086683
0.52450381939856
0.536602820984136
0.545527626363574
0.549656709815128
0.559294498646101
0.572283384253788
0.575356147345794
0.58333323654908
0.599504923994978
0.60573396745545
0.617926542493249
0.624067887359721
0.634144170524687
0.652624356995046
0.652866439483382
0.670861383223559
0.67660414715997
0.686634398369172
0.698228578997942
0.717182747391921
0.725093790507917
0.740973006047001
0.744455890041055
0.75845828791501
0.772425372202693
0.79121111672839
0.781632614374555
0.798828294589549
0.810967069818139
0.823705874740903
0.820493400176087
0.82950707114279
0.838767685630193
0.840069918224424
0.839565686561305
0.851333576928609
0.840344694304623
0.850297654670654
0.841246019397895
0.846381459275471
0.844772528938773
0.831778697286036
0.831916257463254
0.83440120321009
0.822115951813005
0.827074819172139
0.8183471568634
0.823103804547395
0.816349851354545
0.819353176439143
0.827186829025268
0.823064370368315
0.83303987405885
0.847541350011484
0.847169479143846
0.845892366387889
0.864978439104533
0.865569882724023
0.873463787476442
0.87229674580411
0.87909211339062
0.873347182457826
0.871862673151251
0.884593007768289
0.871617164935646
0.877335661237739
0.896778001430197
0.88811752455822
0.876767886571589
0.884121647276983
0.874173473981931
0.881038544925411
0.862976219516569
0.875181076364185
0.902492446205783
0.894337346945757
0.861553218764373
0.862230283070336
0.852072227398516
0.834725027905571
0.84389750999972
0.829560038667665
0.81353142313644
0.818178882007023
0.825633866991665
0.801013551540037
0.788370630751404
0.783040511585913
0.776862171493144
0.764105589141725
0.750798717063365
0.734280769437366
0.725093416855548
0.707279570895944
0.687703780795362
0.673753984412829
0.64093521840398
0.630479526509082
0.595574263533737
0.57485602566142
0.550577343048405
0.529536509928215
0.508664631703325
0.490408239970745
0.470854027327148
0.454631054453808
0.448882099627079
0.435872296492366
0.425589855984018
0.427542092360621
0.421076130157259
0.411891826718976
0.411977181217849
0.406664706427104
0.403244267342786
0.390927263161323
0.391674886676536
0.383095209396879
0.384421154290271
0.380874866979837
0.370497420837859
0.364523650368083
0.358093381173486
0.344529279051809
0.336878955685294
0.329023896449787
0.322700961896545
0.312595978795468
0.297927397183045
0.292482853162196
0.278954927356727
0.267363779039501
0.255794182665706
0.23994217656825
0.235663173231529
0.222358696133523
0.209668791353131
0.20217386786349
0.194294597259802
0.181347294167908
0.170742633375918
0.163431008681162
0.15823741250262
0.148912423096425
0.140976052493545
0.139605992506407
0.135512430648167
0.133325698144268
0.127248223368888
0.123534994925773
0.122904732413524
0.115569094886479
0.119383168324957
0.1142389144242
0.114144255711694
0.1113858528453
0.110241035994918
0.114053596495408
0.11265334000226
0.110166849106565
0.11389893921568
0.113809834307284
0.110318509486304
0.113788177020974
0.113613447729522
0.113893347242118
0.115947425622931
0.114540262680271
0.112687576165982
0.117128955655227
0.117785123494669
0.112077878377601
0.11555075934813
0.113840804602106
0.113043090533945
0.109496515969661
0.112332801501776
0.10647566693856
0.109442469671347
0.10638890925049
0.106536369264489
0.106900655467002
0.110647704757869
0.109811762748672
0.113251240038311
0.111529118091624
0.110067257163065
0.112358667659964
0.117504193565257
0.117727816214929
0.120995721690235
0.116419669607184
0.121285360153902
0.121020662826994
0.124616300533468
0.122193432838668
0.124489737582408
0.125227368050263
0.129118693539184
0.133318733266385
0.128674786170614
0.127397490802806
0.129278928437967
0.128766315198598
0.130030021467941
0.129336307762704
0.132316012537972
0.133786135530988
0.136022523640024
0.136107577482893
0.138694332125525
0.136436149447592
0.141159186721948
0.139983575639966
0.147560598935124
0.147342007312189
0.155088903118071
0.158359678992776
0.162855224358657
0.170212493062324
0.170840511844565
0.176931043273622
0.179105608497496
0.179338142983656
0.180536574297141
0.181020514393082
0.18179935731921
0.17953745279533
0.174957032944873
0.170244521454127
0.169951218736135
0.164553456490328
0.162226637304197
0.154819167527536
0.154311531473824
0.152580131870212
0.150123480971549
0.152891540025177
0.152463387044924
0.14490487527615
0.154448153271207
0.14858504760947
0.155736124342748
0.153851872238663
0.151941077637998
0.149081399399622
0.155464903409911
0.144994881040054
0.149750766098489
0.147795906771857
0.142893655389204
0.135739035605831
0.13844104467146
0.140337652654269
0.142268459457937
0.136335862057543
0.128079496651127
0.13274350123882
0.137219716310804
0.127563337593812
0.134199788727656
0.13120844080994
0.132426469922067
0.121920162051217
0.12063796308246
0.12842641027924
0.123641838175238
0.11866509410504
0.124242351692734
0.125126629091398
0.123355912671146
0.123312322299761
0.122872281338052
0.115012028622481
0.111799978646826
0.120768818980633
0.120742841558369
0.116557647019195
0.118052659868707
0.117315352378707
0.118053211058674
0.110869173705341
0.10922949805787
0.107150774219937
0.0998940398380223
0.106302423700705
0.10885391988924
0.0944503485587204
0.101587010925656
0.103868707355346
0.109021089750087
0.101721720859177
0.109532040956975
0.103952039182245
0.104638773455943
0.103377834275121
0.101454263617121
0.103949396145229
0.101923711360366
0.102795282832663
0.107964994280076
0.104219587035192
0.11094420891093
0.098928622295138
0.1039205186819
0.102476101051611
0.104051278957727
0.104991119119952
0.108860911613079
0.110006508091911
0.107347639249178
0.104779845956157
0.116133566683603
0.116773834709909
0.121288684295452
0.111918961662077
0.116512151477926
0.127138234444426
0.127374295995988
0.122827622946092
0.128168646528021
0.120425845761075
0.132323971854492
0.141132875591764
0.140032235120876
0.143183091519983
0.151250884976465
0.152695192909898
0.157086500466482
0.149008039470893
0.171578779996923
0.16053141133394
0.192200199317587
0.185083851886771
0.189481072468653
0.196682004505142
0.202520543635418
0.197222316553514
0.20673110827477
0.200021950537199
0.212175424850552
0.203808181559386
0.223757198470868
0.215391685467888
0.223056743943927
0.206449462969859
0.220485671543952
0.199126642357226
0.203382010626478
0.204099947141109
0.216700745420665
0.198177556439133
0.209243582816824
0.193335671898541
0.20096437397328
0.205588636652063
0.19581757934548
0.189838214317099
0.189584172559959
0.191281520871859
0.200384054822547
0.175838702078483
0.18388829150923
0.18030070527367
0.203489160277554
0.184191100434537
0.167503350111134
0.163211672838336
0.178815009524145
0.173663773773847
0.185228109979135
0.163804473402378
0.161870028908587
0.17830051994834
0.172541054645306
0.170512185227991
0.167984000843253
0.163453004926708
0.167346843713131
0.168090880477327
0.166930239563544
0.159463841387409
0.179193546641843
0.178214464332232
0.184497568668511
0.16818844513053
0.157802487908183
0.181586749383374
0.176779678903357
0.164875368766052
0.173029819228813
0.161827478320072
0.182824386860179
0.180699036783211
0.174560163721178
0.172719575509299
0.200920895369287
0.168852146853657
0.186074848778382
0.177973133682015
0.182435709052716
0.18308717899407
0.187843208946373
0.190734765735244
0.199179218125921
0.185242466311845
0.236369795267355
0.202965011400653
0.18055971727991
0.200914666764882
0.193950912080025
0.185024327099217
0.232893509515536
0.20425774135224
0.232623978685944
0.220419914693485
0.220240065067791
0.223492700819097
0.252054345128666
0.229720862194499
0.22223541583368
0.236739655009637
0.267297988664298
0.263853804662299
0.254645811872661
0.248848074801751
0.259756855651902
0.24067470540512
0.236357546004781
0.240202771552851
0.255250210432882
0.262334352177141
0.281613416208202
0.260756421089401
0.245347193229808
0.233392352047629
0.309237839530145
0.242513753482421
0.242713624037656
0.251281712243847
0.272282739898795
0.216428725631836
0.24003840793842
0.256119167030187
0.255482842553549
0.194012526771473
0.199289329580669
0.199250495333559
0.23034824683014
0.225581912607379
0.28119086482501
0.212282852517347
0.24887992337362
0.263776861856547
0.206292712023741
0.230150416572266
0.258897920914419
0.21288550285945
0.303436239452126
0.267540712690986
0.23368007210792
0.180232911807474
0.281913391211583
0.223557173073416
0.283617620457122
0.265995994042074
0.251941122525188
0.311673197447634
0.161484820272289
0.167784403401398
0.233521104685865
0.286710976040446
0.284558765305531
0.195413992338412
0.315553885850988
0.191341246030274
0.280439167493033
0.23357819541394
0.257631721351158
0.280686966512229
0.283633367301246
0.164324325085951
0.233364611476446
0.379152594007605
0.324664167240272
0.197912178359863
