3596
4000.36533379555
650.420452594757
1
2
2
0.0997067135151617
0.113881426504539
0.0899611596275638
0.110554716834265
0.0951426174015717
0.102462802176363
0.0904248812028475
0.111021508723368
0.096380928241957
0.110994368216884
0.0956179584265059
0.10375986551005
0.0869922794560329
0.100842454847909
0.0866958995407665
0.102122549300757
0.0924866534124702
0.10670953093113
0.0897543162015809
0.105086869795629
0.0856588632094185
0.105848665228076
0.0931584241428469
0.104568740063568
0.0871525259553313
0.114968271968206
0.0925360213159111
0.0999089555325478
0.0885419005034342
0.112533255728498
0.0913163771606361
0.116514603037263
0.0951998026663651
0.1043385656739
0.0953421461796869
0.0973481897404322
0.089644980974026
0.107923733286931
0.0853829591092308
0.110326540276216
0.0969211928840643
0.107702749559205
0.0989101729239354
0.107040956791218
0.0888311595374232
0.103151284476651
0.0962695169723563
0.105397752873442
0.0916466815221282
0.104118375293858
0.0887049512240478
0.107741713408208
0.105440946566177
0.124095856395656
0.103700926068516
0.114262132189163
0.0890065254667278
0.109792319807095
0.0892437935678942
0.110646055696839
0.112252721622007
0.116528380327383
0.0891857930276606
0.110410117022346
0.0915566056593254
0.103453995904668
0.0921635987372078
0.102029595657417
0.0812364905387123
0.103754830612308
0.0888304339188515
0.120903734053518
0.0927815629347641
0.112972228387796
0.0894410298512312
0.105069693736538
0.076803796300106
0.100241472889088
0.0866423058639813
0.124184801874216
0.0998878758298671
0.11114727186306
0.0791373408668762
0.097537374106737
0.103225709794095
0.120185329525549
0.084228782615115
0.121560621777058
0.115601158962257
0.105264517071531
0.0847534227748718
0.101431786704587
0.0821204210158533
0.0991144469637495
0.0745394823340449
0.0991212800160528
0.0798726006494509
0.104677363281633
0.0807289523210659
0.119854302536569
0.0975102627972754
0.141772864229987
0.116892314890533
0.102380756588467
0.145524231705562
0.114048045103255
0.0914915629341058
0.138822485734352
0.0950853044551909
0.104575691782641
0.0807146175572743
0.100353924365429
0.0837286525860975
0.111723241772007
0.0722992555172904
0.13515473965758
0.105695380704648
0.106773694050575
0.0863226617063052
0.0935953678668145
0.0740641210338794
0.144414014551017
0.1121332819044
0.105241087343577
0.0954849446642041
0.100234055076236
0.0736660795162839
0.144913290968565
0.11110870048958
0.100914048807924
0.086444446744844
0.104368522554094
0.0735055603675392
0.1066294699038
0.120273258085209
0.107850334907709
0.0918897672373909
0.0961470916672991
0.122772752603365
0.162370227999273
0.0936225500851125
0.0964837136044024
0.0618760430532656
0.128757620458307
0.110077183090199
0.110422244315554
0.0819125216731596
0.124783910361457
0.0871647630783501
0.0906646537373066
0.0753126921217758
0.0926988083422939
0.0978739444306103
0.107619547304934
0.0514271391503726
0.185929864296758
0.124661133019036
0.149313762483337
0.141103948869893
0.102036553090298
0.0962572845428538
0.093832351013848
0.0774348632752527
0.0872348775789683
0.0852089383738404
0.090556989533021
0.0964845931147676
0.1169767680186
0.0886063500348736
0.118468197763899
0.120669664940819
0.109069616824134
0.0797107521675899
0.168942468714487
0.0902302305103631
0.102005728025768
0.116977967925707
0.104377762722707
0.0741628909765261
0.113830787780525
0.10615373609465
0.103179756544507
0.0850426227572975
0.0995479890382617
0.0951086675608657
0.120267782945239
0.088605628035761
0.101286600363414
0.087646118116794
0.083327870141906
0.0979740366655535
0.168152754329874
0.110318287330999
0.0995975614758378
0.093292028888573
0.0772289913712194
0.139381436935195
0.11967983093871
0.0782988060965747
0.0926634946392063
0.0777592149666969
0.0987537747270159
0.0781553353406056
0.0982519259947742
0.0752956629598923
0.0897044382525286
0.134287509676426
0.109805802453152
0.0888891386517872
0.0920529789634981
0.091236490054585
0.0981342911322603
0.154725933123724
0.121384274568446
0.0985878650856164
0.0931072422664064
0.0908384015843951
0.120089972756977
0.0959876395021064
0.0974387180707832
0.0842774125145076
0.0939724050201637
0.0790154093514288
0.0935235074998544
0.0814950660431174
0.101235547660644
0.0812997400276294
0.0934380123576555
0.0788854468407854
0.0974294615098613
0.0929632879798901
0.103005822863292
0.0873976551995821
0.096313747057019
0.0749282750992708
0.113996246832882
0.0990764527502306
0.099416394936683
0.0869212439114228
0.0881175757039658
0.082524276791959
0.0920104756845561
0.082846667434238
0.0969676445250668
0.0788499881146383
0.100399312622276
0.126672168018911
0.102904488729168
0.0860362327244504
0.0886380046903502
0.119771842366205
0.107209549723442
0.0877633911091358
0.0967324780662875
0.0867277434922626
0.0878167846088022
0.0944860909436459
0.132494752693564
0.0988921513540446
0.0933612889149151
0.1152296169836
0.106796742326284
0.088783509177069
0.101162189313298
0.0833740140203546
0.189411583541932
0.105600680414172
0.125870134739723
0.148939487426998
0.11240514854577
0.103835016549936
0.106362370310678
0.073277607614643
0.253129040034613
0.138820814758306
0.1028642691061
0.0940473014994757
0.119656446340327
0.0835883598161549
0.114671337868784
0.0877307911060031
0.123570910795297
0.11757745396631
0.159532962904431
0.144921937892029
0.0977967837864937
0.141649465825261
0.117805726613296
0.100197861057463
0.109882912934771
0.100030845915135
0.104994253900979
0.122461558463861
0.116026028739008
0.115864668525641
0.111807134886085
0.101416900187624
0.135981871066043
0.101147318615953
0.10600782905297
0.108081137279467
0.12128968591728
0.0909151335500474
0.107174827797644
0.096728205995095
0.1195882838215
0.0837482194289402
0.123856990730469
0.159201400010291
0.109665535500454
0.108634040309146
0.138489607312526
0.10065681891919
0.105660181142568
0.0903178772854728
0.118844362355697
0.0940135690045944
0.106569948962358
0.0913802967398116
0.147250225532799
0.0986346230909688
0.119667561172009
0.0938968823818627
0.111853785866151
0.0933732068019502
0.117236752720312
0.0994375618986233
0.108146988732508
0.105042512602623
0.110556357120145
0.127015741179908
0.147527313822153
0.0853644110084991
0.177930006397955
0.13744810968631
0.119766387095866
0.0973486236130093
0.113118212478981
0.107004247372682
0.109608182376196
0.106687531701151
0.115958288384141
0.124519767119814
0.136668724268029
0.11979795413792
0.134292139242983
0.128756719726082
0.19979409726577
0.173782754243747
0.144135139181478
0.124861892837613
0.107714551407509
0.170841062305969
0.154742316365019
0.139733277131815
0.159943978426716
0.112956090218883
0.138871451261367
0.115145717624592
0.146760432630816
0.123631018208683
0.146177708186755
0.121353426199643
0.139806726499027
0.126060031166799
0.158293660829822
0.12197545470114
0.164479092336343
0.180895485090359
0.154978798270044
0.13474371192633
0.156169240461054
0.128200807124706
0.205022771185352
0.165879143582317
0.232138660753215
0.171088001111042
0.205824602530437
0.192765424697678
0.160998710347151
0.166568577892968
0.161654475427504
0.163596371043448
0.177056316179543
0.165158423994181
0.176975938285646
0.168988536710019
0.176192840260812
0.171344393470713
0.181100851293455
0.172362776489347
0.185419740471063
0.204950611414786
0.19145719943903
0.189181508371808
0.186122215929963
0.211593238003304
0.267391171133566
0.234468053720363
0.20934940326693
0.213189541538767
0.207709860794604
0.193513574666228
0.220728150154376
0.20751435603097
0.235457223391236
0.209127714359445
0.284643070769047
0.231690015281112
0.269481774840953
0.231567674923131
0.220542238491028
0.244100959363761
0.25016250988816
0.257861693026949
0.284338615095198
0.236006403289285
0.252451532399021
0.274656977712929
0.268320599446182
0.261189991307867
0.295078704803855
0.240891631232389
0.269823154578163
0.241271627354653
0.278549351340868
0.239461942537443
0.288345463165971
0.26465706907622
0.295621907708679
0.278377812511558
0.297739626402398
0.28544656564626
0.353839725399539
0.294750191227091
0.318086257650192
0.30743134551367
0.315734198050842
0.296723128094967
0.310755955956513
0.351604129210894
0.352216456527658
0.328957595046551
0.367247595747925
0.298314142530625
0.362355882396351
0.322412753914935
0.341047010982619
0.321992024184854
0.351162294430103
0.337281930302637
0.364723924766794
0.336418073731532
0.370183614262326
0.343625918273501
0.38784163138161
0.36242573632479
0.392706115020091
0.359258390171326
0.405676173901078
0.37542842343123
0.39605319216361
0.40804788089763
0.463583774918736
0.410634077244494
0.460537434605297
0.401316711768211
0.450981976856038
0.401530663792114
0.439996209482554
0.425059923358069
0.459203842253289
0.414681354261449
0.463748793806386
0.425146489047284
0.459480124871185
0.449276454199053
0.482310781907988
0.438950063208599
0.500790956275168
0.47573335000766
0.501632587723368
0.447368375457815
0.512277736707248
0.481373170882954
0.525106777729593
0.468213202512609
0.555013172291003
0.502689421672487
0.532311423278072
0.51226967711852
0.532377717726464
0.511605865259963
0.527932537536119
0.511788981562653
0.564037847652719
0.517499359446332
0.56300141757383
0.517239541149523
0.567577563759118
0.551011867400776
0.613277765202355
0.549579120090552
0.609845222887965
0.62802901499743
0.610100351660627
0.605731015512595
0.628701922820152
0.574184427703031
0.610273928437361
0.608330395714417
0.656726404040476
0.595714305914203
0.673152814752957
0.626270246593977
0.707474696544408
0.63929520016437
0.644011032212095
0.624542338987108
0.672775235517775
0.648030029324605
0.686685170536323
0.650448094276532
0.681041519189042
0.664594741131888
0.738916779835121
0.670590424396817
0.724967298461341
0.669660240319906
0.719838131032905
0.685861856406317
0.772588808020644
0.732405044881635
0.791883131452858
0.724278675676747
0.757758664852337
0.728820313668996
0.757483572443515
0.720276570294156
0.822455099247202
0.758129275208745
0.848198865889875
0.768698366262968
0.796240932876231
0.767412947525651
0.791696639258254
0.785219020120086
0.840701835101829
0.790927284138327
0.842848283676388
0.811951201502796
0.835260608878059
0.81287746466328
0.87463822220546
0.775209534954293
0.89166310308361
0.845793467732956
0.888196071149049
0.847815143072594
0.854173172925869
0.864246659008974
0.942084495399918
0.868389269324433
0.906007509484179
0.884783418435812
0.947247448423668
0.832723679502791
0.896424121449983
0.874696241405875
0.950368899303361
0.890413455328825
0.931544333062243
0.907630120388964
0.967881961648941
0.923832095110255
1.01940573225586
0.872479400641958
1.02813608640795
0.914218875302454
1.00589464585313
0.982115314877161
1.05645728069337
0.931510414208754
1.05594683066015
0.973718106715278
1.03229660248849
0.990174268906114
1.11277654710092
1.03744014517468
1.1023557097555
1.01210920338055
1.06795348342893
1.03718880061794
1.07585162056301
0.959520432665695
1.12537003477825
1.04338134419205
1.04401270116412
0.995518290739334
1.10961954096749
1.07853214865025
1.14631414425998
1.0295306593403
1.04638876672725
1.13651400967745
1.09078539577071
1.08162220730394
1.17237313021993
1.04315678075246
1.13412817485143
1.00542206858043
1.10041901987766
1.09068966267409
1.24085877269921
1.16782385597873
1.27650271794598
1.14454548663787
1.30687218596476
1.08897467172647
1.20229024862487
1.11935636623894
1.21186994557353
1.18553639420913
1.21816278246039
1.17666849898865
1.28014179891394
1.1871524925212
1.25456626201836
1.23868170716085
1.25948149195684
1.15451206852736
1.37704997161223
1.20418821426839
1.22820963205604
1.23822816564155
1.24137605184749
1.20670915752481
1.31889380246259
1.29996516599391
1.21249780145445
1.12447446298156
1.26441068136192
1.22516946082525
1.17206870809385
1.22448895130388
1.46486596118284
1.2847013495291
1.34176923624426
1.21203125343097
1.37453894290145
1.21259325375597
1.30828135808296
1.27227346936634
1.33789699989952
1.3097032013495
1.46558512892384
1.35134861132684
1.35601160709109
1.2759466612954
1.38885998486706
1.34740457174125
1.49726788496036
1.29961600556329
1.32050244475882
1.34814185634492
1.44883421776892
1.40248461546414
1.39609549949437
1.25473177098695
1.39426205729847
1.28921064720343
1.51659087886633
1.31305927539636
1.38581815937701
1.32673085327354
1.38449035331306
1.4323585104123
1.49032023306183
1.31005608600906
1.47040621985468
1.35410145467563
1.36975141121238
1.3286384600489
1.49224413348812
1.3768844116332
1.3656502019811
1.43146896978299
1.45032519932081
1.32575036976748
1.55910619451275
1.49447965752871
1.48358804227594
1.3362657294849
1.66049217031392
1.30812297275596
1.44973342083622
1.42656661891798
1.68746434235419
1.5260607638095
1.64009943546729
1.44218810036106
1.43479087549038
1.44634039564918
1.5130702793583
1.37836749289362
1.47195818631156
1.47273517274645
1.60435924252646
1.38145927933869
1.45741880950712
1.41057018934002
1.57293365667511
1.40578558220304
1.39761449822287
1.4024749717119
1.33280272119838
1.40013010926808
1.54170899024469
1.42416247161763
1.59885932919401
1.39859988867385
1.57027493646514
1.54039173450824
1.43148688751631
1.4387117305965
1.51704128545414
1.37616137486687
1.57080556057183
1.41087255285483
1.62560465581664
1.42794676432777
1.62494490732476
1.41130725463666
1.62057327580093
1.38895092380474
1.42341810791416
1.34287629035933
1.4858568265149
1.41706597899326
1.39683323572648
1.36251615265764
1.6126023045317
1.4942755509778
1.394462896137
1.36687880568187
1.62848390207849
1.52736532563128
1.51190109336001
1.50911294536211
1.57502915010306
1.35929845394847
1.49639384036842
1.34683839207597
1.49901122006773
1.46706346146326
1.53873361148911
1.53832552327141
1.42092966762637
1.36425817451816
1.52408519713368
1.45852506362215
1.53424273691808
1.50361508938584
1.68986589983781
1.47508497571859
1.49433016258841
1.37848610393409
1.44858652110994
1.46811031175706
1.41890066055574
1.40005602212209
1.5923667219112
1.3351003013738
1.4591948578237
1.42027506307281
1.42505986097473
1.46226110372458
1.52328785872449
1.36443800784004
1.52888019459884
1.43918289932531
1.46405424893286
1.47367777359161
1.53132018585777
1.36188895185328
1.51160005980102
1.43520345405668
1.54540902513413
1.42301015221471
1.52765033075087
1.62731722334824
1.50729284577754
1.42167501214833
1.44205570442157
1.43929582845304
1.51346399633354
1.42804768437998
1.43586599951563
1.34960467709794
1.38109483809458
1.41085506973472
1.53914710951517
1.39353816177285
1.35335218773316
1.4217888208243
1.45968735096708
1.40832754897503
1.40346426143406
1.40093727745729
1.47516724049992
1.38107315098947
1.36320809977322
1.42316738458795
1.36767540487486
1.33287740321066
1.44335506448952
1.40279030930235
1.28471447809046
1.31966323764348
1.42243798423085
1.30700929256074
1.36415238558988
1.28287326115696
1.28936727418034
1.3765874327112
1.38524943139163
1.29807401741741
1.35177306368776
1.32493508142917
1.36734612922575
1.31871385061444
1.35443018413857
1.35654121196293
1.37222784769085
1.29014990954729
1.2728886171408
1.33409059430811
1.30273446628139
1.27200147259635
1.28904721276221
1.25700548706619
1.29867212455623
1.32654356701172
1.3010551143831
1.27640682165521
1.25398757490796
1.28138778427449
1.29825812405259
1.27430765531716
1.32139271595385
1.24961257181635
1.23409307319192
1.20423904242452
1.29868269303454
1.22290235374192
1.20275353367656
1.28092813390513
1.25248092488799
1.19062881972289
1.26289472914732
1.26560677539934
1.23404821352094
1.19638628624226
1.27869504577704
1.20597275316682
1.20891640137051
1.18289362147129
1.22082945178906
1.15432578028144
1.19070378413449
1.16259568622235
1.13852175830261
1.1586833524208
1.19501698789964
1.18323032905677
1.21732359905044
1.09482016294757
1.12518150145879
1.16037764611047
1.14886226152137
1.13565689183413
1.15122445828566
1.12319403672852
1.11094672526376
1.11345221158711
1.11721219372638
1.12349095130224
1.10398009625538
1.09382163780842
1.11982543324303
1.0573325295453
1.08516237856435
1.07256559474371
1.0891932779873
1.09742795385069
1.0803182025636
1.06045413450172
1.08800420417152
1.03714055280382
1.07194412960074
1.02536214733317
1.01674078472373
1.04588596395245
1.04843383313679
1.00172251026519
1.0252477779698
1.01085153090137
0.988897439608618
1.00214596699459
1.02134375564693
0.994206213408087
0.981838966180689
0.962544214928319
1.0168032064562
0.995701025160815
0.947872387560886
0.962133370537572
0.98098219720221
0.949274609297099
0.95480698397778
0.966537197853844
0.96789062827257
0.926428590894415
0.926538306101018
0.940985184991091
0.933797103856476
0.917769865568341
0.953500379595665
0.946642309730847
0.933291653475565
0.907025023456135
0.899297740212688
0.89038503973314
0.891739694819112
0.875995444938601
0.890238725178091
0.866574705350453
0.869403557407843
0.886035726026044
0.872540421542023
0.849898407255593
0.85885769827011
0.851162436624378
0.867774236260674
0.860852707204609
0.857190510547496
0.846769799920433
0.84671104628643
0.825460417344304
0.828476069222053
0.826739802919828
0.835366941715744
0.805819600332868
0.791341260832
0.780386544590265
0.810861372163995
0.815475694799312
0.790990591091966
0.785449260239405
0.802544279702525
0.782627487511148
0.780006966279208
0.788767536242314
0.763978159348346
0.767824294665362
0.776517532834471
0.761701661363389
0.75351694457652
0.741826630352148
0.756047206162887
0.752412762894639
0.753434359661437
0.737759576472991
0.740439334228616
0.734059300803292
0.732334479138755
0.727194252971268
0.732268933232267
0.715309540034516
0.71082138306428
0.70219666950889
0.707123955684107
0.698988163724001
0.700895059158925
0.699047690405568
0.701306526194314
0.691237779056246
0.703324576344238
0.697174590908303
0.69247066223812
0.661361041272381
0.671823894639288
0.674532395600881
0.659996886434794
0.661607829427932
0.672163364398079
0.651744355492502
0.659173783113732
0.65802679078763
0.656013293013119
0.643868667875409
0.639514193653358
0.649768171447759
0.654021480169046
0.630558675058142
0.640993029162524
0.63621105427217
0.623759761315445
0.625831850049541
0.619682825568089
0.611423969419824
0.620129167141093
0.616530093913241
0.61253682441969
0.60677072346892
0.607965528558398
0.601092800250841
0.59051628891406
0.579963979491485
0.594446870012923
0.584028802695195
0.575648675934397
0.579950048353757
0.585333432773105
0.572007374760423
0.580330574966634
0.580128749972521
0.571736569805945
0.558300105418527
0.565140791616291
0.56532027883482
0.57174530733103
0.563155234173801
0.555924394917755
0.555550257388754
0.552572040748738
0.54228906272086
0.537371117100412
0.531542930309085
0.536671608339042
0.527958788523203
0.531670990746357
0.522191034603542
0.529558760056079
0.537037674163035
0.530003150845934
0.530166164198425
0.528217108636745
0.514555917548743
0.51458916283696
0.516654763033086
0.516061596773551
0.510845626689511
0.509500792481655
0.502311420471091
0.511169749410366
0.500834605897416
0.491368536516152
0.495421464071144
0.496787927906016
0.49214962964302
0.492577878012552
0.489513335799538
0.4935151578555
0.488479759143122
0.490822722553739
0.496359828038735
0.49226268251384
0.489097240535477
0.487053122220129
0.480241797720694
0.484750920164303
0.479549641274679
0.486314445968934
0.481059612721909
0.474396852416138
0.472307041354754
0.488721889421656
0.473451010458094
0.471510295239434
0.478677848494162
0.466675257151577
0.47725410919105
0.486884826728689
0.479387068410293
0.479019429027841
0.472535240857739
0.479803821271973
0.487976625797413
0.49192290818878
0.478937635201239
0.480370031142618
0.482104459853995
0.485562792580508
0.486025121659726
0.489921350143906
0.494271283722304
0.49084074261456
0.490174983953783
0.501165521628304
0.491434366887055
0.501940924467268
0.50930262340725
0.503595549727025
0.504310457082911
0.503527131006458
0.500054484763958
0.513232952677641
0.514415753099245
0.513614594529291
0.526594462997483
0.527062772142995
0.517297109597774
0.517489161490312
0.53100340190199
0.518168147335069
0.527477358003217
0.536823884220414
0.535495936579179
0.535520641921804
0.538547203680413
0.548653125223314
0.550577997689354
0.553368647546604
0.553862852305782
0.560327672344358
0.560793136492253
0.553679563229983
0.562707323944627
0.565667013163314
0.560827678270443
0.563532034945757
0.573792287615149
0.582840907927995
0.587280489855909
0.585789559255714
0.585099710055838
0.589694029572452
0.613906230193174
0.611724275425083
0.624105896860175
0.625399298935475
0.605200959025062
0.617101224519377
0.624961626517161
0.630668770471776
0.62585072913655
0.617063902056759
0.619059333998366
0.632252625189733
0.629203495260277
0.618653954883779
0.631576454620777
0.633569057351551
0.64044809466185
0.654370192777491
0.634607019281798
0.640112321265213
0.621937081916396
0.622697711238349
0.619796750630853
0.623032571972656
0.626714083708656
0.618999911305494
0.622781071610283
0.619523702036845
0.623799953216415
0.633083806036609
0.625773619265396
0.622711561878939
0.617564740627939
0.616484587772422
0.623213601138155
0.61658798216856
0.6198486621322
0.632175178136064
0.619149923249753
0.631007722020085
0.622921891702317
0.607344004433022
0.618562392757898
0.61449256403402
0.632865442117883
0.625024543530015
0.625548157843513
0.628575019937197
0.61180568996088
0.614018111597674
0.625507004293531
0.626297202475037
0.61266529400213
0.614337182655781
0.623629420787583
0.624835547814101
0.620213792728214
0.618009701560233
0.627002976720104
0.612707944931693
0.63086235118778
0.616983221890368
0.614091179866955
0.624899823653261
0.621734136069108
0.599326666486424
0.603788695608487
0.619991292053861
0.618537380294561
0.614669164015487
0.602774169781311
0.602406845145022
0.604942579352958
0.593669821109579
0.596525629955181
0.587479039430659
0.582412626953191
0.585260548454789
0.583474347409992
0.575608672640713
0.57833432736244
0.581515423393844
0.582497085951089
0.564596798921661
0.555704514135438
0.557937432161679
0.555242267672125
0.549325247341203
0.547703112870954
0.54381157426638
0.542981722863546
0.531985082525574
0.522132754093814
0.52371228621314
0.527218595085379
0.521041709857246
0.50573454042588
0.501836619643485
0.502938631134556
0.508048531164307
0.51107211255445
0.509721801051907
0.501408186095177
0.490642618579197
0.490465182146852
0.482028887029486
0.484428188888413
0.480029068418517
0.476753964578987
0.479215290525123
0.472201867130287
0.464857428880566
0.460299580891317
0.45846023374089
0.465056724642377
0.466512249501349
0.461011274765616
0.453899900012545
0.449747418366913
0.443993717964266
0.451069304114198
0.447779174771204
0.449976765694898
0.442454880867351
0.444527389864804
0.440193731109898
0.442252111578835
0.429600595868061
0.428034691273588
0.437871915173644
0.431818415507094
0.424440228180742
0.434367260133093
0.429658600373179
0.421283696190429
0.422115260237671
0.415098963345342
0.416061508997549
0.416436011048759
0.41870429479276
0.413423037954634
0.407777338450589
0.407591586016176
0.407482456155725
0.409250994062716
0.405147227133395
0.403578083236263
0.395475034767326
0.391922086427155
0.399589347592929
0.401909764570406
0.396088398742397
0.390231019743688
0.392707310082236
0.389741077232616
0.39350752255726
0.387292517040699
0.388037175488771
0.388001429540569
0.385104235189501
0.389580084037175
0.385685151923625
0.386995139997997
0.38328743023332
0.38354708669389
0.381656749765667
0.376574239809752
0.376085981691172
0.378008350469237
0.376485906639304
0.373058459582279
0.37320735726505
0.373574669597211
0.372388911724834
0.372885449756305
0.371278013396168
0.370874592495111
0.369427927669385
0.366496224123097
0.364007861715026
0.365057502216678
0.368497845790644
0.365532787792794
0.36458513997126
0.359775077566791
0.358811999662181
0.365237213538797
0.362650336650216
0.363408335968578
0.362283600907256
0.357883309519662
0.356428843868024
0.350517622700779
0.360188796009611
0.360235867670733
0.355264397983759
0.355485544970073
0.353554590180578
0.347698578295376
0.353640381566629
0.346559326310217
0.350021349776251
0.347597558786127
0.347248328201645
0.347301156805486
0.344628806375793
0.341127776387868
0.344365905812254
0.344818997965329
0.340887178632161
0.340200753279555
0.340437277238117
0.335705075731821
0.340891788726532
0.341042525095882
0.345501410752753
0.343070497832353
0.338614703804828
0.344364545119033
0.338209526680128
0.339165783363896
0.341926572277555
0.334708465436972
0.333867772626362
0.335955047255236
0.336523313365142
0.339443368557106
0.337955500253503
0.339378486231879
0.344353573291384
0.337588244043483
0.335535539611815
0.339611017011459
0.33757113658303
0.332154645626476
0.334132549521674
0.328758182172479
0.328899555109908
0.335541334462941
0.332808126206118
0.329150308122998
0.321252332592157
0.331454311472004
0.327446928460773
0.330466454172694
0.332064146770134
0.324483346926433
0.32355882945427
0.330758291060569
0.324082168533403
0.318291840785002
0.322560197404341
0.322975666199516
0.323450407102721
0.319186172362013
0.324249038172889
0.31585474088177
0.311740224216555
0.32004510271652
0.319325051355162
0.320905390498281
0.314356305814178
0.312678482308953
0.316994102436068
0.314341074980183
0.312646428326218
0.318294725648766
0.319566097382668
0.311178696469269
0.312129529379555
0.311655029738072
0.311096441835223
0.309756275267587
0.305022591355668
0.305909383193491
0.30959380197783
0.311991739437936
0.304632512856979
0.306082553572789
0.303555823514993
0.305903449663964
0.298989270864539
0.300202537400444
0.305036082624418
0.294985173632961
0.296953868443047
0.30299873126977
0.300584258993619
0.299404107695415
0.299553707489993
0.299225720210943
0.291526466275062
0.295932815607779
0.295736597223382
0.294776242085202
0.296318674807498
0.289607126844102
0.289545472834749
0.292526260716876
0.286321164625414
0.290269197101713
0.288873755669479
0.288436688904447
0.281281239264974
0.287957504349484
0.285613038009839
0.282940412812508
0.28393984831184
0.279221738109269
0.284037506144068
0.28167076978549
0.281295526048073
0.282237948628013
0.281010046599169
0.279917599999803
0.277909627939903
0.273630592119618
0.272030646027871
0.270293092684242
0.269555169722287
0.270521596106373
0.271905349177335
0.272865767215992
0.266631614699785
0.266110894044215
0.259654314624331
0.266088045836929
0.264860261490508
0.26633731001852
0.266936269697883
0.270072750871225
0.267640871460615
0.260484510058898
0.256491857254892
0.254223570965445
0.262456245592639
0.255994462387513
0.257352106720763
0.257211186739438
0.256637526244604
0.253834555771575
0.252151036458529
0.252951155940594
0.252833856563156
0.258840302420679
0.250614483518348
0.25072256094014
0.248105004048022
0.249801394501051
0.249592475939354
0.249390124649089
0.248427052765349
0.25121820557984
0.246951099945135
0.247256106883244
0.245197119910476
0.246319227280574
0.24663353738624
0.24061728016531
0.243112736383539
0.245044377727481
0.238935522414528
0.240204555034461
0.243821039304057
0.242054773704409
0.24324359611345
0.237789575005486
0.237530668276617
0.240456472403336
0.237011872686797
0.236507610014412
0.234894907290362
0.238091553747147
0.235638829838522
0.234845941806779
0.233524511982699
0.234911061455342
0.230732354260338
0.230248990314598
0.23366886254424
0.230037921358868
0.229604508935842
0.226554603712252
0.231038228118057
0.22955913946807
0.23052399307796
0.228666447650408
0.22690316437042
0.226092828201484
0.224414134837914
0.228214970674363
0.222879304439519
0.224892819841235
0.225367706240188
0.223249773968999
0.225448914943339
0.226345453724286
0.221122652365266
0.221430517683982
0.221217563343685
0.221213415035932
0.2210367882421
0.224013312187306
0.223158410717286
0.221786422879242
0.215422787358721
0.224579142900837
0.222372301103467
0.222975879712919
0.217452551107764
0.21594325322287
0.218188180942989
0.216725186950269
0.216451804005236
0.215942992089147
0.221370931124952
0.216645399564947
0.212880779282934
0.213465262941683
0.214412919481418
0.212734651669189
0.21419958000725
0.211719444694005
0.212922335752353
0.212075950416565
0.214693635484893
0.212798015682446
0.209728644056213
0.21639757772206
0.21254332827097
0.210401228071515
0.209593262902196
0.210302747937828
0.208233022407492
0.206134396829233
0.210954909188425
0.209024280515844
0.20852871429534
0.20967924584422
0.204647703670489
0.206042021979951
0.204878003156454
0.205512571954238
0.203068465180238
0.204723622520779
0.206659137024779
0.204018515319447
0.202558356027812
0.200849924739709
0.200937014142315
0.201806959595207
0.200592794141471
0.202352579966115
0.20029336030479
0.202067087333675
0.20117252132924
0.203728355010806
0.199051194610545
0.198527216042919
0.197608156794013
0.198569033354277
0.202155297999548
0.197414002254389
0.198892465008992
0.196046571445048
0.196750777310163
0.198009089096277
0.192865065766126
0.199452759321068
0.201783299483023
0.194231618163972
0.19219974900407
0.196714346912922
0.191601788225261
0.194642881565948
0.195955322634963
0.191741107410863
0.194549433206138
0.192723566266071
0.194847608332193
0.192145609293128
0.19035233646706
0.193169021670555
0.190632938046645
0.194378363247963
0.187251713812677
0.189880704526961
0.191351952077523
0.189419211481797
0.188373063838021
0.187976822246106
0.186862857809102
0.183982848185295
0.184435002985165
0.185123143007489
0.185600440751367
0.185902300052551
0.182937816220583
0.184726494193958
0.184235227616713
0.179465081476388
0.185097593381444
0.180945856236388
0.180261762680902
0.176692773610449
0.183111454338348
0.177999784829147
0.176776701333033
0.176068541365454
0.180153361769626
0.174989702669905
0.174844775300046
0.174650232855187
0.17897458996925
0.174483954084302
0.174921291332312
0.17299864026354
0.17591143704612
0.170325972398513
0.171814489247344
0.170758687864893
0.171353241645148
0.173107241197724
0.172933016266209
0.167191120522854
0.167936393281343
0.169504145976988
0.171872818551568
0.166195930649655
0.169893370161497
0.166934268607478
0.166608935150679
0.165778204115382
0.167039299869349
0.167710424994673
0.163508588006787
0.163533671422286
0.165583338885485
0.164225405934279
0.165090753970887
0.162174836791689
0.165119820897092
0.160643586813214
0.164269835642814
0.159989707320942
0.160017852787085
0.159543638906412
0.162565969793301
0.155822019509939
0.159293781093359
0.156413563191339
0.157725194147328
0.156411705795632
0.157314585396382
0.15726653386735
0.159694769960666
0.154327313913969
0.159142084049608
0.151778607439439
0.155308281268279
0.150465484844233
0.154708595315079
0.152093851072332
0.155663613641593
0.148477445486103
0.152220583944056
0.149832506905937
0.150040885574356
0.148795744285917
0.148094953220582
0.14857176312744
0.153090132569698
0.146357363738476
0.150303639073687
0.146404556540773
0.148078081766687
0.146536744495883
0.150083607244298
0.144998515766756
0.147964333243197
0.144303800401067
0.145530546742624
0.141496788987374
0.145870540631516
0.143994571890237
0.146585627450137
0.139816080551659
0.144618045002468
0.145271062841181
0.14885870598455
0.144105609834613
0.14192236422247
0.147556248844159
0.14560475315604
0.141970348952158
0.149096254067573
0.142243862828565
0.145051568660367
0.142737808503303
0.148178290555592
0.146521087750523
0.150358856058838
0.149473475260958
0.149128724997626
0.145222528565031
0.15130215180282
0.150545310058298
0.154238223700275
0.151018795297921
0.157147793608721
0.143909696123538
0.152776943549709
0.137759217428547
0.142727373123869
0.142698135507875
0.153214119793229
0.143400767321919
0.147068353512407
0.141806857832644
0.149705095759457
0.141205367520798
0.151670199897393
0.138481421074015
0.150392885867198
0.150554731751679
0.143459277512603
0.133116890633144
0.146272782819548
0.131796030723711
0.153884746947793
0.13519251536038
0.148817993259128
0.141274619208311
0.149080021683872
0.127649367238821
0.151286742492817
0.128369155339382
0.148729683549674
0.135864132495654
0.147254157483301
0.129119674871727
0.154407606615414
0.126681771980806
0.151650054867659
0.130637665350713
0.155815619966064
0.127807249269864
0.158302101122222
0.125769756265144
0.150507280439977
0.119492481146026
0.150537850697436
0.129844510232254
0.158153415936386
0.131096500217319
0.145493414578695
0.124786583825098
0.140510522947638
0.140234113520908
0.147083433909855
0.134898275831801
0.125469582160236
0.151021331616793
0.13581998931
0.150766447273007
0.114924364264848
0.164726325675359
0.114178055950059
0.161915596011589
0.108625612764205
0.165907607740717
0.105455479428
0.164224796657681
0.119251083244473
0.151493783665683
0.124479012713123
0.140804638495362
0.127618499286096
0.134754065276418
0.134433678942391
0.130283228890128
0.13183490769597
0.1319505122899
0.129695730949825
0.131610213729238
0.126955635874307
0.133473407521389
0.120969745802732
0.134249572742846
0.126211770571624
0.131056038224962
0.124440389595986
0.130119087664959
0.125802435759878
0.130149518797784
0.122804686219479
0.127769015319791
0.123527858601429
0.127759125856148
0.122338659778546
0.125957353277701
0.123323642153155
0.12738212322855
0.123424923754931
0.125754781326479
0.122188901283596
0.128017239574169
0.123809518452279
0.12742062464756
0.123410394630907
0.125737817660522
0.124998488504911
0.126651767034574
0.123901571179401
0.126731920521647
0.126020319198691
0.124837754210277
0.125361507406122
0.127127763108574
0.12231671926591
0.124275554527388
0.12394009789023
0.1256280297727
0.123030363003535
0.123480686711551
0.121513484998177
0.126801319265632
0.123418618982406
0.128875653722445
0.123299383938303
0.127140477086537
0.124432012865353
0.124352186355969
0.125166550725316
0.128973214577633
0.122612605939969
0.12630326319312
0.122097270397024
0.124577227405599
0.123335050360051
0.126036546560344
0.121569497610968
0.12476437832926
0.123322146148138
0.12598109145265
0.12139785143995
0.124433898682775
0.120951268272508
0.122782920752392
0.122349717894879
0.126890654379006
0.125652955222091
0.12487687663447
0.122726324850473
0.122273502163665
0.121448318176184
0.125859789387976
0.12426937482532
0.122755377958996
0.123502600110419
0.128198964414586
0.12415732428365
0.12727573725467
0.122508028438097
0.126995974065496
0.12647689658714
0.125825778876313
0.123484026057306
0.124994166393767
0.125079430791497
0.122198920553497
0.123766155892279
0.126291772918115
0.126413448929916
0.127165853717579
0.124321784340727
0.127251492955929
0.128281616900934
0.125343076108158
0.123341472513658
0.126601929552962
0.124442165074514
0.128017594449196
0.12772268901564
0.129975033022373
0.129921018470328
0.126621082359614
0.12517016095046
0.125441285055462
0.126528180004647
0.129496472915987
0.125496815587239
0.127950533168367
0.129363712692754
0.127783537438223
0.126589602922228
0.129050346461145
0.12588955581473
0.128307171373084
0.127503320909152
0.127982652976375
0.12810070508739
0.126191034295839
0.125640063376336
0.128551195633256
0.129371725901718
0.129198955125871
0.127611383042613
0.129454021775099
0.124408962530734
0.130097893969264
0.126636270117163
0.129536334754268
0.127703225617306
0.130255795039666
0.127231567243111
0.129001921112462
0.126928213776531
0.128507311299433
0.129485495942124
0.128473656527287
0.129621690767133
0.129303947569023
0.125362385987727
0.129066877262068
0.131837533405813
0.131348196172589
0.129786468390111
0.129581668531746
0.129118662218871
0.128596446657564
0.134099428016696
0.134105138033457
0.133234117876675
0.13160897629837
0.129733451313643
0.129516089948622
0.132101225967584
0.130340525832477
0.130241117995929
0.132003215442991
0.132685288748404
0.13090543760487
0.131512701739123
0.132536700001343
0.132651317061792
0.13204246755707
0.131264450014216
0.128484234891288
0.131776236221499
0.132193946041592
0.128077771793212
0.129552175456941
0.132755206020885
0.131423904462796
0.129842276154633
0.131800332327714
0.130305446660072
0.129619931310654
0.129636246048746
0.131482155324221
0.129419245689421
0.129149546056332
0.12770024321199
0.128735046027527
0.126856669460978
0.127566106290415
0.123725796601614
0.124484656651188
0.127921827005905
0.125076844334904
0.128900294532918
0.125436597057225
0.129693659248071
0.125836646688145
0.126302502912402
0.125634340048325
0.126112144567394
0.127608780698584
0.126580075594338
0.124255956324806
0.125609609884867
0.121920730648286
0.125053339870424
0.124800620635339
0.124244382461837
0.122284843051547
0.1228340594939
0.124190188595347
0.12687276005153
0.123646728045285
0.123960148316177
0.12389235820014
0.124946918984773
0.124602131195057
0.124644163524205
0.123437206451329
0.122980953616583
0.120219645421206
0.12234992362531
0.120998267061883
0.121295789356865
0.123610642393258
0.122450305379998
0.121145906633138
0.121241763105254
0.122340060574372
0.120732541288696
0.122089200104964
0.120709829173469
0.122641758515581
0.124434496649363
0.121763079930216
0.121182989219052
0.12202957113843
0.120669984477117
0.12005872775069
0.121355309997435
0.11942417923796
0.120380288487319
0.117951622712102
0.122397410824522
0.119337411182823
0.119137063953916
0.119820280704543
0.117980304093409
0.119811319961777
0.119327827089703
0.116530899839701
0.120052691517598
0.119132956333571
0.119384981984474
0.116559685145539
0.118197116927366
0.117157419670579
0.119244338690205
0.120580913042683
0.119408443261231
0.118327919996231
0.118924310900582
0.117573115229035
0.118505613583601
0.115970144399751
0.116548137439623
0.118304905008291
0.116120767872648
0.116757246629562
0.116302613680884
0.115200620468656
0.115922366340853
0.11803559230557
0.114480286143928
0.117120238182953
0.116620370050858
0.1143217048648
0.111508003908918
0.111626793940276
0.11252660508274
0.111601643845546
0.114586345130728
0.114516399229542
0.11488855912327
0.114163279921076
0.113692021814443
0.11453457103378
0.114330849264386
0.113841787667166
0.112418035311755
0.110598348452194
0.111081019604292
0.111859247280181
0.111873001220435
0.112356718291745
0.110865413843583
0.109510891565438
0.109532654975556
0.108498165591979
0.105896538139525
0.108652353426273
0.108158089662409
0.108909120551986
0.108589802147342
0.108618425253068
0.107241154189726
0.107890707228491
0.106218453662475
0.107299666335687
0.104396291986041
0.105035682358607
0.109604814001302
0.108325703547067
0.105747069040359
0.101356910991571
0.106424286775656
0.101159688145089
0.10224572827765
0.0984556871131782
0.101608402467969
0.100904607729597
0.104324382028268
0.100791100720693
0.103904950362926
0.0996617014048274
0.100600835064449
0.100567340580141
0.101079519003813
0.0972853844577073
0.101501500743811
0.096390187699473
0.0995500235186789
0.0975485999953859
0.100533204006654
0.096483265028454
0.0984410341960038
0.0966233535876095
0.0967556197228674
0.100292788424136
0.110348065169603
0.0956171477205833
0.0966849327515497
0.0979458030703038
0.0983480314255321
0.0951571354836098
0.0972071662852536
0.0944831199575212
0.0944020253911694
0.0937648583655374
0.0944842774482583
0.0936292818184742
0.0962260269044567
0.0942685946985532
0.0931583887545049
0.0941831591186023
0.0940338681516049
0.0922888465107253
0.0956059890564746
0.0928132800971657
0.0918148583884137
0.0910349844627272
0.0936885067676176
0.0907628885650588
0.0901030984388973
0.0910289486099766
0.100208977905236
0.0981793307301188
0.0935888229674678
0.093307185453578
0.0895146792451911
0.0914699846225134
0.0899089919980448
0.0911361355536327
0.0907055707287666
0.0887766870304052
0.0878436951283419
0.0879308766568802
0.0890741520595664
0.089871643456779
0.089481695955764
0.0858924591590035
0.0902965827468655
0.0889213004477314
0.0874383060930542
0.0877055112845868
0.0890966590073481
0.0859744162620857
0.0850752019581633
0.0914082533806993
0.0889343438889282
0.0886451068454966
0.0909442446551842
0.104782193435312
0.090400788904628
0.0857185809216123
0.0884432829593147
0.0828442152651926
0.0883412000224697
0.0840275223506657
0.0829841293242463
0.0832972623530734
0.0889680512878138
0.086748929434462
0.0866054821514439
0.0848076141305244
0.0870824305815886
0.0821782541357216
0.0838747542243901
0.0836243046201109
0.0865147430954209
0.0826182763961735
0.082894033612241
0.089275620336617
0.0987486697305653
0.0901659225783087
0.0849222838715864
0.0842250012093905
0.0857251306861898
0.09508209969994
0.100735710136281
0.076407757916547
0.0888415880816006
0.0809008455671018
0.0873072091616751
0.076337611217988
0.08597425773133
0.080403959129286
0.0907130909593655
0.0842646728538659
0.0883912319333639
0.0828148700350783
0.0815933253393183
0.0828655886370258
0.0852476412960786
0.0822310098472866
0.083665478831458
0.0779374743569676
0.0834746931770066
0.0811996620650075
0.0850736654819667
0.0800356234224307
0.0851949187759723
0.0807572404050862
0.090706135555131
0.0809916625843405
0.0826240184090222
0.0782394803505195
0.0852091461714743
0.0862032158402822
0.0970807423528315
0.0835914534716735
0.0820023110684684
0.0815947860383209
0.0797160051624212
0.0824821823084177
0.0818722142450746
0.0818596394509212
0.081325981646922
0.082168171851029
0.0830262950194868
0.0796360589602068
0.0804539119035734
0.0803813947943356
0.0793952960415467
0.0801040204468622
0.0809272088483568
0.0818132211144658
0.0824351675192846
0.0801946636904631
0.0882106520438752
0.0904779790443882
0.113162110477895
0.0886261487139164
0.0961219324839438
0.0843176844762863
0.0845505861668078
0.0784592848707887
0.0838250127366882
0.0783461519042753
0.0849843996533965
0.077942136987849
0.0804717287259151
0.0817801674826355
0.0801402033017756
0.0761411715584934
0.0811007974673404
0.0784749498273679
0.0808025486213385
0.0774618354933966
0.0808503813675946
0.0794033776267062
0.0789610825782888
0.0802994974005796
0.0877692262331634
0.092343290280009
0.0776484480775498
0.0958407074154038
0.0969136983336887
0.117139352694
0.0835358955667506
0.0881770861982972
0.0835966960995267
0.0813530450384124
0.0830317935328089
0.0850958502925206
0.0877539713420575
0.0824885520892212
0.0796630090578269
0.0828517414105164
0.0861970287142651
0.081671708312733
0.0876606501091357
0.099030170418914
0.112984123359888
0.0987605138795217
0.0808843321809341
0.0849622900905998
0.0932991157401685
0.107410174367135
0.0930598122559207
0.081958403445575
0.0943044487854375
0.080697798318488
0.0877148923962907
0.0808881748520167
0.0864725437818003
0.087218584874588
0.0906615649225301
0.0832117135032234
0.0872024193099212
0.0835712207301746
0.0900616337307874
0.0920611609207492
0.0985431411824257
0.0952423558577677
0.0901443232986214
0.0877540771489279
0.0933355678894613
0.0841768276125753
0.0891818422300475
0.0833312365749347
0.0891686289599977
0.0979858849617334
0.105961555784364
0.0957596095882463
0.104917349449133
0.0988457196034269
0.0920964976834397
0.0907988861330466
0.107583100931858
0.0908264896190212
0.0993820997193485
0.0941145815555846
0.128956658616982
0.114748537832407
0.109516991315756
0.0987646618345811
0.0893831850738402
0.0970443893973744
0.0859299337684289
0.100741528377152
0.100276437870541
0.106873769172549
0.0846045839349333
0.10082091984145
0.0952038813164115
0.113730476893662
0.0969558880053859
0.0985501332829396
0.0926499939114167
0.104790019524659
0.105514707449254
0.106223282601941
0.102319350804199
0.121856810021963
0.14012645957101
0.116497552158608
0.109659809990353
0.103943708411532
0.124911725302691
0.11428398449955
0.0952665690052047
0.10702153517333
0.095538519624627
0.103600004654664
0.108535956808171
0.128467737461364
0.114429504180679
0.100162080882493
0.108100054257032
0.110974389779365
0.124302828198765
0.121501258704994
0.100428046904804
0.111263299035034
0.104876283721946
0.12296073023265
0.131545576730384
0.147535221496934
0.118550543258216
0.151096222029013
0.13414325162489
0.129098979615491
0.12579064971656
0.120984734897293
0.1346350894668
0.14063357733033
0.122958645845121
0.122110854477921
0.139156414961589
0.146826968322106
0.131237451890017
0.12486689789542
0.133413586243909
0.126791561427374
0.180283588305724
0.195798141930477
0.16145229844462
0.136894754158766
0.145378250227689
0.159014205253756
0.148550628286463
0.133395289795992
0.139623988160458
0.137288361132355
0.137187741037925
0.14640482776292
0.150392925295875
0.146735052350576
0.146094787590983
0.149338247360203
0.150116718928814
0.186830901174994
0.212927265228506
0.189628948485827
0.180985463721574
0.178700842269249
0.197884705272512
0.163465560007022
0.170053721277048
0.161928435986059
0.176629680524003
0.16830419824059
0.164959015515296
0.177164784383271
0.193214655423923
0.197851818701412
0.197011139476931
0.204387450820178
0.189124478007302
0.184296766724779
0.236990943935153
0.267453902870378
0.258880916260029
0.197075976078657
0.23957873016018
0.225373178556597
0.303413238833181
0.241242684315178
0.228360166807589
0.233538400704646
0.243248914821052
0.248011952454773
0.265143394617543
0.266158460541599
0.288901627639217
0.267663922700826
0.287019948875022
0.286519973634111
0.40472829834749
0.35744343234182
0.331582666975866
0.312045017193902
0.346477281944477
0.34142518293716
0.342009533980683
0.338083493912199
0.357814727943614
0.365812554711358
0.41551680735088
0.387269062018263
0.376540749995914
0.399708457216488
0.412945060168877
0.424768824013595
0.442637701743452
0.467361250830115
0.423037558132822
0.442212441918791
0.43782660441063
0.453610262980438
0.460441052569955
0.491558779683751
0.500427090038097
0.478837813210077
0.496659037519244
0.49331230131773
0.507579198847792
0.514013361470407
0.522339489611649
0.531500797711844
0.565920309868334
0.598572876162355
0.685156954111664
0.593602523072333
0.527550577751937
0.537930703505622
0.548670303556055
0.581197797826105
0.597644854631059
0.582297408716135
0.593517569035153
0.542681015354067
0.555653991926068
0.550601246379336
0.555839532041571
0.559601831829681
0.54270590568193
0.556971591622246
0.583820980966806
0.582286550649113
0.596686377725695
0.628899838490071
0.581387960847883
0.557535197259907
0.559842516086552
0.553522728624673
0.553871256618817
0.548325191774656
0.573602475509895
0.574015165265356
0.561129976472628
0.539470499554177
0.54982205654674
0.560097453576731
0.583378721199998
0.53755675114997
0.53553732038602
0.520707128408645
0.512346908699164
0.516345529242917
0.545470338299928
0.563519941334108
0.523281494653921
0.485678363756856
0.496979964532838
0.485375022025928
0.495972777018545
0.491734309527487
0.503830321277954
0.481766669266192
0.490892927267055
0.48920194721267
0.487325664984939
0.470588715550903
0.484429455624557
0.473968802882428
0.487815752416649
0.476818207069311
0.480693139734877
0.475165167792919
0.483600070565351
0.476861681347275
0.479693482701228
0.474581786043903
0.492823012202197
0.47865227192653
0.484929996127435
0.479674354410988
0.481411549091618
0.4744007755805
0.48453127283222
0.476843657484696
0.478076708504641
0.475122452175175
0.482913384124559
0.479172493768324
0.477408221269761
0.469219636353299
0.4759307636114
0.472025097690673
0.4746904695056
0.465999447192927
0.471363722338258
0.479635641036217
0.527846436209396
0.502402078347794
0.464087017388613
0.465684914017967
0.461760468300149
0.449197616673018
0.45914881983997
0.49725414675356
0.488181043060201
0.442243040629784
0.44812595994865
0.43950921424391
0.45986600780712
0.440404128063823
0.442370009474218
0.421635310335555
0.435666772575002
0.449642678970246
0.523276152316543
0.522073721626932
0.527859642601223
0.439000152030883
0.422176868639083
0.43548378101804
0.452721258563356
0.420255301761494
0.400885407609434
0.406954581097627
0.445712481130936
0.427576399538714
0.403561532593734
0.39149747395132
0.394507915831728
0.423046184166859
0.43367446083368
0.411170189292648
0.421930371786799
0.426435567701522
0.414760764939127
0.443574690378426
0.47066119809005
0.403749635036426
0.372196796994291
0.369641520987892
0.369440841927371
0.383891810348325
0.424065517941386
0.374991307027124
0.369980542715179
0.351843919237268
0.344823597465123
0.351412682952692
0.373395192024453
0.357336032707552
0.369032178253942
0.371699331534474
0.343396391762048
0.344881749513744
0.369105606038675
0.379400757093142
0.406217571893449
0.337705771318569
0.325551894763324
0.371959567746837
0.375759201265456
0.343147944470477
0.336864263836359
0.31079490773242
0.328841288303509
0.327709193996157
0.320752101172753
0.326201570870881
0.337952248092685
0.334842699228132
0.383836497216679
0.39763716079519
0.359217718307382
0.307739686217176
0.294394224064805
0.292187808312705
0.301954787973233
0.284964495366228
0.297925674338515
0.325583141850549
0.308157272298768
0.29913901142052
0.344423090946802
0.310542463199001
0.295492694229685
0.297742316578087
0.29707092134895
0.306162667827404
0.343608901320878
0.354333561797943
0.327478357488835
0.329465215714088
0.342736040674254
0.320344726873688
0.322901867245225
0.324034772125249
0.328121919230568
0.334903853592503
0.355089407842426
0.347411339200626
0.355059303475108
0.357783015066311
0.363411954781372
0.397044122523953
0.404402642599603
0.386833330705232
0.422956724894951
0.438719219904214
0.465673353602553
0.43278568307057
0.419673855143985
0.423038371555204
0.436073489077801
0.439457858633432
0.444804798089447
0.460299142376778
0.490021486434106
0.467787814785661
0.4619403530822
0.468984181962817
0.476418805072563
0.487249152813252
0.526346612575469
0.522569332940021
0.571815721060552
0.549740786245858
0.541588498303623
0.509168087759153
0.514479787688705
0.516726358766266
0.519065413614734
0.510077775783953
0.517328454490471
0.523543731385316
0.55803602589745
0.526005056084307
0.534585556572593
0.528238589516761
0.530940739945202
0.529595765009761
0.539518817995935
0.538833225328705
0.554450764885504
0.552785783434709
0.554478525591153
0.554596765143935
0.641342028834267
0.58178858151223
0.577269829514491
0.573784916742506
0.588193441092469
0.583473461581654
0.585738837990446
0.610112765058556
0.615038065708424
0.602622101705152
0.606714354991339
0.60912755117349
0.614928776569254
0.624524108582112
0.649716241229961
0.625790532933029
0.62959411655459
0.621722930332434
0.666045585582361
0.686666721548422
0.665775298827288
0.661789407480604
0.663162162953103
0.639667723105767
0.65308406328295
0.643876603535549
0.655363142222514
0.656034455175729
0.656070104765282
0.66095783181079
0.667543361716595
0.663870418207589
0.65968012189982
0.661701708314345
0.69128644371064
0.665631348764419
0.662677868003955
0.649724185564786
0.666924493069192
0.652038810539375
0.685893072525058
0.673159519233068
0.679743791299514
0.666607892433197
0.675055050703378
0.679224991343118
0.674039142738921
0.654309309708533
0.668067318686501
0.648654868385841
0.666344956376873
0.654680246448615
0.687137201826678
0.699274576706433
0.676424734537417
0.664521225616471
0.666427727664829
0.664062346871865
0.680290148442586
0.679749637635403
0.687732486871897
0.687942595840428
0.698455264867222
0.693804928729645
0.687597025657681
0.691679716278974
0.694091170870775
0.716877974376981
0.701790424959128
0.692582476160691
0.688696375062362
0.683668756219813
0.69877216810899
0.688301527060449
0.688927240927947
0.672132837472345
0.669794273093336
0.657108275956085
0.675205502621089
0.685164485750097
0.666994900804882
0.660619953024742
0.659371604820499
0.635482541981794
0.631526898101037
0.629635624562107
0.620270830732392
0.620439654109159
0.630281375898924
0.613383449032723
0.608406866361059
0.609119400984859
0.613725297653776
0.607430004271607
0.613404713242549
0.604815570716629
0.604212074157349
0.603307444013882
0.604843768458266
0.594569041656545
0.604388457495231
0.600361363579068
0.591118513199935
0.612575966950651
0.622043438366207
0.622917142891966
0.607266777602345
0.601151984782364
0.602553796420996
0.588123022954776
0.599679852437486
0.594702310345686
0.595070409282089
0.588930254899113
0.595773688095851
0.588551240489493
0.59781747342054
0.591145802339681
0.59295151594468
0.59241986991824
0.592835112600306
0.583344617867312
0.591753854077349
0.587951525577428
0.596953223418732
0.58777505568487
0.59681666139794
0.588744892808709
0.599452681010975
0.589810842606973
0.587754988079734
0.592724107822598
0.591831019529106
0.596162814399038
0.589061449060323
0.587244979506735
0.590393234747669
0.592172154769492
0.592478523882597
0.583838901690765
0.588111466804391
0.582049851839858
0.588603745402202
0.576203899989285
0.581644759810669
0.56851706296484
0.573163028628483
0.570133179907974
0.567596970630868
0.561967633040309
0.559108662589973
0.549315209457857
0.55445925230235
0.540228966908991
0.539613784878291
0.535270307777539
0.530937563914636
0.522190192338266
0.524776254257869
0.52591409443815
0.523867739807446
0.514802697862506
0.519959706503948
0.511562896313864
0.517527247642842
0.510195890976935
0.511159611005761
0.515063145783049
0.51063460819303
0.51411057930963
0.509001107980995
0.513050156393384
0.515621776780336
0.5136507214886
0.513775446992912
0.515827125804054
0.520690021068299
0.523323446358057
0.523554228178327
0.52315294984867
0.529544758252038
0.522977607250888
0.530996391877481
0.534040008438261
0.53652373682309
0.530272957961674
0.53850870871199
0.534350386259485
0.539765119501996
0.538095494394672
0.543998386062174
0.54460057654241
0.546842495006431
0.540481915751225
0.542608533302191
0.544637149269096
0.545381342788641
0.537045725771425
0.541342553333449
0.538290761586481
0.536958961878997
0.52885309054087
0.534732794769932
0.532538900343687
0.534805114740758
0.526639056922962
0.5284606551699
0.524394895097151
0.524444557332291
0.522172266192668
0.524543016947742
0.514855300594882
0.519676476675761
0.514072191921718
0.519781562042784
0.511828650936431
0.508834483923528
0.511986274145959
0.510326892140347
0.507822227767417
0.503456527747184
0.503706104817568
0.501917175813351
0.499311584763218
0.498565535139975
0.498620768952042
0.49811224460032
0.49870256535221
0.496274784221336
0.490448776060171
0.489103560173696
0.487880193675577
0.482984578544977
0.486263253505974
0.478099902474804
0.474218040342954
0.477397870700477
0.47155384164025
0.4691836802229
0.464156213805104
0.463129777972299
0.462795702720778
0.457967817389291
0.450634660476662
0.451985626656325
0.447131015808126
0.441294504299566
0.442720589030611
0.44533254711953
0.43595215397448
0.437367228631959
0.434162166146442
0.434064164058486
0.433682824030859
0.431187104408117
0.426595165709289
0.431980109361397
0.423049218392106
0.424777822949467
0.416845951731121
0.417094935916648
0.410034344258167
0.405728881163564
0.398471100522598
0.39307961889029
0.389279421898915
0.387062099870909
0.382766804977606
0.381958103852988
0.379096864108845
0.379129721363412
0.382527728957947
0.38781470613309
0.389098791543448
0.397633675946059
0.403883199971378
0.414675372310985
0.425612785126877
0.440642554972295
0.451466242159371
0.469375457813356
0.488539224164404
0.502579248503911
0.514992562396031
0.539419511185733
0.547446112614492
0.574735404790451
0.585335344711829
0.607364402610968
0.622494516125355
0.637848562260653
0.659191746351966
0.674880602739169
0.690751359850994
0.705785393490839
0.721637076083218
0.734830992327595
0.742372047962955
0.753523290273515
0.773787091303131
0.777629656319351
0.78525500145213
0.802124217065592
0.810967428252168
0.816001847241075
0.814863424786193
0.829552487844149
0.835262239518895
0.838896375500703
0.827260308522388
0.841269465041098
0.848979872759553
0.833317622054252
0.83972789296447
0.847464187395641
0.849267321654099
0.850584477965867
0.84995643701791
0.858209832863938
0.85885862874815
0.855405768783459
0.856436314723492
0.867169348732565
0.861628119692015
0.87785477961565
0.87827694506214
0.886819755164579
0.901463851074244
0.902352921101894
0.919297216131348
0.912748896638122
0.921880762027893
0.929476201647305
0.943713265630463
0.960918509727783
0.967180793499332
0.974276788185107
0.985331220429086
1.01840747795177
1.03349970276667
1.03103043170889
1.05285629506441
1.05673706816421
1.05553760853118
1.06768827729656
1.06897859544372
1.08356499732368
1.07737583917466
1.06775120932352
1.08757872604923
1.05969054831755
1.0533568009379
1.04851869992338
1.05592203281627
1.04725522541188
1.06300278941403
1.05272456801227
1.05943308394639
1.05818468883334
1.08504016402613
1.08518777843688
1.11055125574447
1.12152819788638
1.1506137360531
1.15119947325721
1.15670627081647
1.18627275529763
1.21840762347767
1.21403870294652
1.24905402016051
1.25610012043786
1.30734461270247
1.2722361041788
1.31945198041048
1.3311164098775
1.34821269212809
1.35320341646439
1.3140080776991
1.40531473195673
1.43200690758098
1.47129701931989
1.47638655227775
1.48017240352374
1.53901980978203
1.54879788842258
1.53768536659137
1.53973976562214
1.61573959925356
1.69894571837417
1.67675068183537
1.60158238536386
1.69396752062753
1.67755142575821
1.75702709799296
1.71967600536171
1.77688977639098
1.68087242856584
1.72836492651795
1.71982554373135
1.76464266889467
1.74241173429411
1.76720301324945
1.70866830166105
1.75350332528492
1.70039509590231
1.6499338549858
1.72767340355827
1.73618073881169
1.75143202896013
1.78294769152882
1.68834912531868
1.87380249119781
1.7046010371817
1.85778436665222
1.8136514174764
1.86587587798994
1.74145063688601
1.97058942710241
1.81616866234358
1.79366327023767
1.89707318380572
1.89044575485616
1.92636693575541
1.91143487660423
1.85940145251442
1.86507836042695
1.95549499986387
1.88647873104846
1.89469543735552
1.94024215207321
1.84064061481838
2.0033172694742
2.00042176746254
2.08044246790517
1.88663881652573
2.28932341216224
1.96954135175187
2.01610783737233
1.88931474488708
2.01746484059617
1.95367279378835
1.98373280164881
2.11251102410865
2.30717966234695
1.9471182672033
2.12880469240974
2.1038323884781
2.00649146504322
1.98915138400006
2.30943453844493
2.13819854669912
1.95289192455945
1.84230522653711
2.10242775082224
1.82557901436396
1.97659807547674
1.84718568489387
1.87464277989372
1.67821429457021
1.78449393499598
1.70720056990528
1.72685654429271
1.61916410757727
1.6506990028423
1.53567558104708
1.5784396409359
1.46679748823035
1.55029198728295
1.53698917074296
1.53131949082874
1.48527146670788
1.47385690042382
1.45542223237894
1.48570441302147
1.40886284191391
1.48805226283217
1.3927005864607
1.42773522880139
1.37178070086651
1.40595427855851
1.39038676076133
1.38944250163542
1.38903460357084
1.36072039867464
1.31533423561771
1.33923425321434
1.27066576959732
1.31873677892783
1.27939025547513
1.23274258006929
1.23345854895287
1.20956623451272
1.15022355461238
1.16972347811952
1.11292451761789
1.05802288492637
1.03157989987833
1.00015397071112
0.954501141981941
0.933075493657041
0.888809046117624
0.85209306750354
0.836693904425639
0.802157422216167
0.765809026124474
0.751050490321232
0.717614322012977
0.714111267304175
0.675964923358607
0.652930718504135
0.640828548554946
0.635663631324166
0.629310698268549
0.618737513301225
0.6014689925071
0.607165133292714
0.59801352015891
0.593534549686453
0.581803270300183
0.584886362335659
0.583387831779231
0.592497326649795
0.590746297813942
0.582673834829109
0.577890435801211
0.586838398726349
0.586999133450314
0.583422949312219
0.580851483027837
0.580250176734236
0.57434087460101
0.574624587765168
0.563998610780291
0.570075114583381
0.562474216651297
0.566699332580539
0.545813844412627
0.550071198278888
0.535023993670856
0.539303823985392
0.534353761656643
0.528303390648131
0.528078534067239
0.531762888286654
0.535251780893109
0.530290888386287
0.538761529012654
0.542375359666764
0.547233476764445
0.544253711851487
0.549910380697909
0.557544037130094
0.553883578179685
0.563559258877411
0.557113433861022
0.570837123675815
0.564747480812492
0.562620344774753
0.567592541055031
0.570645471120991
0.569342980099778
0.577322646156816
0.569412249922878
0.576112598760708
0.561757501826216
0.57486474241926
0.574378779917612
0.572486772260727
0.581192552881284
0.57532687564936
0.5864202270188
0.593437649930027
0.591703612449738
0.610413524997408
0.610769915251124
0.63016248734677
0.640284220890025
0.657944355429416
0.67071691737391
0.694043584780616
0.705870835497064
0.718609103664418
0.72144830104552
0.73915256246507
0.727562760290878
0.733465637466897
0.73059115725804
0.724573079248645
0.727006726382688
0.723670224964911
0.710688062818356
0.695960586336031
0.669363860940366
0.668813949670238
0.663932434714512
0.675279848959523
0.670068541724131
0.669899091802109
0.648339477872581
0.667293907195686
0.669698639322948
0.683578100138058
0.685299265939794
0.669070877190909
0.658948753012714
0.667185366238131
0.668520554131505
0.655665328334401
0.646930025666462
0.646524868610487
0.644685998669743
0.633054581828771
0.617082170406579
0.628712295904172
0.616364627824854
0.625562587615295
0.608805426404734
0.626893569645047
0.606670844014192
0.610814628698298
0.58952902119675
0.584311250210227
0.604951445249146
0.599892104118421
0.597694838430248
0.590897711970209
0.585663361363396
0.586973172440683
0.587809299036575
0.591304887741373
0.582834870516001
0.585662665260088
0.563138164787228
0.579162029449276
0.564445142691611
0.581485018568603
0.570446333641028
0.572841123272511
0.553906295374328
0.553204738427541
0.56123804585335
0.552420171179902
0.54680313278641
0.550107991543956
0.53931583908164
0.552231214832324
0.54523243594531
0.534054433139786
0.525449586268547
0.536214886799023
0.535705844059213
0.545687658075515
0.528255086657948
0.531359373194467
0.533314632206113
0.530303649674951
0.527281827758636
0.532815004929094
0.547830509601191
0.536120641735333
0.518401536087356
0.533646083164585
0.523379477722353
0.529977646987748
0.530514239014169
0.546210126224979
0.546941489979835
0.550117445597681
0.559081371672885
0.567799922275709
0.560266994899061
0.55564361411802
0.536134060446905
0.578151679846418
0.552902136175124
0.576925773768958
0.59607767560894
0.570904355104498
0.587839666585093
0.605165191573175
0.576378201014867
0.610423183154739
0.601860467239343
0.608152032285533
0.643168679079553
0.66001689968764
0.647189345938429
0.644820496845286
0.675250984181707
0.6881928881116
0.686740012712798
0.747091230216116
0.726665865384716
0.772929225974927
0.769542704467025
0.804652642250792
0.799531063692775
0.799945895479048
0.799947439769689
0.829382394345963
0.86229519826139
0.917004838893711
0.910911055192559
0.91840260756492
0.837783601037362
0.845129155531096
0.881552257964016
0.822836191255925
0.830264353363818
0.900212313614659
0.829193336549789
0.890588217524691
0.863555710918012
0.895407828135044
0.863330927809442
0.814570769596421
0.807300392819859
0.81692474846694
0.79365311279015
0.849487033484171
0.857232593756448
0.880559571599541
0.837622137023318
0.906664900165732
0.837039825329666
0.788522068276413
0.804188776506394
0.855285275060098
0.803057794377517
0.806912261172063
0.785091293624275
0.813407362398574
0.813294764291698
0.859320205790029
0.78149678326308
0.814665341388215
0.806733268824311
0.782501147511764
0.769898840652156
0.780880676221133
0.813161350438821
0.839881890787103
0.771233639474408
0.80346568873703
0.772930847969776
0.823004013963121
0.831036235537294
0.843324108558869
0.725776089538128
0.771164988460855
0.762662126544934
0.795168107025702
0.891961674532133
0.900815281310082
0.820600236195348
0.869748424757652
0.820644371859797
0.804125841928107
0.807808036978083
0.956168156403936
0.913982400769942
0.887849231355395
0.830325772803886
0.803461859767338
0.758939004066135
0.860472430659185
0.777281380750844
0.784177364621836
0.84651079660534
0.883906472944249
0.825775542804511
0.957387138732848
0.915311267109293
0.901654380587967
0.933026142777324
0.959915312661801
0.830517306697909
1.00653174879404
1.05691563510145
0.955330348506301
1.00461752069075
1.04403186318659
0.888542940750051
0.918970134286299
1.11867240740529
1.19032689843688
1.04288389883906
1.27548923665696
1.10120874440216
1.01275834958023
0.941962745545998
1.11639209946558
1.22951646089536
1.08743423450487
1.03003511897903
1.38760652841368
1.15624711310825
0.929893712141575
0.898541647440434
1.11324277167818
0.970861399226715
1.0378555498228
0.907865069253467
0.986516492841027
1.28608023666813
1.03099263952806
0.961140388829652
1.30504331606093
1.12633139121682
1.01204526085891
1.01987723989222
1.56696352750941
1.25827575503923
1.20636598330615
1.16700878739705
0.847501463830707
0.823207974345358
0.905441206709053
1.01848374751693
1.38184181535581
0.933979163998047
1.06503405620339
1.17333750330023
1.66495814593039
1.77888011506596
5
5
1.16031730217419
0.920999548300047
0.912380724060818
0.794240143102913
1.32078052285779
0.69009999687635
1.10627533002537
1.35194604119305
1.02822546614966
1.00123974518178
5
1.11951862819445
0.792147686394892
1.30613169769832
1.38619383761249
5
0.895257514686388
0.455908347591149
