3596
4000.36533379555
650.420452594757
1
2
2
0.105956334055907
0.119850210563964
0.10106596372261
0.120047968370613
0.116068823124791
0.119929430699745
0.11054625644965
0.120565013304701
0.107423997686634
0.125583237540283
0.108468860963038
0.114436645870812
0.0956474730315663
0.112071220950146
0.0979410834736812
0.120583619557421
0.109829719314473
0.119849008401465
0.100634504753625
0.123160502535028
0.104534459348018
0.119239744896676
0.100052858275132
0.118594525997166
0.101079880304468
0.127110402892223
0.104612888714954
0.116722453424819
0.113828257299159
0.116718345925256
0.0990135786912115
0.124315756426142
0.107133370832641
0.119681062951613
0.103278719810084
0.122059910764239
0.104166259152975
0.117437949332635
0.106328608166031
0.124233715607307
0.108841007850789
0.120049472659083
0.113973029257396
0.123902661421171
0.103987778158501
0.123150819396853
0.106571389561208
0.114087057423109
0.105683952541011
0.122289971988591
0.110291788557317
0.116855791623055
0.116453977456477
0.137556139652364
0.106540037909248
0.129169768807983
0.100809202262327
0.121577104629669
0.105693811001157
0.120378306846528
0.122396462645736
0.128639954974253
0.102835072316871
0.116753461462284
0.106689835414748
0.11686980598424
0.102302670411716
0.110905874840814
0.099778397649691
0.124963181411546
0.102641622161024
0.133781338724916
0.111895854898092
0.126596605901167
0.10934135292954
0.116846935247201
0.0906389262819968
0.108796776365002
0.102660640843351
0.127811165962973
0.114968249182933
0.120993796341779
0.099540305630604
0.110272667636457
0.119646477355939
0.130829159286749
0.0932136976238092
0.132382996975625
0.116609470201762
0.115746225148472
0.0994624456047173
0.108611140900159
0.0939964748615521
0.111452819876668
0.0937442933195672
0.112801418088032
0.0977807883699184
0.116090428779525
0.0920670716900539
0.124924457517578
0.11750270287516
0.146633284819438
0.129808324407295
0.118852100270083
0.149753625348078
0.119506729478814
0.108382310419927
0.14942608863567
0.115124641656491
0.119855570887898
0.0975290646409882
0.116137728079357
0.0927885164326458
0.125923897027229
0.0916935953963713
0.144382611039482
0.117911901788816
0.112947659495799
0.0933185244479492
0.105528108384426
0.0902879233808732
0.16100400431092
0.120324065701889
0.117508386243369
0.10886848694787
0.104735605537324
0.0942496346950644
0.169157300536723
0.114556692902923
0.113400913359476
0.0998209322739863
0.109573330550728
0.0840248561007199
0.122771071285222
0.125855946972916
0.120875385583853
0.0987411558089622
0.110508867751615
0.131406714103489
0.165044706250349
0.103317721141398
0.112279318742174
0.083399418610008
0.14209815908352
0.127211518702248
0.119376871188915
0.103023822382998
0.135821658023767
0.0982023980958972
0.118628146923698
0.0853052733802799
0.105926327077196
0.109773286371458
0.116183907773517
0.0742965022138992
0.207853936139488
0.125259465716263
0.159222201550022
0.133332569034193
0.111873539014386
0.101116203150775
0.0995515742588751
0.0861320970701301
0.102545362668507
0.0982295671744798
0.0931790715553948
0.110969943202662
0.126537245880656
0.106413322343986
0.126969218141917
0.129310336666298
0.117325444515916
0.0974107493292866
0.183233374767249
0.10019611184124
0.119917799018006
0.124293126276104
0.119312756862691
0.08343695035902
0.122406120563224
0.112536452177479
0.111236166428671
0.0969521554737097
0.110693302238853
0.102082681306266
0.121587492461966
0.0936570822907042
0.110446360937489
0.0961936469657807
0.0966158433172392
0.112533928739731
0.174632107959984
0.117008122271758
0.10729676893269
0.0935456304720218
0.0920163589302491
0.130830154337077
0.123503781471954
0.0916471458998227
0.104256352347382
0.0840638607181307
0.107883909816995
0.0869180047799417
0.114519588844485
0.0879251416844905
0.105096868442099
0.137772953589075
0.118293379791084
0.0918207705844249
0.0980066528076434
0.0950895781416446
0.106446721915316
0.16270679426921
0.131328349574116
0.103488561621937
0.101053883689904
0.095639705024215
0.133806983745414
0.0985404037794245
0.110418633888684
0.0927574807235818
0.105516369299218
0.0809062353606097
0.102818577546816
0.0943846925600392
0.102146019437745
0.0913816479449805
0.100352790842176
0.0844838223391824
0.119505739279234
0.107315900927955
0.10838226010666
0.0941184530922675
0.101343310892775
0.0831197705706252
0.137242076286496
0.10907920988986
0.103641327242672
0.0908835821366845
0.0975495576871953
0.0847632773187879
0.0981278339308789
0.0928687717462176
0.109841115580123
0.0897422433184069
0.116157177906599
0.133591891072392
0.106779204646167
0.0921242360050559
0.0946330144958672
0.127771491142874
0.115536026595645
0.100562275125145
0.105721683747205
0.0981144650711015
0.0955317407688219
0.105756544863945
0.137579798885407
0.104302503848322
0.0962437105831061
0.111305432115411
0.11687664118132
0.0975993364183317
0.10783731388115
0.11365224085431
0.195988217847716
0.101920532787512
0.141346570790812
0.161606911015926
0.121037627323602
0.109042245248985
0.114156971632228
0.0916357543606316
0.264124996482874
0.145593835438598
0.111830598295309
0.10174269570867
0.131092326678895
0.0971943348315524
0.133985573850027
0.0984935397550796
0.142764729603777
0.124298325229488
0.165133567157149
0.143418918068934
0.10374452489491
0.141998360108772
0.136038607806811
0.10614964595357
0.116642620173499
0.108521517905087
0.111797743983312
0.131848543524011
0.126928692444876
0.132116019422403
0.116463026387712
0.119743431239309
0.149893915111765
0.115018589544781
0.110600006398838
0.111324939189601
0.128843234626136
0.0988958452121399
0.110958457645995
0.105839935584009
0.126679493454539
0.0939495867589438
0.138009071910181
0.169151864147954
0.134729177926853
0.114774423265333
0.154283074640484
0.107355048009656
0.114079469233667
0.0969293227485582
0.120503072829777
0.109669306226317
0.119880503666767
0.11130723236294
0.155234907360647
0.104232062924602
0.130290346779704
0.105121428619472
0.124292690832567
0.105422253778095
0.118296958726546
0.107399217198933
0.122568742999057
0.11064415367064
0.12077356055159
0.130050072374004
0.16537781205496
0.1017652846936
0.182329273246213
0.137857181547566
0.126675353318669
0.106060152102778
0.133165637627365
0.126915950923383
0.11752836637015
0.123371067877778
0.134185817796692
0.133509944283958
0.150384529244083
0.133422078326004
0.151523657140821
0.137873906124811
0.222430753773937
0.18603364116582
0.150403676091537
0.136410625889021
0.124806688310047
0.192532654919313
0.169921905194651
0.171130086176731
0.182152995479934
0.132672081241613
0.156691597337138
0.1286063358229
0.150136141357991
0.138892747724694
0.159168594827065
0.129886417768779
0.156375789188761
0.148884483180857
0.168998602486105
0.144325798164844
0.185547474424076
0.195669872158398
0.173057734352282
0.147814807857672
0.171619670563143
0.153449034607547
0.226573211100728
0.178936440990921
0.261937109413603
0.195777632876036
0.234599451137717
0.20850543106674
0.178033737173025
0.1777866809434
0.178741122648615
0.180721781024003
0.206769852953798
0.185424383951738
0.205344229190446
0.18758451113799
0.207334604935138
0.196246911556344
0.202057883699531
0.196798065678604
0.224286410513122
0.226925753515841
0.215670416167135
0.216231158461341
0.20993394225012
0.241610219193521
0.308930773182377
0.261969887696682
0.23598636016379
0.224809347068675
0.238085034486926
0.228841740012028
0.242777127003126
0.231916136570372
0.26331531842321
0.241159288805883
0.306202088908861
0.26244094026056
0.29905100349584
0.262802022980673
0.257124775416487
0.289449047255452
0.272733268562111
0.295512214979409
0.318948601655555
0.272536206284071
0.286049740525501
0.303227613729393
0.307824539911032
0.295915127413022
0.335277591880661
0.287458104094348
0.295060768731104
0.290591271621488
0.320908193382285
0.293506632612077
0.341255607906777
0.298549757299414
0.324023043006194
0.329653313885079
0.339082030154723
0.313130500069024
0.373847070735543
0.321902662445094
0.366006005824269
0.347876330788746
0.346327499905099
0.346343280984631
0.350981234430905
0.375213208001726
0.406799534102777
0.403585376473026
0.413966954097087
0.352248837359836
0.376777131518755
0.355920613791038
0.39404219128461
0.351577721639236
0.407389673830525
0.404115943241443
0.396537012326345
0.377385556351719
0.430707602263152
0.397076106660654
0.415821282570951
0.412417412466197
0.47022316662392
0.413183779349746
0.433373433842064
0.422458137439079
0.425785243158821
0.453895684926094
0.508900219755387
0.479183666697192
0.507529650993759
0.451328595099625
0.511844880322435
0.433088086646391
0.479263884900814
0.46105696791516
0.496858937687742
0.480385087427286
0.517865878768822
0.476146623404088
0.499495923646792
0.471089603134859
0.564335190861025
0.523092903828254
0.564135510567983
0.506006668724399
0.540243990602629
0.521989318901094
0.552906683792313
0.539179018191172
0.569374707413589
0.534336698444693
0.600368400866666
0.52790193916499
0.566734060885407
0.570985599613308
0.599982405249942
0.541094910813763
0.62271420411223
0.590122999604091
0.623694557038033
0.569913227502612
0.664969375495645
0.560554261597242
0.654501525909537
0.604112395383502
0.647920196833751
0.60054064633983
0.660662524509891
0.620998430772034
0.714692866849354
0.658170433853323
0.717560656573525
0.633724282287425
0.700287520731902
0.657180858796525
0.726387248020157
0.66020676408486
0.720815321886312
0.661526823069674
0.732012155216822
0.680865695543993
0.714374724322161
0.646434308010896
0.746591011001719
0.692035275294791
0.762222638272699
0.719814216895013
0.757640312473945
0.723120953668945
0.837249336879935
0.703185479071348
0.771969599676225
0.73552626634384
0.811913576125208
0.740191018140755
0.814484985033279
0.822301526497836
0.83678109167308
0.799538164688472
0.800493078647967
0.770349880273836
0.846887832940339
0.780171978871845
0.884568817091098
0.830760085733018
0.837164612988597
0.84285379635328
0.868029469979502
0.833772126616486
0.910617864074549
0.847644186866417
0.860798217444113
0.836415252717805
0.907619935377616
0.843861930892932
0.91055521204225
0.859911345678248
0.95174134135195
0.885416256506347
0.923893861045791
0.849653803777617
0.896061332690169
0.890572926696457
0.995402709601641
0.897208499734901
0.934936959232182
0.917327732491917
1.06240115574774
0.958858328560539
0.957870239188695
0.912162911513653
0.923959180222962
0.885880172359902
1.05819259632408
0.961111953727189
1.02098055974588
0.974882149009257
1.04708660835505
0.934956344541958
1.08336059198543
0.994379055753548
1.11342651539443
0.989134044650121
1.08661101120782
0.982145098633105
1.04931609953672
0.992730949792469
1.05711342255006
1.03860478770879
1.0896374694261
0.984638962539942
1.10955811355851
1.07923043944739
1.10623210396435
1.03353155818428
1.15771908484538
1.12528398115038
1.11212612564629
1.08119761461511
1.1148094317353
0.973070583078696
1.13847307235813
1.11303894797941
1.13561276907914
1.10772614036195
1.12419649654222
1.18923189383906
1.26360235142758
1.15874092177561
1.22572426273838
1.11419229671842
1.26174607503418
1.09508076586254
1.23643681828104
1.1294282481282
1.21983175886574
1.16424033370106
1.2501413578017
1.11455819162734
1.28167654522226
1.11293412557261
1.30335956628517
1.22652795550851
1.37969377459897
1.14515026244617
1.24442176530131
1.18140838861116
1.41779607299292
1.21355502138437
1.21026018963871
1.19768409745119
1.28972802124407
1.1744968303734
1.22241348411239
1.22604521828475
1.36312774858641
1.1880508856515
1.32860457658345
1.32830362686577
1.39748475039495
1.18880602966145
1.37903162095521
1.3211228472272
1.33534115277398
1.20845965842051
1.29622964066513
1.21503212763888
1.26401661994473
1.36718072054621
1.58545580632113
1.24234655609191
1.38229685140601
1.39361627181293
1.40212826823643
1.18264460208088
1.57611932273332
1.40994463996698
1.5196510773263
1.27557083136905
1.49005684110282
1.32587208525336
1.38633350346015
1.45093124892579
1.53841384421294
1.33254611172913
1.43872072620748
1.2602742691871
1.39046051392844
1.31180496725884
1.38875936678656
1.37574581446782
1.41692973088668
1.2383229396734
1.61377825915416
1.36048256074138
1.41966325205331
1.41582457231776
1.41128425570519
1.42966112529687
1.32151909257636
1.33696023834735
1.41736492432351
1.49444126837094
1.44631037435044
1.42984543558725
1.62976520228469
1.48858623020364
1.4597536534203
1.47064651591359
1.54269857958855
1.36945759744852
1.64027715057774
1.52006939157885
1.42162543822229
1.42863553769375
1.51092902791258
1.38024981225435
1.52532496054903
1.40965465273573
1.4350683182527
1.56613846092505
1.40735015342553
1.37553789547912
1.6190671342977
1.45119844674325
1.42950376703493
1.62722976049677
1.69405741904009
1.50571525478457
1.72436866723524
1.5089742214919
1.44317396621492
1.42415693747076
1.41997464627547
1.46425564415903
1.51391853962167
1.4425904659706
1.52069970196801
1.39549152978036
1.47882624733579
1.58893738361661
1.70351687845331
1.66036442522172
1.61060968213504
1.48753827467386
1.79001923462404
1.38890063649891
1.50450376482033
1.46811011550441
1.51229962544036
1.42262378365423
1.49038498598336
1.4800126878913
1.55689497570091
1.60314554685643
1.74440575355087
1.41262871619719
1.45698534015072
1.43462843192426
1.39770837657022
1.5611036986537
1.53238205430562
1.54849754997061
1.7102232483208
1.53526068523416
1.638363097078
1.50728170851134
1.55763008187516
1.47507270338334
1.4745146041538
1.5563951498541
1.56111339291219
1.47549639323721
1.57073560547103
1.38704374312722
1.53596223891768
1.42055473325308
1.49150940816765
1.58181594971719
1.59312898225724
1.55341908872351
1.73123418750545
1.51808730403766
1.40464127844645
1.50622848250655
1.51625735238614
1.57789293071364
1.52968201754914
1.5150528596182
1.45273772419587
1.5188615664692
1.5376290383717
1.55546962999574
1.48572507598289
1.52327901760855
1.60407119249483
1.43348688656868
1.51455912242464
1.57365300205549
1.65398007434392
1.5585562544332
1.63997960860353
1.55661401402964
1.62262205983911
1.4083257437484
1.52526607274218
1.54796003584802
1.47646369099694
1.48875189932729
1.68562600646915
1.38826397428478
1.43389155041254
1.53138845842467
1.46431667149314
1.45297048839083
1.56594442314983
1.54556906135613
1.61826984154316
1.49110457611636
1.54174430136727
1.67066600280399
1.61163413508789
1.42551365494065
1.53870286677068
1.63951967951964
1.53937959422286
1.42753713246242
1.48130499367253
1.40514991827202
1.5809811690332
1.5275938510304
1.50041912225482
1.68047596449163
1.63093679163344
1.49888153282795
1.43698469271197
1.3750236976276
1.46502791301785
1.51626149479637
1.50380100323661
1.47615838177615
1.43912319998168
1.40442365929644
1.52391073724901
1.43954668516617
1.47698048681441
1.42641218040908
1.45353393929216
1.4161917634182
1.39540088440679
1.46435601107408
1.37729601065252
1.41838876079403
1.45963788452748
1.40700442646555
1.48225782667811
1.45388032569254
1.41464813043457
1.4462995864425
1.52283563680944
1.36141459008142
1.45770804704506
1.46993183317649
1.3896638693491
1.41680590164998
1.43371750590367
1.42853208996673
1.48157936417798
1.25031220978546
1.29317504958634
1.37219255865826
1.4845586443341
1.32260546475146
1.37467946156901
1.42960095902759
1.48482488124371
1.35455533952354
1.33820844666204
1.36970055516977
1.32844482592848
1.32719803597914
1.39840825975584
1.3771549408545
1.38283078036654
1.28844717521771
1.29891463410574
1.28699823948491
1.28827138445871
1.31002825703381
1.28330688845865
1.27708127707794
1.28525807570993
1.29878089254507
1.27690080104185
1.28130752110976
1.38547060626732
1.36492498682441
1.26172835194357
1.27528485753076
1.30749217025062
1.18303477363473
1.28458254469237
1.26445040797615
1.24592808070321
1.25081120328901
1.19866598629731
1.16419653079632
1.17724355869711
1.23160483212266
1.28589057260153
1.23598306147102
1.24153982911479
1.17256977891089
1.19432617430792
1.1676703019492
1.12926135149362
1.14632472736083
1.23948294228747
1.19432507423389
1.15774343443084
1.15862951628295
1.18159559367993
1.15856132358752
1.10208544759536
1.10660278998782
1.16162224255394
1.12896435084269
1.11317944390175
1.09985169115659
1.11390144480892
1.07976257748626
1.08050352010009
1.09069516212778
1.10223847461743
1.0827488460948
1.12197721522789
1.08066866792007
1.05486254592982
1.06613780193898
1.07675652876553
1.06388422450249
1.05550568467889
1.0340586678669
1.05164260013349
1.0602410631254
1.06105031045178
1.03975778898208
1.01142882205491
0.972633787706523
1.03135979504452
1.01895200494532
1.01460940245763
1.00076870724317
0.994960699174702
0.979787813040172
1.01999435212037
1.01525882698096
1.02939724472713
1.00761438464492
0.985763253544998
0.979676542551213
0.971011471712033
0.956848954571451
0.923797733734287
0.923046475530161
0.934462933112797
0.933674724138455
0.935831090055796
0.934703631583027
0.955850959484264
0.930750748224512
0.93717483391537
0.93117092425571
0.920726747789646
0.91614773268747
0.920119867930823
0.891645470547709
0.891583040271587
0.910937987504772
0.887091284874602
0.866504969169465
0.866151027897505
0.871053663677706
0.884932496868372
0.867087923315109
0.869357011623501
0.839057839158183
0.85409405773499
0.848976934527773
0.8470202550915
0.840589690131633
0.839681977492226
0.843748677892345
0.837867619943997
0.8256664306029
0.848195954908369
0.852580561151746
0.827001033712237
0.819572825125394
0.830579254986624
0.809266671269135
0.81764665112375
0.805056786295932
0.813760744670912
0.783548630729397
0.775797544795454
0.78652993720776
0.784058682826735
0.777293216571244
0.783644531949047
0.770767368615285
0.790643075596271
0.754269382347634
0.750299216698959
0.763908738710377
0.767604548885205
0.750896272366382
0.746364665138044
0.739241687479348
0.758508135215443
0.748656124838441
0.759173388934424
0.751207841727881
0.732456600549583
0.729023242192228
0.727998159323415
0.726425028046267
0.726641396613937
0.714980809517691
0.720940833103272
0.708954865729153
0.700415061905682
0.702948080263927
0.706941162386807
0.700609740524642
0.708369082352199
0.697748477110859
0.699541076581444
0.684419362175992
0.687883340299137
0.687375817460079
0.676729766793053
0.665098994409103
0.659556382065468
0.657535439828264
0.672141015662084
0.647876379600577
0.650822008048812
0.649070530468329
0.650606860475566
0.653052246937577
0.643658870282173
0.640012929818848
0.642756431413977
0.625470535578772
0.628035262559263
0.626326344305072
0.632168435618918
0.624290566617491
0.628166972931588
0.622659945347559
0.614843405289684
0.603207720887963
0.61863077662039
0.608781564249103
0.617096095926228
0.612578223166698
0.607950732683456
0.597066533175746
0.591041807433104
0.592117093374655
0.601239446273129
0.597555679060621
0.585088241073317
0.573455401098986
0.573571057623715
0.578959817795201
0.579581109614995
0.573354966936983
0.581438312405181
0.575918705674753
0.562959948216908
0.556580532750053
0.569703424368101
0.569833816082369
0.558690684956422
0.5505641042272
0.556466342259843
0.547251724242463
0.5541890765347
0.551265887041667
0.546573677950926
0.545529888374717
0.552058315777609
0.547437454616907
0.537476931095382
0.537163905967444
0.54197408499558
0.536383098399532
0.537188129193335
0.537243436663179
0.546554087672119
0.534971414258446
0.536552951488443
0.535190725788683
0.541373285393614
0.553011005650773
0.543497387128968
0.538536989947179
0.545368247847429
0.545192377347425
0.550257268422681
0.546810144606358
0.554413034349924
0.53994320132088
0.543380348484031
0.550252624409755
0.550017450622442
0.553301837326425
0.553392821815145
0.555510049293404
0.564975159030656
0.561086594422249
0.573716488664473
0.567228894337408
0.576227878245463
0.5731704410473
0.568570084006303
0.572355072736411
0.580675210389875
0.581850211717057
0.594480653821006
0.589963176233696
0.583046128072406
0.59494451512213
0.589973420199642
0.585554848835369
0.599167478401058
0.59542310024527
0.600336386686525
0.605184687961661
0.607457023767111
0.61122771594505
0.612399556098305
0.608131744832629
0.619005662758307
0.619918865073747
0.609947893544679
0.61816439895706
0.632922148950201
0.633035739629009
0.626817788412699
0.631067728384556
0.647898881164594
0.645216253933406
0.648233714495508
0.663865582212383
0.664684277080521
0.655199823513466
0.670926910599333
0.668974033256656
0.660250448255538
0.672320946672705
0.677804146494962
0.685056372187567
0.68953892753899
0.677053091990681
0.679059861288379
0.691652055961961
0.686705706111787
0.676095310863283
0.695628175358323
0.713141927831969
0.707044013364479
0.696342760194242
0.7184607465386
0.716904360968533
0.724190793081842
0.726224730289213
0.716635227201165
0.70624549701895
0.709727335227378
0.696821446968152
0.705350325303041
0.706197978952013
0.690557445601745
0.691660987743915
0.697974198324541
0.69260498435893
0.694503391594144
0.696635193282149
0.695753836061725
0.69227004484571
0.685769967377827
0.698842512040877
0.699459319589951
0.675981152037533
0.68702381895285
0.695725666820391
0.686335750695628
0.689374857416506
0.698813625466234
0.674668327170948
0.694818405502971
0.70367914377614
0.673920077097283
0.682867456128609
0.679575773519629
0.686226587961633
0.69155877790555
0.694166032075545
0.699921965861307
0.693671691945491
0.702646404147385
0.69637691334477
0.691585507649373
0.688805516804879
0.696056124775578
0.694568437904574
0.673599299153471
0.680605820949214
0.685525864076289
0.680685225022482
0.686580203782387
0.690216430560751
0.688331503576865
0.664282268769854
0.665252822123768
0.673813567043857
0.689585346917316
0.682784936713298
0.678977768361494
0.673381635499039
0.676359117790287
0.674461043615929
0.664306244248684
0.651626407541193
0.659809412184277
0.651229791391543
0.645983087696803
0.654630378491953
0.652852573184754
0.648139658332672
0.63635897292623
0.63377921767252
0.632821505614895
0.634674989143331
0.629137538183706
0.62524909351009
0.616467487976424
0.616157058768764
0.619941823556416
0.596907622992171
0.586566503025506
0.590043533850517
0.590924271614844
0.579388958077385
0.575072443280263
0.57899138453565
0.56610194072474
0.56447613621822
0.555436769100911
0.563640616253037
0.565902171348895
0.553070502429599
0.545936021562827
0.55353001132116
0.543714741882969
0.549709967060182
0.548298411366724
0.539729051124831
0.528570228575665
0.524308888590739
0.532655583839747
0.525967674316368
0.511305822697603
0.51341082940044
0.510748969820747
0.515735360937528
0.511190493904407
0.513944371696629
0.507478307168815
0.495361997308555
0.496854248791001
0.50736789615244
0.491793844643088
0.48953796815878
0.488704703053892
0.488303702030815
0.484498823782051
0.487456763274895
0.482289073583709
0.484149249837422
0.481041913315878
0.477787581804853
0.477779752564022
0.469976688875226
0.471648447505677
0.475514347666686
0.481150035643071
0.467780057649048
0.46666182675623
0.467579277149578
0.456575391119591
0.451557054813022
0.459382048901421
0.458782466230034
0.455298460535107
0.449859786019321
0.457876055890482
0.445164150531774
0.446878951852937
0.452527840867776
0.442627377935579
0.439164014988663
0.440652805463699
0.436591879204106
0.425432136968596
0.430991207700674
0.432904624119349
0.427236448488145
0.435723306372268
0.43657332364902
0.429183237315901
0.426002501837744
0.428327989195949
0.429035181973262
0.421593317851922
0.425843843363406
0.419399149603585
0.421858385827161
0.423886673821742
0.420617913184481
0.421086929278656
0.421480120032334
0.416462230405528
0.412596657561117
0.412894712582332
0.409504911644319
0.410452443371826
0.411808600901771
0.403214493155522
0.411132676257603
0.412139773887998
0.412174784990711
0.402385565212216
0.405511056327224
0.405207894100946
0.402505413617891
0.405330818995977
0.394876709514933
0.393291133996349
0.403813106508309
0.394968642850561
0.399299586513546
0.404641119700689
0.401845302982924
0.390233984574729
0.387501552368217
0.394428488109381
0.393498091461791
0.393826661122674
0.39396395763667
0.389221805116678
0.385044430729039
0.388677513296791
0.38422060463918
0.388352779580728
0.389894938344345
0.382698554281952
0.38194709421449
0.38144953988096
0.384071309962449
0.38456655440382
0.387229076248323
0.379388969065399
0.382230339432975
0.383470998490387
0.383251515612242
0.381443086693333
0.374700542005441
0.372708134013529
0.382571310761085
0.380156676968818
0.380566464154973
0.371826720459789
0.376749100593022
0.372352348267813
0.37911030611932
0.381563148599896
0.38118133481995
0.379424310171267
0.375137011274333
0.375364994807127
0.375799889579394
0.373736358243014
0.371371992039378
0.370913925481794
0.372233732636945
0.374244685418095
0.372450653367349
0.3698352953304
0.374289625590655
0.364544916256475
0.370272402934899
0.370387365605028
0.368240574764015
0.364808229795955
0.365017105845037
0.3597669757193
0.362863333913177
0.36281640944477
0.356981335785118
0.364901805222729
0.368559450483674
0.361689507734252
0.355183981815225
0.356444533195446
0.358678520996626
0.351925221432376
0.355514503525422
0.362128547561225
0.353973803814226
0.349308823143247
0.357512285530539
0.352369250839461
0.352205342782763
0.352384495370891
0.354426011100199
0.349756021980118
0.34400801040154
0.342840559517326
0.345370277274024
0.348289993223651
0.350863532760484
0.348430162767367
0.3473645350999
0.346043074860121
0.345578974560685
0.33952043932262
0.343842462212819
0.340949250834226
0.337267258468548
0.336161825324199
0.336480381979596
0.338319111156038
0.341612077338172
0.336317732186344
0.332041926523276
0.335472680999936
0.334774759899465
0.336323163569672
0.330357294434505
0.330413480056622
0.325467600255622
0.334937849637409
0.327994859680166
0.32727480601638
0.32507584907133
0.327274176241359
0.33276849577093
0.325000011030383
0.319588387349644
0.326070857032825
0.321611029370152
0.316371809431659
0.326662135957003
0.322007700001736
0.320934691184071
0.318781429363757
0.312042571351602
0.313496163856313
0.312162023467434
0.315588154833023
0.310149761914907
0.308699563922651
0.309033398150762
0.313666987342127
0.311673149625949
0.306018442159811
0.310772979822132
0.310499152116863
0.303131252994885
0.307589633782675
0.3026888227344
0.29903577593476
0.30068729517802
0.291539495941228
0.2986151740488
0.299342875454609
0.299823075641609
0.295259195027535
0.298609913090418
0.29798757442119
0.288903711431458
0.292970784628527
0.292322272191871
0.291991704080303
0.287558337075168
0.292554792004564
0.289331796933542
0.28775771339937
0.285850451355261
0.279306760880498
0.287611562406046
0.283784298549921
0.288307720786147
0.283208327399246
0.280820842704464
0.278912827691269
0.283272010378979
0.277532143209999
0.27809285464246
0.278010966211958
0.282671637183262
0.281777008653948
0.276455317386023
0.278378227279075
0.277374296614442
0.274029686801903
0.273576860026138
0.270909095878153
0.278120318315288
0.277150842813755
0.273126876811404
0.270664953607458
0.273727572060663
0.266954641039601
0.272792187036342
0.268230672099007
0.267449884063721
0.270109414983978
0.267848161209517
0.267377838032978
0.270498588994939
0.266151598257477
0.26643493267016
0.262979640641136
0.263348893592889
0.264471597177373
0.266204029833453
0.263331586933297
0.260606945366627
0.256934429378706
0.258277918183874
0.262143157723683
0.261600511800208
0.259852256410188
0.261285373040982
0.259312897535394
0.25880949161395
0.256688619298271
0.260671184014319
0.255109222722239
0.255460667657925
0.254786695510722
0.252416066150356
0.253451169443285
0.254044068091289
0.251199867977038
0.25140292863629
0.251823456340954
0.254983058897831
0.253982091921074
0.255618351317809
0.249315859728745
0.25616446036974
0.253304875302453
0.252444772333798
0.250826171957624
0.252201793580597
0.248064353958663
0.246187963503154
0.248220299510953
0.248023101390436
0.249295836542091
0.246591858815674
0.25591968953399
0.251376564093893
0.246649048546799
0.24630937324863
0.249661342223059
0.247432466393262
0.243537353783679
0.245911125237842
0.242859245965285
0.24543752895503
0.243520708082066
0.242816927348413
0.241322875903172
0.24579243661513
0.245262947608693
0.239537709872343
0.238856525375795
0.241818864689566
0.241627230056212
0.238856078633682
0.2384358015334
0.238704660210528
0.239693228730786
0.238527656666674
0.241482576620298
0.234692894636797
0.23834495450249
0.235620379856641
0.236893217623566
0.237655885261876
0.234633933488511
0.23722133985794
0.234498753868108
0.232507462169995
0.233511991914381
0.230045763265374
0.230164942782276
0.229697008309988
0.232530534246243
0.232266029752719
0.233419687216956
0.231354440334584
0.231819566912815
0.227222164602749
0.228851937252282
0.229563296766426
0.228267330518716
0.230846603095517
0.229549587178939
0.225836956179441
0.228880302134478
0.22716067644193
0.231339830965586
0.232137024990497
0.231086512718022
0.223529987568887
0.225137180470371
0.22362526832237
0.224537855315537
0.225540647188214
0.225462998162493
0.222559009789453
0.223893835427444
0.222126249907278
0.222931182681572
0.223051401256334
0.222609477447112
0.218559313344844
0.224637541323491
0.22274736004268
0.217122524359437
0.218857083768373
0.219443453538947
0.217292035530165
0.218504851383699
0.21767493690825
0.213755246560872
0.218260643644105
0.212801516975924
0.218334126436366
0.210858359134206
0.215779305234373
0.21500802141952
0.213800300970578
0.21077287338852
0.210690793758506
0.21113611296399
0.210248750634575
0.20955909305562
0.209760747906861
0.209617959557783
0.208896118909277
0.204514879724078
0.204812416589012
0.204207864260819
0.205400726137153
0.204640979793354
0.205510681045597
0.20569729599555
0.205935172149837
0.205241904303217
0.199468187688136
0.203202874363599
0.201226583252147
0.201514408970293
0.202991394620224
0.200199292851726
0.199673548128732
0.201588726691816
0.198462378853859
0.195421702067487
0.19584875169211
0.197872134870658
0.197193366176889
0.194861367287437
0.198129716460866
0.196119082957593
0.195894900507757
0.192414411980499
0.193516572852313
0.191332252950799
0.195782254137596
0.193838049607831
0.189796042681858
0.191640799830461
0.190540862900327
0.19501680250556
0.188762295225207
0.195517607337952
0.189527428311974
0.188758163263554
0.190268025379824
0.187952385046196
0.187615212762818
0.188838049551653
0.187815843390904
0.188858034360652
0.186077858664394
0.184819449675044
0.182744401205268
0.187745401990109
0.182354766750809
0.185880602458175
0.180264451282609
0.181067557814866
0.179444509615439
0.183106280203153
0.179343005592455
0.182165790174474
0.178098231908928
0.180481109849769
0.174857793411642
0.179913828879297
0.175270770186713
0.178822461313491
0.175739747117208
0.177658310066053
0.174894466073264
0.176774227593139
0.173533325355855
0.174194466639804
0.175538658752349
0.173683065255581
0.174803435905972
0.174495341020696
0.169776962273632
0.172291349537249
0.169732774420322
0.173952968289641
0.170425466138359
0.173944448079541
0.169847054004225
0.173850333802532
0.170724699508915
0.17256278274781
0.171072737456075
0.169162480121893
0.170363710071384
0.170380412737034
0.167589995655105
0.172746554859807
0.167974733930485
0.170705701603288
0.16929166448986
0.174415044052738
0.172951140468713
0.171851152763945
0.174016242027757
0.174630592328945
0.171727166145139
0.176905753983228
0.177644837378822
0.181551934117231
0.176141145200146
0.177363802368381
0.17328790008502
0.179818835671146
0.164711273299583
0.169592661698064
0.167801512838637
0.174958411259971
0.168448955452653
0.166698579213436
0.166349922748378
0.170510735863765
0.160190015152768
0.173565636997121
0.163393151747576
0.177229414048244
0.169216941772408
0.171469920862883
0.161645175422305
0.174768752090752
0.159313477176407
0.175266881635711
0.161406569285058
0.17165156738808
0.165223977867089
0.170662977911481
0.152085603866548
0.174617701752655
0.15651658657714
0.176694778611549
0.157461428678946
0.1713107202694
0.152756206553764
0.17510967501588
0.148174821840535
0.175587667297855
0.14605114643393
0.176387839521185
0.152565803427901
0.174751072074481
0.141232804657529
0.174980577601086
0.142303343069907
0.168994201427304
0.150504317168582
0.181582846078715
0.15255318212399
0.177809717446383
0.142691713707841
0.164466196018083
0.163842054928549
0.170895112424374
0.157542664032876
0.153490641031849
0.167979478166855
0.163086747895968
0.172678814973353
0.139694966591704
0.180259093912273
0.140366662898335
0.179855024809787
0.137362369832437
0.189669620895662
0.132789323737335
0.187857778988883
0.141640129196395
0.169496424294535
0.143852390602973
0.161246928664412
0.150249110679383
0.159203646336228
0.154964756792813
0.153380604199739
0.150220890234928
0.152938123725377
0.150736326058231
0.154137975594399
0.149851088655583
0.157385659799783
0.143306251895691
0.155607434463658
0.146133987745252
0.14938712778404
0.147510878770633
0.152633917272326
0.148469206822569
0.151276964148329
0.14515918923325
0.153983979862417
0.147188942352467
0.147685646694951
0.143197092002163
0.146347354927557
0.143842104603091
0.147037090737901
0.142200013354705
0.148197606483311
0.14464911708826
0.151874121042854
0.146142235030859
0.148136000991549
0.146151655862729
0.143831437815276
0.143188659383194
0.146259499063867
0.146098898606405
0.146523679269644
0.145136069315676
0.147886630218662
0.145308789938679
0.147980637089733
0.143456902666813
0.149860038596198
0.145670613146418
0.146750468421793
0.144723393919595
0.148878542897293
0.141974165596857
0.145876898249954
0.145971029304792
0.150262503359721
0.143285838781185
0.14830431837635
0.147796368155345
0.146564549079711
0.145206453328322
0.146618196535885
0.143307706430233
0.144338389358977
0.144126103325378
0.147204806363684
0.143622094666978
0.148215575018605
0.144216011555112
0.147532586778995
0.146653625171252
0.147604080155112
0.141851307550192
0.144757541325277
0.142065638968587
0.146832938231641
0.141363386596669
0.144169451894404
0.147566556930185
0.144497686111137
0.14542230599781
0.144328989411467
0.143491700511361
0.144499664347516
0.144498032647616
0.144941696781356
0.143401511782081
0.146880755400351
0.146312423170815
0.148662429938216
0.143481916406103
0.14855377045243
0.148436458418414
0.146668647182529
0.144348605464867
0.146541158894803
0.147354667632529
0.143749467008022
0.143336639435699
0.14488190379566
0.145491177686453
0.146011945460233
0.147138185955011
0.14781724978458
0.147223421053016
0.14655158148013
0.145738272565964
0.150702003345451
0.145985159270927
0.146232413530218
0.147769435538799
0.149080874920704
0.148216907727262
0.149383964730907
0.147605584203298
0.148188333213307
0.148238206239648
0.14689362868644
0.145464983200329
0.147361490701791
0.1516569555972
0.148764512440992
0.144760018970312
0.149307359867429
0.14769513718296
0.146469156479398
0.150317600379857
0.150525721778901
0.14530824261767
0.146004766040609
0.148065968277816
0.14919042296084
0.147068289431534
0.14844981304025
0.147306171713704
0.151670996168243
0.146533835254418
0.148893455692866
0.146679246310642
0.149977985708271
0.148344760471289
0.150198468752533
0.149160123312615
0.149105830179122
0.148840706220827
0.150824096121029
0.149111189955491
0.147244084115877
0.149512335316269
0.150906133562783
0.150744741303514
0.149497932385294
0.151323076185018
0.152384835774187
0.151162696681763
0.151571437048019
0.152850231116063
0.151174961942879
0.15316472114514
0.150457904468393
0.149980973368659
0.15232317216332
0.152810197411499
0.149387352575142
0.151366411948835
0.152942943459076
0.15283383114229
0.156071744500617
0.154284699603397
0.152400457968168
0.152723654725004
0.152122525133898
0.15372412498206
0.155092430401036
0.15447973575952
0.152350185073718
0.149523883214046
0.152102280539412
0.151249237900377
0.154994931334436
0.154738374045071
0.153493268668591
0.152627671320964
0.152921365399255
0.153210879056601
0.152045323241905
0.147630865464773
0.150244681155383
0.14807514714544
0.149945091610602
0.152795155082564
0.149712285138805
0.149036392861373
0.14991524256482
0.144723752965542
0.14798952340361
0.14964552049837
0.147815043241084
0.150345006546793
0.148959705072667
0.149660136296479
0.148003305605671
0.148230189961624
0.148402518230058
0.146987124858064
0.148581872821684
0.147862615070242
0.147441653164297
0.150550744300155
0.145499178737756
0.146767229800368
0.148306343946352
0.148189133186169
0.145127586469204
0.143538970353828
0.145782495372644
0.14788822779883
0.14817963134084
0.144744376304776
0.14755100692581
0.145560896693505
0.147790611964777
0.146291786411722
0.146638881908625
0.145824715353102
0.143505477869606
0.143743497001078
0.143626778760503
0.14452981865029
0.146284101664186
0.144410789903611
0.144644502446121
0.14752670288105
0.146225248882936
0.141838087712248
0.143219559982109
0.145045351888858
0.143605558912313
0.14486394976316
0.14360945639318
0.142772392703688
0.143001365350788
0.144214068634166
0.144501153612442
0.143283928995726
0.141256524028148
0.141234528520636
0.144029750529661
0.14324137474099
0.142690754788745
0.144961057812994
0.140656277204622
0.141945187327647
0.144712069764985
0.144020356437341
0.141780313098147
0.143384514471337
0.142262070181273
0.142620355365675
0.140948219254193
0.142889186993943
0.141057333977307
0.144965293607572
0.14096195463763
0.141068539858693
0.142921956475583
0.145045072333128
0.140147190455118
0.141732964200555
0.140820745544623
0.140276143437926
0.1394731005854
0.140347590265961
0.13843511371311
0.141095550336926
0.140058070022655
0.13981348723988
0.141771356328907
0.139739551654702
0.139808127996582
0.137915017837176
0.136526947285483
0.138193791469461
0.135541144111262
0.13693000682886
0.137831178555786
0.138988155746641
0.134896684206987
0.138240039855028
0.136745061397278
0.137456403360854
0.140201464990556
0.135084195896268
0.135260467167273
0.136311676126854
0.131977338323969
0.134559707677737
0.135499353721047
0.135724492117966
0.134488683707956
0.130961170496516
0.133845837588999
0.134746584541203
0.134369996237396
0.131786126766075
0.13213775080415
0.128085357112756
0.132497394181641
0.130718312808506
0.129121145334738
0.130335226066161
0.131372752180862
0.129829211457696
0.130362525544716
0.127827200802822
0.13040032114163
0.132738473585719
0.132414001545525
0.132627345621066
0.125362815141765
0.129037080873332
0.122802554221865
0.127801307173928
0.126213261491676
0.125501635891676
0.123116985615801
0.125749203881206
0.123770664667782
0.12519505256054
0.123036749902459
0.123462118716416
0.122454936406396
0.124291224570181
0.120490912449251
0.124166729338689
0.120127090395571
0.121683360701035
0.120221653682591
0.123282013207684
0.121652754698413
0.122263518105082
0.11996812854317
0.121663611937142
0.125652740193624
0.135526390319336
0.119775353703204
0.120488334866658
0.122328209561207
0.122436773819185
0.11819450553148
0.121861919818525
0.116396984875983
0.119583812795565
0.119242091016242
0.119234203610687
0.117210080641132
0.118544034055838
0.117356181555165
0.117229761808135
0.117480616329316
0.117366000931338
0.113759272679661
0.118549352949667
0.115425099919929
0.115335095330612
0.115783308559499
0.116273331602899
0.112891161355251
0.114898179666225
0.116466039824873
0.12352991948971
0.120780004138831
0.115459634932651
0.117142940737652
0.114274124785319
0.112611611546891
0.110683341281075
0.113204154777721
0.11106821109618
0.11075804894099
0.111122957868498
0.111221160799153
0.112752890645886
0.112124563604532
0.110601617148071
0.109492196974192
0.111984627552918
0.112286552203228
0.111936422536073
0.110099585937891
0.111896911009108
0.108727447039118
0.107703592172077
0.114401241260824
0.109024059177404
0.111946994519903
0.114695464847371
0.128300064554596
0.115281324502832
0.106427784992352
0.1088830619645
0.10671634632507
0.109963931483371
0.107549847021295
0.107284788521997
0.107009376447984
0.111711689012975
0.107938346044746
0.107244997117137
0.105124817176881
0.10995357191213
0.107930211560577
0.107944762913861
0.104847684934416
0.108501440559876
0.104942266608518
0.108631012434001
0.113067882677632
0.122596941257573
0.114253017984608
0.105111760241818
0.106264717532401
0.109661674432968
0.118716498680834
0.120296216046732
0.0985201850660809
0.112101124741768
0.102087569173639
0.109784113560729
0.101101088977469
0.107538062442987
0.102574296013473
0.114073630839913
0.103919243457818
0.10897489664085
0.105188475673442
0.104244343172743
0.104857798880484
0.108042687984722
0.102291633966971
0.104240206265804
0.100808127921278
0.104489961732204
0.102028457471468
0.105957768227656
0.101487421352748
0.106426639164954
0.104486415563774
0.115255772757052
0.102424501240032
0.106847039216716
0.0996394875720875
0.105388299813952
0.112513090199085
0.121090887812138
0.103672823382049
0.103741567677051
0.10239311015235
0.102789706359787
0.105219560809638
0.102662739414743
0.10140284453231
0.100934215276975
0.101077435595656
0.103411122931637
0.102209698370381
0.101140147973167
0.100688254022876
0.102124807814739
0.102064137856898
0.101225451615746
0.103494426170784
0.104976318483729
0.101591957820816
0.11031070222775
0.112545448426109
0.132374936904041
0.113136345392448
0.118164355297029
0.103989006405855
0.106263055473136
0.0998256571517422
0.103592354726101
0.0993591718338145
0.107389256748153
0.0982986147634854
0.102286438387631
0.101561092502125
0.102139958016268
0.0973812545168315
0.101854247666148
0.0994573383343675
0.101162180435905
0.0995826395243141
0.101320037423562
0.0985767020642828
0.100257085966763
0.102403475572974
0.107807309962032
0.112786957225079
0.0976630695537614
0.113490809798649
0.116020560122081
0.137580856206686
0.102836969576106
0.107142842465191
0.102354683178082
0.103586100105797
0.101769726143847
0.102457056854081
0.108578240602378
0.102385364111381
0.098812057783859
0.104235036606101
0.105814522042181
0.10157515040668
0.104675912201845
0.1151973948088
0.134211160140101
0.119543445345653
0.100349305657866
0.103990568644169
0.115327058360101
0.128754167756542
0.111489173219679
0.10054481958124
0.110697329305048
0.101046743447792
0.106015517528017
0.100357160160791
0.109535179626022
0.105272284009716
0.10851181376661
0.102267717326454
0.105717870578501
0.102376304304302
0.107572007684063
0.108809416350004
0.11697416847824
0.11575459754342
0.108999473922815
0.105347943276128
0.113418878254784
0.103533897688925
0.108614502903081
0.102598083827281
0.109469064983424
0.118884830387889
0.123956497728978
0.115261267217758
0.12534343938162
0.117406091410636
0.109976883370407
0.10967306996693
0.126628142023979
0.106547846904874
0.118981318319686
0.112681934702553
0.148163375172242
0.130928108804446
0.127060982060479
0.117233236354761
0.108126347578792
0.11389783548357
0.104503795894883
0.120478323697638
0.121368549035195
0.125950911721516
0.101165049827418
0.119689962523504
0.112510690089772
0.130633614274971
0.115994781257504
0.120030898138669
0.11170971030482
0.122417809364558
0.121525586669005
0.124178061922261
0.121491642518018
0.141860966440441
0.157468086462652
0.133471528251893
0.129982437290933
0.124741443842792
0.145191250027495
0.135861796383438
0.115908330602375
0.126810321932004
0.113877800697132
0.121895758621952
0.130094150153802
0.150536734120646
0.135366623537348
0.122475190777317
0.130247493415427
0.131648177491988
0.14611307752027
0.143297620852372
0.123627678349591
0.134973927108201
0.127617152454019
0.145931927192825
0.151110288556984
0.173686329977811
0.14677923879407
0.174641541945832
0.160530514172134
0.156692746124227
0.150073795829617
0.151066151472437
0.161139072932418
0.167880065805889
0.14865354129586
0.150166373118268
0.16777092499982
0.1738558480796
0.159884121161502
0.149215353708313
0.159357173903613
0.154694854859405
0.201427268732247
0.221988617726209
0.1875302552759
0.16411080965541
0.175822978915618
0.185227758584287
0.176153129415207
0.161458176610319
0.167252505095878
0.164647102790632
0.162835003729565
0.174076714127566
0.180311665283822
0.177598370254096
0.173494110817325
0.178453712555521
0.178945653477656
0.21492456234743
0.237515264859926
0.21846052001787
0.216199687749445
0.213352764122107
0.230973628910675
0.196615306399227
0.20138139389069
0.189641615395754
0.208119433805639
0.20565119518405
0.206538318747531
0.215338333237396
0.229963384846237
0.237122033493931
0.234022816056704
0.24126343590406
0.226427809615002
0.228723975419145
0.280466802864841
0.306269892519254
0.305326838369872
0.24174015482104
0.291568067010354
0.271409066595113
0.352684917618221
0.298898414060401
0.292865764488441
0.298425052067489
0.31093261956314
0.31720019060784
0.336675571844242
0.33734838231281
0.364280399473477
0.347871190303348
0.366775705663981
0.360922710246085
0.48987621179144
0.439106790694553
0.42582036450322
0.409508451306486
0.437744963638813
0.440328617693641
0.442739789496083
0.437380166344699
0.462318156004489
0.465250083509608
0.534907459056467
0.502429302301148
0.489796769296355
0.519085875066707
0.537734871389697
0.547629346165311
0.566347580922711
0.608149282534152
0.559048037262459
0.577418456947388
0.579185775426356
0.590551747739867
0.611006936886909
0.635353102485706
0.647016887664001
0.621251637600052
0.642046218126839
0.647369321149158
0.655323561550466
0.667935438402138
0.685798154834922
0.68382459461547
0.714623676156188
0.76942758791259
0.824860332958528
0.771163990544678
0.707239179805196
0.701609679016081
0.730833185212817
0.758124660236849
0.767312378746394
0.761386863201064
0.766505831614029
0.705097927702779
0.718211472367358
0.719668877138096
0.727357740572614
0.730965011457758
0.728384528300646
0.729808069522191
0.750848158369025
0.766171952815039
0.785879548323178
0.826036100147879
0.74574012490784
0.722902356619863
0.722921360779494
0.719295784654148
0.731139024184524
0.717513617985185
0.740676472957566
0.736527660088556
0.735669718132928
0.6978291255123
0.69519440482139
0.722806261700143
0.748863165827919
0.686399711962308
0.671325800589911
0.660967304738576
0.669071070938866
0.655471607621741
0.671678683426611
0.691261265240065
0.650703063155767
0.610721980909856
0.623930230396653
0.616858217337548
0.619262032732419
0.60781256844393
0.621087549669342
0.603934887419803
0.602779317855685
0.601428112361355
0.603485471340767
0.58476602980687
0.59622952167205
0.587248947565228
0.597875866832877
0.587537402082675
0.596060937822501
0.577023502373473
0.585359560119542
0.575056563197675
0.592469173956508
0.590845496825149
0.597239568643662
0.580780162861812
0.585715305160531
0.584726433729495
0.594151088880322
0.583615759666984
0.591738336199054
0.578967512451339
0.58773681120763
0.587290629476128
0.59245783670107
0.579327153840111
0.589357928682745
0.586335499227809
0.588673890673285
0.584298986386199
0.585233378115901
0.58702563700195
0.595249824330297
0.593446597360003
0.633989676028924
0.621083150925379
0.576941218225945
0.583971993265887
0.586676197418603
0.566913974425563
0.574644094347791
0.610676907905155
0.616804358844678
0.571321747023964
0.570687924990419
0.566677045190396
0.579798686917647
0.566980959823539
0.558398715784127
0.552761153070933
0.572983142646025
0.572848138281662
0.663492689538841
0.652488417020572
0.671363241669964
0.581499882054949
0.550895683054316
0.572671543678192
0.592515041380902
0.55858121110152
0.545443311439898
0.558084042551582
0.586638813072683
0.562786092323684
0.541835847256252
0.537334849573034
0.544425103046501
0.56547641887228
0.577786306145872
0.554796778112504
0.551034449302666
0.58558818462489
0.5720084724785
0.577821303989112
0.627858253696992
0.557480769090092
0.518681351718192
0.501517872611213
0.510473841435563
0.522473506468176
0.559113339191547
0.517414957729491
0.510897022973268
0.484235309981137
0.482168901817409
0.486481824480767
0.502351115771917
0.475019569677372
0.500112166861251
0.495908039666207
0.477581143435584
0.472200187843219
0.501624581281205
0.507771592820373
0.527352362242944
0.458480255769684
0.448492363270809
0.48963898260743
0.504947871561123
0.458830010151568
0.447063807851301
0.425971860953209
0.44203302952399
0.439033767972748
0.421061807991378
0.430009455720663
0.440955162063407
0.434215426638346
0.482124522174963
0.505272693962704
0.458981885006169
0.402649508360059
0.390131666064468
0.38112162077745
0.39152507978463
0.369571155197286
0.382168940158055
0.403530743213142
0.393305141645654
0.380627500874372
0.418812804940894
0.391542935712685
0.372605293877745
0.374507913498572
0.376393229312354
0.384310433069125
0.422179879413478
0.42553593606838
0.405634875232636
0.400087216489221
0.418568840399594
0.39979411023167
0.39845406701582
0.398219831064032
0.403197705954585
0.413658236001918
0.434007376559295
0.423974571429345
0.430680020485835
0.435191855363471
0.445912035283594
0.47744422709794
0.483950347117813
0.467695377930594
0.497660757217259
0.518534262644763
0.542197463902363
0.521184984261937
0.512223849998421
0.511121969802063
0.525545327052247
0.538205791891338
0.531361030824979
0.55226606264623
0.585563737519714
0.554582574564524
0.555174126437041
0.566122205973818
0.575593462050579
0.571983269611835
0.62130735622195
0.617304206562339
0.648480870239811
0.654019399291116
0.632402318863794
0.611923869307083
0.611056958294936
0.612534989172828
0.620389168742272
0.611784183024032
0.615220794880765
0.627104881744254
0.658545176987735
0.633714596168496
0.63056698048078
0.628883390969989
0.629821825016131
0.634335443147076
0.644445601543177
0.639604355067203
0.653411441909699
0.644442578689045
0.647671304560472
0.663690547658557
0.75597191282632
0.681127048629017
0.671121301470153
0.679373679769269
0.674047245793488
0.680692909077118
0.693413586254255
0.720612616903813
0.710974185529087
0.701654150931829
0.703007803099084
0.702286039499839
0.710509409617699
0.732015207823028
0.7475443531913
0.724673192296632
0.726738828040703
0.718755512626412
0.792093248881044
0.794331096134182
0.770028640422156
0.759234195359515
0.762637250373475
0.752901173927028
0.766027315572971
0.755523087974652
0.762957195122404
0.780817197898383
0.771725444308005
0.762291564049717
0.772178070939
0.766747398384375
0.764712593627313
0.771609465301667
0.81333580819789
0.780349959310351
0.767004555842066
0.749844409253624
0.776648508436678
0.754996093303341
0.798265290482352
0.791816478962824
0.779552444869713
0.780490145020413
0.786197853457707
0.810368969113672
0.790973805674663
0.776574910774987
0.767611907430405
0.756556133222875
0.776167496434116
0.77282034733186
0.786516059057315
0.809080964701686
0.792211468400998
0.774037120145356
0.792888323929697
0.775224052287182
0.781207241106245
0.780921480471237
0.792431474578282
0.793492605818349
0.803180070136995
0.796186478406774
0.800066134729555
0.803067682803734
0.82147669602483
0.822703786169756
0.812233270750542
0.800571726443256
0.798300078137452
0.795651472018738
0.793488872693265
0.790292799613388
0.782079763826274
0.77136878540539
0.772791678455074
0.773770995274047
0.78278967241562
0.792760553620316
0.764319323616462
0.768410845921127
0.750180858025221
0.742717304199602
0.750685189719975
0.730671160996661
0.724044735284452
0.723630167475562
0.723737438089125
0.715301967351873
0.719713125493658
0.713006276353899
0.715266816134176
0.707147678530897
0.709374425542344
0.706553846392627
0.699394112102365
0.700053390344525
0.702683181190028
0.698872389038887
0.703659052404765
0.696712301156604
0.697622068722661
0.72082473135761
0.725636858443877
0.719967303263644
0.708162950644847
0.700217340101126
0.699649427403389
0.688867723852678
0.694974145683428
0.698558004566744
0.697386513510931
0.686788603967054
0.705656782317535
0.689765679310051
0.693241426470084
0.689808059150971
0.699463750363801
0.695617708857483
0.691618298740781
0.694243723323317
0.692653614789187
0.687980598852203
0.695622252875727
0.686259515974496
0.695921312851379
0.691491585870361
0.692848254013446
0.697143042720543
0.690433399526133
0.684781803590282
0.695872573881301
0.687610984335291
0.688549859622379
0.688349240749976
0.681259485098076
0.684374464115096
0.691438622090076
0.683822482693376
0.685588299622911
0.687537708863
0.683948418563576
0.673232911473315
0.693993914233346
0.6776514211018
0.674290080828673
0.660218200071792
0.669841387335193
0.658869798101846
0.659683751604706
0.644095689786265
0.641888362806826
0.640868342176983
0.636413470019902
0.62834254049877
0.626959292574423
0.618937540791664
0.62342877619408
0.612902968952096
0.619917320266461
0.614951067709395
0.614079031963779
0.614269003214035
0.606009231742997
0.606651666827713
0.608991513346041
0.60134132590186
0.607701882340651
0.602618632208994
0.60713499424304
0.604769734918432
0.613640519894776
0.606639778680498
0.612530668451377
0.609131219940218
0.615792925748664
0.613049797041716
0.612523461415405
0.619398173996682
0.617755742369159
0.62006539446277
0.622924600091214
0.626236477701552
0.636410565689929
0.627311136098968
0.636355147343386
0.634432931254243
0.63510496621926
0.633976027842709
0.647383428703014
0.63730144902242
0.638577571972506
0.633952077034338
0.63931691593555
0.641327788361281
0.639707779726243
0.633426246456107
0.633008001935106
0.636924393758673
0.631963467817252
0.636395538970911
0.629365434289644
0.633923120707658
0.633150727592309
0.628119139312035
0.622167316947408
0.621096886191924
0.622335030973567
0.623500643502966
0.619437893375353
0.617252370883663
0.609031403782283
0.614820150500834
0.606823237429085
0.610019004228786
0.606282546331969
0.605285808038489
0.600317405029266
0.59885632741755
0.598489000312909
0.593705273598855
0.596980525630059
0.599266689567264
0.592235588140252
0.588350315459077
0.592458722396794
0.586635282721438
0.585542460419237
0.581781067098992
0.582323757899215
0.576019576744671
0.572867019996941
0.568774144860579
0.567850479400684
0.562730373078654
0.565815605324862
0.559051416968854
0.558026429211514
0.551008212714658
0.547467074809265
0.543011349014761
0.534183016037253
0.530344726729168
0.531049855610315
0.525866863924879
0.522139346245801
0.51637235155931
0.521610034116052
0.516088895979134
0.516272318047572
0.508544315776307
0.511812968823753
0.506720002625046
0.508960791962521
0.507179419692652
0.506295782688563
0.499171438450295
0.499514243098263
0.494725847331957
0.491939018869617
0.482327232999398
0.478518732325045
0.476377363422662
0.468207630997426
0.461452701472643
0.455460113184991
0.453589595392534
0.447603525183565
0.447755115040157
0.453794314468903
0.445992581844155
0.455274337282484
0.458889478753731
0.466824115120419
0.474337266167374
0.485325317016066
0.493455861153823
0.5112833878982
0.532466043383919
0.545380138398441
0.565066333492306
0.580704614328078
0.596450274025314
0.624688818704903
0.637257782431432
0.658521785376428
0.671689740452855
0.699717672704591
0.71637291051622
0.73420035176532
0.750128522246806
0.767292980475274
0.782543968154006
0.80182347297547
0.824631790278564
0.83529330085669
0.851087033699402
0.861322706632723
0.873880497533295
0.894254295156445
0.904041744219346
0.913129507740378
0.921497572487097
0.93092672089624
0.932761929022259
0.937196183116344
0.937599927143467
0.947243486969456
0.952125043440972
0.955762087495475
0.954232077908441
0.945886154466014
0.948225512656777
0.953965171830415
0.953789996839524
0.965341979793478
0.963160372434587
0.963919029654607
0.956970805950904
0.966064980359294
0.965216801722152
0.981205370431337
0.978366902395778
0.987926760858453
1.0029662836918
1.00006604036592
0.993447995832335
1.02392412098801
1.01786020748802
1.02732716707429
1.04076641395572
1.05594868429023
1.06465550045945
1.07693588927657
1.08079559762877
1.11517092619621
1.13061286058585
1.11243452426351
1.15019052300969
1.17601544578758
1.15501608482248
1.175370208518
1.1759484352078
1.18132676497575
1.20689540763548
1.19467211830199
1.20763923567726
1.18450408871932
1.19608057576606
1.17893973262393
1.17885303533281
1.1912783104585
1.17751394595068
1.17843462515849
1.18485417409331
1.17084020110749
1.21375093173207
1.19281376168295
1.22773201154645
1.23236101899735
1.22987883940222
1.25410194009429
1.25002662262231
1.2867000241237
1.26805114674259
1.30600891135052
1.34852203002414
1.36772116767573
1.36956648965164
1.42720429935102
1.37364889919192
1.42443573154528
1.435720605651
1.43835975289552
1.51418709127935
1.52384051602281
1.54679326614215
1.51375012176165
1.57010537376135
1.57648639607749
1.61159826644662
1.61906994761598
1.68168550895816
1.68328169180947
1.76632855569991
1.75722809820409
1.80664152042573
1.84434172188103
1.87543315245948
1.8229812313483
1.76528754994043
1.82892846735166
1.87848249902784
1.90394475063514
1.86083823136971
1.96506934103316
1.99614696716495
1.87365725996876
1.96757486921978
1.93186686500092
1.94685501219899
2.01250017777137
1.85440786687145
1.91375632525536
2.17137343143181
2.1436065484518
1.85778679640794
1.91347883220881
1.86163447010666
1.98781303778469
2.06302971185463
2.0350838063783
1.95263570188782
1.97832540204794
1.98885159585937
1.868463068151
2.11267302774944
2.05220114340963
2.06187378383965
1.98662807647981
2.1022999741664
1.92500665527609
2.1071035179015
1.94800068042176
2.10581957616757
1.99463241326917
2.05848138625916
1.92455815925355
2.35414577686036
2.04996180342703
2.07339038589729
2.33762487131759
2.39945045355437
2.08152605894653
2.20298732764124
2.32216737810718
2.12789972672046
2.04030395645359
2.51917768395267
2.08095665300692
2.52000832450797
2.33580105545184
2.48017403057979
2.55774623574002
2.15400499418177
2.11592820079882
2.26695747558037
2.6441490202351
3.06859341590416
2.07224263407216
2.13202526682565
2.05680512520211
3.64706286830766
2.04899642556055
1.94538759455272
1.91287759088194
2.04025193318065
2.04182005678438
1.88313849693166
1.84639864177854
1.95137938583165
1.85001739128512
1.82844913736525
1.69101592226338
1.74839663718852
1.70686894812564
1.72200085973808
1.64957541280658
1.73350312027477
1.67981941628589
1.74491943488455
1.62657401144708
1.59088641727048
1.62071058970691
1.6202608572221
1.61200936094156
1.62570737932232
1.60790372859351
1.58575686281709
1.54296968196214
1.61241518220803
1.46665326944266
1.55035999856024
1.46749966702668
1.46911696819716
1.39995025678082
1.40896733140845
1.43587328433663
1.38101114924806
1.33733168497649
1.31218820887821
1.23917616531447
1.27986087099812
1.21174576938244
1.170521092801
1.1299771596057
1.08308434824754
1.05378491637129
1.03557503162153
0.954163278946224
0.956640247222328
0.904713909342017
0.89155279367806
0.857494858361204
0.82763749487018
0.800750737620752
0.77708213040931
0.747442030815696
0.737374730158155
0.720260551646713
0.706922028827201
0.694295773324763
0.70106314828616
0.67964850490688
0.674475906319799
0.665104779844874
0.661126173988041
0.658316375389585
0.654853394508615
0.653320170739812
0.656032198112745
0.655339153399334
0.657866925975928
0.656012040603119
0.66200817829542
0.658646262930276
0.672436141432562
0.654189216193679
0.658060478529536
0.641835142802666
0.646726132662558
0.635418999004006
0.63884460427292
0.631749498026942
0.639869171268714
0.622039230553525
0.618452465337233
0.614098136372368
0.611297251435338
0.609350887371263
0.608492065694859
0.607128509149204
0.610197117736073
0.608817430262802
0.619845595921035
0.618848989154706
0.629785542380951
0.616492838897473
0.630016130367329
0.626948959787235
0.641173602605924
0.62379898051415
0.635813920925904
0.644024377578823
0.642451127405414
0.642696300567119
0.645720705467533
0.657485444873351
0.653138902649037
0.659842623264696
0.65674384936158
0.649793878779707
0.654092554552272
0.649589799362187
0.666349346226794
0.653388432428132
0.6586687819313
0.658332400007432
0.666777389905045
0.672697142813375
0.687575504149177
0.688133028946634
0.687747205757685
0.696535113443064
0.729580976810894
0.730545522535756
0.756842336751637
0.747423596157291
0.790855244171098
0.815848411585413
0.828541894136299
0.831337714162111
0.841315230172402
0.853536894406557
0.83231273171721
0.813341990590126
0.82641433007328
0.803173668038745
0.823982573225615
0.797819847700885
0.773857807207659
0.778160863556452
0.787170098754563
0.749690032576935
0.766926750628234
0.761185013568287
0.772133336572746
0.75989205450754
0.765882359279956
0.758161922903394
0.764415693538903
0.753607817240736
0.778101912290674
0.758425321417248
0.747120480972141
0.745881690763198
0.743857933649706
0.730846495690749
0.734226267252461
0.737810889978823
0.748303469453108
0.739725231352204
0.737150732299484
0.718471964255123
0.7315409105095
0.710259149106811
0.705358620641379
0.70397307265554
0.709995872818565
0.687285223036239
0.69773135479628
0.689849342844141
0.695956590034064
0.682221476994455
0.678073209052012
0.690585035253734
0.702406002945644
0.690815419892116
0.684111833973597
0.661304017612454
0.672209838027001
0.681094784474309
0.677027606116827
0.655565092699448
0.675943883439189
0.673994598079766
0.665472042850847
0.643093311305933
0.659223819498479
0.649328390989389
0.654376828156484
0.631964202460667
0.643207093095009
0.617117201678858
0.641883717792847
0.6450383823148
0.634566910003114
0.639720753540372
0.642953313243117
0.621664627711664
0.638034158045211
0.631819716782446
0.645342154368802
0.637267895521184
0.624509849479619
0.635862373303721
0.64366850763822
0.634619144131473
0.667765806861708
0.62046263635828
0.644989575863112
0.634418859867163
0.653417419463064
0.64453211109009
0.646357062435125
0.628830789596933
0.673284897311498
0.652727138788431
0.643701155323916
0.650058261596047
0.660636855336476
0.63658912232936
0.678592756212464
0.667774857469719
0.677284475494394
0.692907450768096
0.673741554244944
0.683767940351387
0.699860312750971
0.682777904653116
0.712657979504084
0.724247678134811
0.743569374368525
0.748421359360366
0.777008653230832
0.752518228277309
0.807055401243671
0.789731571482362
0.813559600585351
0.844905153613844
0.895003975166558
0.851548706010396
0.859933142738364
0.883857646591287
0.985521273015871
0.968738320250091
0.998867247634095
0.918295544438508
0.99979268507875
0.994890721047387
0.956678442158435
0.96005098054778
1.0814312600523
0.999670705824354
1.042922940062
0.937926089874465
0.940345052721387
0.967301701536192
0.954344958350663
0.953900007032308
0.98206844437969
0.915766640953643
1.01166720910331
0.976802484232861
1.03802101946779
0.960011391469232
1.0062368944683
0.955576862263834
0.931864860230056
0.989467609353506
1.02850197316413
0.97990412297948
0.98386193267281
0.970110315967134
0.977662179422632
0.948969951024309
0.994314777604453
0.883093651815992
0.993700795896918
0.914549241938545
0.88226008232935
0.944836107297315
0.960364221405948
0.926336824327621
0.994850053006301
0.847083174614425
0.930888874186877
0.948891799989094
0.982141865352782
0.964064550126089
0.927590260765896
0.967517928973569
1.07295285956435
0.895973663233888
0.965952011106972
1.0095569337328
0.94255823348115
0.941597655453903
0.943770488651961
0.965988880319006
0.96012547467954
0.90738204516744
0.982625433643046
0.867453040832813
0.995875523069331
0.92461047048429
0.967272539213751
1.00378160256526
0.947398826684348
1.00189213082087
1.01419763473426
0.971574717582475
0.976675771023253
0.980273002222692
0.917216507462192
0.928598314078001
1.12805576267929
1.09134552424383
1.12772875919821
1.03014364062178
1.22773156546995
1.2193157265886
1.06585046618427
1.04428385071686
1.59573970429837
1.01375475273911
1.00265395654453
1.42731483614418
1.09555240793119
1.11659205645635
1.21741665051127
1.02318606298761
1.24861093622443
1.12268440856207
1.27779647312777
1.11766227730793
1.30257122644224
1.31501147276383
1.12608240805992
1.06241899137327
1.20597980541146
1.61019428349447
1.34218412902233
1.05191885063527
1.38317435059186
1.4385905020623
1.62001438800283
1.14991564434999
1.33106499038571
1.31535529360744
1.21944445577145
1.12213112868787
1.02634714193804
1.0554692382888
1.16624650854593
0.965523606049383
1.05731123987085
1.22143781252977
1.54363897692349
0.972759217357368
1.05650403340884
0.965789170338971
1.10543576703942
1.63389025553327
1.65688405046815
0.966926200404297
2.25907085322911
2.15982317786538
1.10338361017928
1.08337048535885
1.00929399949592
1.16923429644692
1.59977310090075
1.72807313855069
5
1.07087581372753
5
1.42801190180899
2.18473687059659
5
5
1.2343188568849
0.957793029791708
5
1.30044096670947
0.832310021298891
5
0.643275563526509
1.5726738380699
1.40160600233545
5
0.823523679109523
2.10296093725284
1.40728113885748
