3596
4000.36533379555
650.420452594757
1
2
2
0.0720675867264648
0.0756444445910847
0.0730001964746965
0.0834481076254106
0.0737702045852284
0.0779720300014806
0.0642696266193332
0.0833014565775284
0.0743703817942816
0.0886761360207891
0.0619770924285875
0.0868974582539293
0.0641455594011771
0.0823574161952974
0.0678666568441019
0.0795269963335817
0.0673951888929581
0.0800844507175058
0.0625188096480015
0.0890262622315138
0.059946318699133
0.0855493149947239
0.0644452287497414
0.0776956500299611
0.0668988550704031
0.091016502439615
0.0648640008142729
0.0763025266373116
0.065865338239118
0.0834713985859698
0.0656886600859948
0.0880376952450755
0.0644798728845721
0.0884754894906343
0.0713332964398222
0.0821284808544533
0.0695585103922442
0.0710640470943114
0.0680041329197896
0.0818598271905149
0.0682307877604103
0.0787429137253518
0.0691272207242745
0.0928554999923458
0.0655896462355439
0.0807595507040694
0.0723166966466721
0.0790603148863339
0.0591499493716832
0.0809925663073969
0.0708224088090404
0.0788998074882191
0.0677653864635424
0.0976231601836959
0.072336539452803
0.0969347793689176
0.0659890431909225
0.0825091326542178
0.0651046170160098
0.084821828430138
0.0817537078230121
0.0975035402074127
0.0635205471131676
0.0882277105630567
0.0650144653785357
0.0835499102563297
0.0602464406165332
0.0803975301356509
0.0582934134001772
0.0821595167874321
0.0583282114787951
0.0946954676353936
0.0691310951508138
0.0865316395877967
0.0670716699396936
0.0790618276400154
0.0587406896359347
0.0719599431759332
0.0554484517354604
0.0989228642171702
0.0770460698619963
0.0834241367214313
0.067250509794237
0.075000448824279
0.0626354710248204
0.104345487470454
0.0611740461399366
0.0906079291337258
0.0813022374664379
0.0854773057694894
0.0594591929932339
0.0756038988782349
0.0571857611929826
0.0729259207319479
0.0537596130087041
0.0828335337429708
0.0659884760302842
0.081766805342286
0.0621977963679456
0.0843420479573385
0.0854294742578714
0.0860995624742786
0.111649496225931
0.0673055825584378
0.121205887808864
0.0904390670714522
0.0573065165155913
0.11871966957092
0.0589449002367681
0.097272511752165
0.0600413715672682
0.0918507087668267
0.0590703469701759
0.0873609686788935
0.0408973019441436
0.105962826155214
0.0897780073099465
0.0825693864236417
0.0619051723052005
0.0786071757884887
0.0550109438506919
0.107313005838042
0.0986820797737175
0.0805008249620471
0.0736305163633127
0.0698990694310384
0.0525218647612259
0.112277910966944
0.0962944575657175
0.0772524485069603
0.0676608113687566
0.0681519798166806
0.0560433912982377
0.0650678679004048
0.100877729231283
0.073915615443762
0.072016784140122
0.069837962669898
0.0807740150047282
0.135821737499105
0.0717353626104792
0.078224369799632
0.0525171259500934
0.0922972966074178
0.0995290849479287
0.0861701962795271
0.0604470149954841
0.0936219478329454
0.0714876542661453
0.0644089175225405
0.0621569532375282
0.0682464257955056
0.0766959787571241
0.0883773863000166
0.0378379931060723
0.133984970217029
0.135460012279879
0.0865897324608811
0.132813941959591
0.0619458344630818
0.0818597583782495
0.0666151502887801
0.0643069182310297
0.0678403336641868
0.0649917489596016
0.0641414499396208
0.0693638730972362
0.0969920660917339
0.0658916188455911
0.0877508196032042
0.0957972703464631
0.0851936500187855
0.0549391728690333
0.139603134755837
0.0775641574230867
0.0690810190428761
0.0904948411067197
0.0783729903932188
0.0609806414232407
0.0744392301000918
0.0901513340694673
0.0662589858060759
0.0761200090284248
0.0763053205254642
0.0688313180780292
0.0854221945422685
0.0661924113227486
0.0670071057238868
0.0770830354672584
0.0520151134910104
0.0808168040770637
0.110578086711111
0.0993252416677913
0.0685855769578131
0.0720500761652361
0.0438172647850238
0.100873150369878
0.0925585851864757
0.0579862178516998
0.0718965184232649
0.0567211146125062
0.0720135437030912
0.0574117641912225
0.0681226096427197
0.0653210087192643
0.0486100301663469
0.106338146216825
0.0835988536115787
0.0630873407827018
0.0663834861819952
0.0757188634351521
0.0657760263734378
0.106980047402398
0.100927458170792
0.0709841863137501
0.0677380014733809
0.0633800818576785
0.0901637284414766
0.0838538231509037
0.0709848970698505
0.0636569765937206
0.0723231489630555
0.055178746242178
0.0739641499935848
0.060651882551371
0.07024821833005
0.0631570260699349
0.070645649964855
0.0632461821858803
0.0738607869576731
0.0664129825174794
0.0733307808521777
0.0620959977525176
0.071005501104513
0.0519416897233738
0.0841908154351843
0.0833429671468559
0.0664878452642907
0.0632731981797843
0.0603459262630681
0.0594683353516206
0.0642223751904684
0.0662233457139021
0.0641255771921278
0.0620625944537167
0.0605104018450325
0.110007865043539
0.0683250833787746
0.0657618487734095
0.0620649478792451
0.0815880425434513
0.0868093593975356
0.0676544343317264
0.0758763054965417
0.055398752041509
0.0667456582137915
0.0620668899390014
0.0988425221649417
0.0715818655067275
0.0689321674164178
0.0783921058795596
0.0836491416151317
0.0519090268342331
0.0749077656318693
0.0462477665050291
0.1501028561898
0.0816727078108798
0.0805087846723819
0.133446126860299
0.0841341117192288
0.0697490915736448
0.0878175145102747
0.0336616846377556
0.213231308307651
0.11180746136103
0.077900680780846
0.0687602365723416
0.0958423730317145
0.0622224197518563
0.0809047639785093
0.074477143349595
0.0818796250523829
0.10906108784983
0.107962413279732
0.127167755316712
0.060285105531142
0.0990180792552113
0.10337896473363
0.0673689615289506
0.0775230834211784
0.0694812750201604
0.0784516449326671
0.0856488196562677
0.0953328221280752
0.0797744267532636
0.0935443693489436
0.0638269564881459
0.10566627136026
0.0737002958407018
0.074835030692157
0.066630743083038
0.0970252464186624
0.0630123613283405
0.0809709004739671
0.067616822190665
0.0859880352853616
0.0679143400350005
0.082834766712433
0.118994789677456
0.0954773156023108
0.0638180599564804
0.107380789728957
0.071538931311178
0.0796644897209267
0.0606456912484906
0.0846098502148271
0.0655113098458254
0.0755965686816421
0.0660223793536053
0.111230741269362
0.0767705379635495
0.077511489993884
0.071128807078422
0.0731447931212407
0.074619905623033
0.0775588858533825
0.065796772227629
0.0721554289600347
0.0733453037697123
0.0807467212649412
0.0860074152367177
0.115586139779128
0.0530896929068416
0.110504105317661
0.113577795889722
0.0775508054176023
0.0723916760597525
0.0733354678118181
0.0799610400366131
0.0728458343171302
0.077131933042638
0.0774351313381782
0.0872007024933334
0.10306415443372
0.0846617329852668
0.0898844889739903
0.0875257560728381
0.148494422668938
0.138660609709111
0.101581343136143
0.0864115398619181
0.0709789697749354
0.111719857260721
0.139671017245321
0.0932148883411375
0.124741437390666
0.0691248273772182
0.0941635321493813
0.0767007893752832
0.0993247480527624
0.0797968384023283
0.102216442578345
0.0834757758330003
0.0982011090797568
0.0903029620854921
0.101229298999307
0.0904594686423502
0.101384352848303
0.136584015866948
0.11472357715056
0.086355447391593
0.106490923678497
0.0882344161488535
0.138779201125052
0.139766080333419
0.152534147634944
0.144129423217567
0.131849325148397
0.163851606935178
0.114204914307371
0.115017604631995
0.109819033431932
0.112834556513083
0.122960931228758
0.119688669559836
0.123394827960592
0.119944436394396
0.12811915374832
0.12899289772113
0.115821891577141
0.12134403323204
0.135120209045079
0.144553561625922
0.134197242766642
0.134079606495172
0.13825303967633
0.147147533331467
0.210406693342803
0.186148872627622
0.164173693247911
0.143709096831713
0.162821907213926
0.134231472737354
0.160485180579933
0.146943840580631
0.172330221053018
0.148854523557839
0.203558197752929
0.189053296251469
0.189858366416724
0.186387505580932
0.164214509988304
0.18282876429512
0.184796930586014
0.184450856438565
0.218757193447457
0.179370110557609
0.185260574960814
0.192027556163515
0.218588844590348
0.192525019447945
0.220677042117336
0.183805869964853
0.198684777021005
0.192646146191316
0.214581941746063
0.191013144368925
0.219866751434813
0.207834589149019
0.225032580704217
0.215755207820842
0.220822338321506
0.215066381468442
0.243776575014942
0.225017713601398
0.235311316235059
0.244002406894231
0.235781475041738
0.231845080002928
0.237751952085201
0.254170041314023
0.274688607648684
0.255328212119349
0.300517640960744
0.245687984158435
0.262933796570761
0.251039603791826
0.263832707420939
0.246102475392451
0.262460047576559
0.27358366461452
0.298196116287299
0.27400747284235
0.279114954924737
0.260682963894532
0.285256571875928
0.295865053704965
0.299264962190064
0.296984581078988
0.313764937728835
0.295924626733125
0.318026216461809
0.311839264672406
0.371105269379186
0.346462450209162
0.368703379637378
0.323712264510379
0.344373893212002
0.328696006471047
0.355472103880402
0.341937241369878
0.357988634150094
0.363440093027432
0.361716377793102
0.348310954095823
0.383227291892619
0.374664567067106
0.371912583686883
0.368859673326564
0.405260175880055
0.384409859296523
0.394447174193103
0.387354304968391
0.401465662062649
0.395166641284297
0.410082799313722
0.403941028421619
0.441843063783134
0.398176616042899
0.411139188459452
0.438371731398558
0.441440110653586
0.428064116754731
0.451151887619864
0.44586492446198
0.457731653068339
0.455733994423064
0.484115532566049
0.465233242084341
0.469763769908315
0.473118319332197
0.489142232230183
0.48185367102535
0.497944061174591
0.497382299206775
0.507284719571033
0.500738060608272
0.530489510644327
0.502942929002691
0.523215204751502
0.525160601016183
0.543896241576603
0.545097401110195
0.544892849031608
0.538525906367201
0.581591344077006
0.561564703025489
0.565623163443295
0.553261165941621
0.573384036585569
0.545864060124794
0.578057323007852
0.587771618313625
0.596352989374537
0.589689391284884
0.618641267046204
0.592686168514613
0.594643253223364
0.584558656496154
0.605067793787152
0.60205205633185
0.62367586175424
0.61762069777871
0.658433770175411
0.627435238346495
0.642653567549371
0.649825557742006
0.666942761538178
0.654937191700693
0.660043080384391
0.674900416809208
0.701099917835075
0.671966489997427
0.684254671886767
0.667017679391553
0.679217165003806
0.675779156568459
0.690566860510001
0.693879834534482
0.741720833498376
0.73421916816404
0.743441247405087
0.744823288051837
0.764433090015038
0.772241604027568
0.758019757062649
0.739327455190071
0.723452510608759
0.754212303614185
0.796219169982614
0.798365967801164
0.801802958302439
0.750275406110171
0.809073126423688
0.778357828747935
0.785794160692825
0.789334522316471
0.75956328914433
0.806241030904476
0.822868275438625
0.74735034246726
0.813620732044653
0.840923589071572
0.81166168121633
0.829489359332312
0.89184736264883
0.867248467395983
0.85347565704158
0.888494408415587
0.888874358050124
0.853143448195164
0.908290479632858
0.87533969317034
0.903863376093709
0.941778233794664
0.926809838252234
0.90618733678971
0.916210526477363
0.878684316081226
0.912133536448076
0.899878738017362
0.945466549356829
0.931851095508471
0.915364244482951
0.956370276676921
0.945386004716688
0.95816192779418
1.01156678928023
0.981785930549036
0.948930352162373
0.955119590405544
0.98962318889693
0.93639662336442
0.94238770051389
0.983640547666002
0.915284391525773
0.969109800104762
1.07843376566371
0.979208289613909
0.974137223391427
1.05092894775948
1.0689482007871
1.00952410238993
1.0350821432167
1.05294971355531
1.06505096201227
1.02818597294825
0.992315791678378
1.05383848799595
1.10128912963318
1.06984668518824
1.15095352739134
1.08021546735085
1.0724215757201
1.14862040209469
1.06899476163398
1.03278464235522
1.09185576372723
1.05054524588231
1.05892041626984
1.12691197425323
1.10512060416455
1.06139219213989
1.09236062766289
1.09444782280046
1.04946481383648
1.1335887572379
1.10282873361768
1.10035292976754
1.16992849382525
1.07492139414932
1.05836674344895
1.07819767291022
1.13339122291216
1.19515048896657
1.12636709782845
1.15319400796795
1.15531124348335
1.14345139076715
1.19259238996954
1.25097560043395
1.1550564810387
1.19180330716608
1.22704056579079
1.17918007440486
1.15644982864016
1.14276506664058
1.20659257248243
1.24207825443872
1.15399639892124
1.16959029453908
1.18589865427907
1.20897096031944
1.18017278630917
1.19278531766424
1.18910143154996
1.24233724477623
1.22589141430296
1.15994458755799
1.19015759461168
1.20580507559795
1.20181876468397
1.22435474684509
1.21325030972613
1.20750399005924
1.22104236071154
1.35662576046397
1.28904483730872
1.28354303501718
1.24701893247169
1.21120937340744
1.24091789576146
1.3516971988162
1.27978293200598
1.22206637516798
1.37902549359904
1.24993815619364
1.19210547609921
1.25603281234405
1.27579807704987
1.36982446903854
1.28599560844869
1.30313915113953
1.18478170991606
1.17173289188586
1.27881914364974
1.2630312378209
1.20305114749108
1.23303545018828
1.27189157464659
1.28186943906125
1.23274070168548
1.25478218172327
1.17258875879364
1.26415365865308
1.25908901758751
1.24596668782457
1.28970408840951
1.23631824472149
1.30259657674149
1.27625987355314
1.31338102487251
1.30999834128646
1.28440905789879
1.29221723116587
1.2669382365632
1.25222728294774
1.22276561269436
1.3277365981162
1.35254721277885
1.35679161428413
1.28576648679472
1.21120619089882
1.21469945616338
1.32896958843358
1.34063294225912
1.23435952303609
1.28790889464182
1.30699883687256
1.25996647630169
1.275813679911
1.2846060745007
1.34528316769226
1.26286211054888
1.28412400944512
1.22301537514577
1.19884998125796
1.25385835412658
1.32067592593234
1.28514193142174
1.20697376134999
1.22798379253537
1.22813926444938
1.26892291492108
1.32492067149825
1.30110801449383
1.24490727069445
1.28299691112407
1.26940844448322
1.24689515329204
1.28630712252247
1.28754193573371
1.28056370676682
1.24087080572541
1.31064193649907
1.21755071148334
1.22352997863995
1.28692237500927
1.32028358188667
1.24604757545488
1.2478147631045
1.28194414131209
1.29172646725314
1.30129936346729
1.25088764372383
1.17453525969102
1.21887791311147
1.28488767470489
1.2156301780798
1.21727786617863
1.28016985451142
1.30389016639342
1.22680262612182
1.23235615565613
1.2744522370509
1.26581097077319
1.27256112566477
1.16658515022806
1.20366686435593
1.22226267659547
1.19313760327708
1.22451927442503
1.23465003414795
1.2350221794962
1.22547321432464
1.1625633233634
1.26847767969185
1.24037628458835
1.2338037275037
1.18877673840457
1.23078812111503
1.20413185495514
1.16380438754718
1.17317332588494
1.1679579048296
1.21977785865807
1.20729012268599
1.13161539039989
1.2031033739056
1.20229658997739
1.23484777170508
1.20782480758914
1.16337113659607
1.22420047017878
1.20339465660179
1.15875825909114
1.18724780750196
1.11660499249727
1.18671846366295
1.18155624035186
1.17376770835142
1.16140929456204
1.1373627972653
1.14279775649267
1.13456704466489
1.1122710565412
1.16529500687275
1.10912590985341
1.16509413616495
1.15553293534619
1.10225185312768
1.0847883300266
1.07803564800901
1.12515133707069
1.20310117898696
1.09726199066725
1.08396741403141
1.13694601222806
1.14178218945969
1.1194895778116
1.11696089231128
1.07566039174916
1.08490641717383
1.06156257726722
1.06457168761002
1.06776463444709
1.05965051349707
1.07928757079836
1.10466089772865
1.03513254792005
1.0438510137889
1.08276282534727
1.08163557244892
1.03792261028935
1.02467299492241
1.03268379001477
0.983997624829219
1.01264803972408
1.03905484935546
1.04132299779168
1.03209515987172
1.04048575343431
1.04241374836482
1.01569194961036
1.00239619258004
0.977543597084677
0.99660031208119
1.00173933686281
1.03142152396902
0.987276818842622
1.02889495896731
1.00984118917899
0.990638590356138
0.986710562640331
1.01677142554704
0.983721874946977
0.953565312883602
0.96531207779551
0.948282504038207
0.911162360354095
0.937787867009332
0.949530538660697
0.947694715585033
0.923178567694743
0.945880465198449
0.908034205045304
0.930945414211503
0.926759026510964
0.938745645858385
0.87411836093156
0.888015762671093
0.90269523672034
0.890512305207507
0.904785544737874
0.901345527928702
0.885553166074138
0.898598271563142
0.869407747740936
0.855538277626597
0.887874045142724
0.880751470312723
0.84893167064783
0.861509680853993
0.839500340054249
0.821482794396034
0.854294446109958
0.88161280744262
0.85295513484057
0.812091326561308
0.819993535433946
0.841872024173193
0.813290362658425
0.820148657640873
0.802290087593694
0.80161534907688
0.794415773968371
0.812499653316492
0.784847838316071
0.784624972142574
0.781165373599256
0.791148047554372
0.77594115895004
0.76687515397722
0.773615841420209
0.772756283692812
0.762890296595863
0.750666098586485
0.764834518099494
0.769565863197307
0.73527801255736
0.749061670029129
0.724024252445064
0.729987328126103
0.726212345519801
0.738878088331272
0.738277006063939
0.716213192041079
0.725865321383217
0.720322280174409
0.710114908454093
0.713210018671383
0.704055202773906
0.706346260014165
0.683320724224606
0.672471728613146
0.679134875587344
0.69329591097496
0.687959723565833
0.673216303856374
0.670959374961158
0.670397170434606
0.671186168465729
0.674396162646985
0.65195627831111
0.653816740311934
0.654403891406805
0.658438682609017
0.647985771998586
0.652007414039719
0.642254584047228
0.654520777167609
0.647212460824452
0.624794602708289
0.628712193938982
0.633829111583689
0.612476275667234
0.613420428173175
0.610590379085314
0.613810511044739
0.600827959800254
0.607519730784094
0.60146308048514
0.601451327744513
0.583928122519061
0.594083889483371
0.582947301822006
0.589195116549329
0.57508958012111
0.583846249775943
0.573490132895554
0.589453287509183
0.579116206095513
0.579257445042108
0.575972155402861
0.572613624859587
0.551264412467046
0.559940174629706
0.566872440876905
0.553551777971836
0.546093212875427
0.541904529182429
0.538529797022653
0.549907929434164
0.542567238012669
0.530302008767828
0.531920673028924
0.537370792722914
0.521343563937736
0.525181993103592
0.521044627650425
0.531411248677772
0.522768202501385
0.516267320393519
0.518535293825066
0.519714969981327
0.507230221414477
0.498884780300149
0.507123237348825
0.507907868870216
0.493782369128701
0.502485000840815
0.480306380695728
0.48138252307629
0.480546028435215
0.482506891454685
0.478778187442135
0.480840105222031
0.487250531874297
0.480507025505529
0.478094587370245
0.488508882403646
0.471897868415815
0.478748930558346
0.471469696897779
0.469553234289332
0.464188998004483
0.458186486490088
0.445748331638362
0.448605013201632
0.453651847326968
0.452454244279436
0.440633683829289
0.443226065296615
0.439152794510805
0.432828815285217
0.432122147077984
0.426773098156539
0.430340991697628
0.425618194865278
0.427637206321361
0.4255817166261
0.42334180869654
0.421364084725339
0.422880866672428
0.417345732400148
0.417146356384442
0.415338370871415
0.411386475201409
0.419541180939059
0.409315280817031
0.411025909219036
0.404359049569306
0.399415300047358
0.400364614341099
0.402993497608135
0.390608701870098
0.393086913191348
0.399383033723249
0.393407335367023
0.387137324967474
0.38503494500082
0.383921029686242
0.376713640923171
0.378733802966981
0.381338183703229
0.384037328168814
0.382303571566813
0.372610668488963
0.37213095591695
0.367916310181104
0.372931727866424
0.366053642553513
0.369712536849759
0.37581947643581
0.368583537299845
0.365680563736386
0.37157985181562
0.358991175954719
0.361627513311633
0.365328665075496
0.360944056650763
0.357018079686766
0.361041846984847
0.355921410449194
0.359620227140164
0.352430513977172
0.36084506462192
0.364754803899963
0.3581651264262
0.361455902405539
0.358911698685341
0.360515528987229
0.359591046233999
0.357990950567919
0.357931153441561
0.366246194158765
0.35391673417007
0.359798324638202
0.357720284835605
0.358331152715206
0.363634166831332
0.369518512773312
0.37439313051571
0.381651558401053
0.378856789295801
0.363810871547224
0.370810508329986
0.369838628959296
0.374922525970902
0.382158946045482
0.377902152171003
0.378951373064321
0.384842867895162
0.386527768766755
0.387668014247121
0.38922762831793
0.391573485785979
0.395770622817345
0.403248247579229
0.399020974755575
0.406572144633406
0.400099696064184
0.407327378466412
0.405827701530257
0.415614156169457
0.406394327938698
0.42030688177915
0.417507031003064
0.424311222362723
0.426972444022279
0.424225603303856
0.424787970566105
0.432538069192407
0.434321074152273
0.433125582727648
0.42960337625123
0.449664600615284
0.440070497875344
0.440380491730128
0.446975256376556
0.453966955521534
0.452703090299812
0.460861400493531
0.455875198977224
0.472862822329084
0.474419911104638
0.47128583364122
0.476618928213653
0.485737158184045
0.484777578848295
0.498627674177138
0.49235510495823
0.507378090301092
0.501181991450456
0.49366178825709
0.496067848958696
0.503296627840637
0.494761203141156
0.51392438597098
0.510427732913803
0.512452779166414
0.506076233801325
0.507082396759195
0.507411938068731
0.504051286674697
0.509637621844706
0.517182126521428
0.511003912159147
0.510334786465501
0.502378868516705
0.509897797623311
0.500478030123825
0.522814829862241
0.499544837105863
0.497005125616947
0.495095985496448
0.498722003194554
0.491064928372529
0.505614573666097
0.498456537347469
0.500219944706361
0.502353221474029
0.510578015670898
0.502569558241385
0.508998324734445
0.505282113504548
0.505123665611188
0.499217833634327
0.496740686418845
0.506630981173156
0.494082522763691
0.500144532921678
0.517210774562333
0.488014121948776
0.518205870845326
0.508459356677767
0.513709503361765
0.517425165186859
0.51109455622821
0.501412893485802
0.497336864244946
0.499231124527292
0.500067439858593
0.503560039458223
0.489789340711425
0.506634189506817
0.504047945960501
0.498245665286497
0.505726493090286
0.495932364623023
0.514344495242791
0.493149924183203
0.495689688418374
0.492332592177515
0.494710803581891
0.498942400484884
0.499866216770338
0.487550075671219
0.479711534349348
0.474885460551446
0.483823722413889
0.487720565610961
0.483945691197674
0.473541292365494
0.472358811115767
0.461990095216516
0.469897016486514
0.45833029602389
0.461248047013278
0.457428098990815
0.443280717483425
0.444352008784004
0.449234704056791
0.437771983262264
0.439499352075731
0.427687232140511
0.431177511943713
0.426800514895945
0.419510944755599
0.431136766235142
0.413620327235142
0.411733720920282
0.408098986856064
0.403059497292423
0.39596021377602
0.393090045711067
0.389208269637153
0.390177549041994
0.393067193902709
0.380406843093889
0.389527892374457
0.378180958592982
0.376559005519501
0.371740285014611
0.371384342920004
0.365443646075916
0.369775897593818
0.365613441496541
0.364383659896923
0.363281261859923
0.359065192463438
0.357829295908347
0.34855369288468
0.349769548623165
0.351516789828176
0.346279972356993
0.347371064835782
0.339596817190488
0.340606951776136
0.330453420734319
0.339172151731744
0.331159385197299
0.331512587392994
0.326525564928262
0.325401670266061
0.330068440598722
0.324296253094465
0.324558344352459
0.323870624209873
0.322810947343675
0.317691585710311
0.316782297762483
0.314727535106329
0.315466055118859
0.31682712114864
0.314815945447567
0.308640715763576
0.303404446503124
0.307839074134502
0.307927811655132
0.306949117647337
0.298741663870495
0.299452452821933
0.29984071137094
0.303023618330969
0.292442621288511
0.288753851588718
0.296240360463271
0.295294439932604
0.293304099491217
0.288037835255468
0.28424690741649
0.286439843752772
0.291745232527049
0.285210802152674
0.284185257300993
0.284203592282708
0.285886054279078
0.27806176609823
0.280512698236077
0.283465407732607
0.278521910094071
0.282643989271521
0.274136580410501
0.275645867495903
0.272443492695479
0.275182684079774
0.279663575003181
0.268094414031624
0.268708359099366
0.271297519093224
0.273736119646358
0.270347784006394
0.266416592558732
0.271499584408643
0.265279890134878
0.262039632253034
0.264701757309288
0.260774125736077
0.262489445857254
0.261566870580073
0.260500676677832
0.259412359679103
0.260598489248759
0.258229409898042
0.262711533289667
0.256521637795497
0.250284158178426
0.254929097810254
0.254773325666432
0.252230487552132
0.25881908456965
0.251576757449017
0.249533694449203
0.255281322536188
0.251847846368281
0.249277665448485
0.251731864232548
0.25058897190059
0.245140059819506
0.24739726818416
0.243731292214631
0.242136523645324
0.248735808528438
0.248383502456544
0.238087479448093
0.242167393241178
0.242519632641271
0.244978877813022
0.239244810526717
0.241648668388149
0.239985837794221
0.241491135476774
0.238182874647279
0.241755582894147
0.23998556080021
0.237167496720492
0.239971148786424
0.242274197297786
0.234925973314788
0.235264952596679
0.238108434872451
0.236226647622495
0.231850076720306
0.236065437331828
0.235254216665165
0.233375541498602
0.240368588980432
0.236301443401098
0.234670472404406
0.23447394583694
0.235212953452174
0.234952588824801
0.232753748310774
0.232187114104592
0.223722883043108
0.229883960531756
0.22630304575714
0.233665297906927
0.233021597462827
0.22979422220769
0.234992241037448
0.230999253248268
0.226097871947704
0.228037208071014
0.224458949210924
0.227144948654104
0.225746968968111
0.226293929293479
0.227238614790678
0.222045656750699
0.224383011472561
0.21844061267837
0.222941083976701
0.221470123036146
0.217788726522626
0.21988884414686
0.225137795672745
0.22003298192388
0.214846030849243
0.214777992585497
0.213814278671078
0.215773405556734
0.216260331092393
0.211639272205144
0.213762232141788
0.209081089966422
0.207046062378669
0.214488481071273
0.207132374604634
0.213216865219768
0.213581840770008
0.218054560188682
0.21047279051532
0.207411030525511
0.206387961450518
0.207310303769508
0.202288343805036
0.206839593421658
0.20227088966066
0.198148970653211
0.202976261804234
0.20092334466714
0.200225813583439
0.200595893840215
0.203366910380645
0.201006972155307
0.203457450092093
0.198647013724812
0.198306882697686
0.192884935411082
0.198933375716958
0.199139982533285
0.196874830288196
0.188153001719538
0.191770513303343
0.194259405274306
0.189512448594934
0.192000503950372
0.191519462409332
0.194581238177537
0.187570162404652
0.190966561464033
0.185405781019134
0.192256009997184
0.186547013684771
0.183711840818412
0.179702593619411
0.18356752068253
0.181799390188899
0.177557861389131
0.183049874880048
0.183403214625983
0.18174688991948
0.178243379675492
0.176395233551938
0.179996815772041
0.176842491183734
0.176300066051351
0.176392587518423
0.174133706771503
0.172867433780436
0.172118828179354
0.171751452145726
0.169310157833158
0.171783819700502
0.167038278864386
0.166936182365405
0.170405585088365
0.165503828064905
0.164800267375203
0.167044373908126
0.165144590571911
0.162943806046852
0.161597970260874
0.164406867409412
0.165443698408744
0.161138309833355
0.161384769396169
0.160602796328516
0.160499391945453
0.156174518954192
0.15872215932966
0.160239157791415
0.158470835952826
0.155326099365509
0.156525943662201
0.152166092638547
0.151022302360229
0.155993395534131
0.154584119825437
0.156666911808879
0.152822570300123
0.153421762786319
0.151678473700939
0.15227632604558
0.148890695079378
0.151894052498815
0.149099849981529
0.150632229736136
0.148529797847486
0.146391481980042
0.149128449741813
0.146979795588719
0.15001457000193
0.148374421986832
0.14634134269834
0.143224415351922
0.144198905853901
0.147527006256816
0.142490620955482
0.140700061549341
0.139246193778488
0.137025528673562
0.144692647308185
0.14231904413355
0.139255629987828
0.141731116853344
0.140992475483198
0.140031906953669
0.143324833289906
0.138868986038132
0.137000141005894
0.142068095850306
0.137804228744812
0.138459205773443
0.135974978369577
0.140907032175483
0.138318845085848
0.137990153636935
0.133954034002548
0.131960323060923
0.132770333714021
0.136106382214068
0.136944840765813
0.134927531263758
0.12750641290137
0.13805142727342
0.134826591736484
0.133419329856811
0.133899047286996
0.131105462305982
0.134167619966897
0.131205243054825
0.131336144740652
0.131824570123442
0.129665666037098
0.134371308759761
0.129962270313401
0.130061232269311
0.133137666288666
0.129497503009703
0.127638422055377
0.129345340179174
0.129880542091417
0.129225268084359
0.125940869215287
0.130509601215175
0.126153509197981
0.129195339783875
0.127005948456538
0.125997213376937
0.126476307389752
0.127128055885356
0.125563908352862
0.128419942437
0.126518120517502
0.126160484194849
0.121928728684275
0.124419510042718
0.121645762662742
0.124486167641379
0.126189976201091
0.125883252371505
0.122359404015864
0.122424657150793
0.117996899116201
0.117884058496704
0.12381489036605
0.124046676373251
0.119929549571358
0.12088883726302
0.123090907627631
0.123914574013863
0.118989392216886
0.118480782100335
0.117579923686034
0.117853499134417
0.118543398857223
0.119401891132321
0.116333211967808
0.118800999664751
0.121942845658204
0.118133605900304
0.115585827567122
0.118276679361596
0.114028455997766
0.118620822041507
0.114688651078416
0.116585199367516
0.113941411323271
0.113817794282128
0.114600283150541
0.116245331771529
0.112548653594154
0.114454521820677
0.114312340395562
0.117786640787163
0.110807984701741
0.110573334301665
0.113183537505692
0.111631096169895
0.112044272168736
0.115301196258631
0.110458324779103
0.112038945307728
0.110539430980249
0.110636580360516
0.111444833971582
0.110912365030884
0.107681904673489
0.111090330111539
0.109314191412109
0.109266661796448
0.109911771703054
0.109494821566455
0.107846285697576
0.107762032998285
0.105270584316218
0.10704914762799
0.10481074473489
0.108826722310913
0.107263876142953
0.106488315936755
0.102357876317946
0.103769043029056
0.105478180177636
0.103848507396581
0.10137187562857
0.105235350450874
0.100513147248298
0.102033416642372
0.101465055076952
0.101005285311361
0.101008643269168
0.0998001254267849
0.0996908621982325
0.100545739667991
0.0974461013665411
0.0981191354243166
0.0936822526765518
0.0970583291480341
0.0994269623109527
0.0989043448852459
0.0960142053712139
0.0977847119180248
0.0957067241264342
0.0985774910779437
0.0942649511149541
0.0962431251039686
0.0941318131322626
0.0969610471221359
0.0916529739243495
0.0927243918028925
0.0931884859268404
0.0955373948036298
0.0928160067355445
0.0927313908194226
0.0909455245791763
0.0925052100181981
0.0915797607621853
0.0935246929593127
0.0900316014032399
0.0910944606600299
0.0885434204528585
0.0909375357150197
0.0889110681137866
0.0920698518706054
0.0880770948854618
0.0940258208092743
0.0872129685989261
0.0927200575204374
0.0877981823296146
0.0856478778094677
0.0822812308403026
0.0871396947013663
0.0814648456143225
0.0883352518540209
0.0857885363527642
0.0863516356743088
0.0828536229603616
0.084360696963967
0.0837929699721953
0.0865583688090042
0.0826646203003164
0.0893874071424802
0.0824075606327514
0.085475123708533
0.0790419990790961
0.0845277000644439
0.0810183114015862
0.0809069118141096
0.0811478560799993
0.0806555109400486
0.0757768549580893
0.0846003441253022
0.0782432754712769
0.0828393460761833
0.0787668414067871
0.08021649292703
0.0761642245942084
0.0805556103302978
0.0759039666618588
0.0789595819651519
0.0779444978828847
0.0791052824021157
0.0789402173106052
0.0788617754570406
0.0748058467124697
0.0786385978266236
0.0730192226584548
0.0772890866002419
0.073688739124201
0.0779155394923715
0.0746040684938819
0.0794885013440026
0.076135795393488
0.0790085181529305
0.0748862908728101
0.0787437476314973
0.075771781458148
0.0789128560927738
0.0750252488923329
0.0794402779381077
0.0753310042034039
0.0779497265537873
0.0734365478480262
0.0803821587441494
0.0782917718396477
0.0817338347121802
0.0766731537063832
0.0807279270980603
0.0766423546701115
0.0826183736478254
0.0807236630395721
0.0873608483243137
0.0775937771601242
0.0795830259157834
0.0739693041675396
0.0790430049683997
0.06967465846945
0.0800254201388114
0.0694927167136535
0.0811415801176633
0.0735706378943262
0.0742627809535797
0.0693201527644829
0.076675124992063
0.0699107453121035
0.0761595892676812
0.066205068469086
0.0831781683628944
0.0725339166707323
0.0781650578902314
0.0672165561606102
0.0799858357452787
0.0635624874894861
0.0799365194400655
0.0669400911110888
0.0837920926913543
0.0685579699644234
0.0833255880285596
0.0638465018940977
0.0819618551654683
0.0649820365381774
0.0814241956326799
0.0688167085771557
0.0805230222486539
0.0647359413350262
0.0759356600351686
0.0674739391263753
0.0810219539073662
0.064460006153633
0.0815560696721766
0.0654304720917319
0.0784138786510124
0.0619866933937522
0.0753319958249579
0.0662924009491492
0.0771477531555646
0.0724983553386212
0.0769156995389195
0.0735183126168401
0.0639721249946255
0.0765757186363355
0.0589593840945392
0.0918438979739315
0.0543502644492005
0.0875129696910636
0.0421116306641446
0.104530364833267
0.0463319428584596
0.101529513072424
0.0337201297583738
0.11145418012892
0.0354058548017857
0.10154003740551
0.0422372297030354
0.0995519603342842
0.0448650848750092
0.0914716028831939
0.0615099585003631
0.075184440127018
0.0685574511585324
0.06921322438938
0.0733740651701076
0.0655119711009246
0.0750391497203769
0.0626065079657175
0.0700792153931259
0.0691388670376513
0.0650650114467557
0.069379036942105
0.0615323095024738
0.0704719583435586
0.0590301320480254
0.0685088669205457
0.0638385455357799
0.0647004372765425
0.062878551379078
0.065457712899941
0.0623515006065152
0.0641674197916506
0.0623436119383572
0.0663762371417153
0.0623539175892147
0.067086821354147
0.0625625260712057
0.0627885743775077
0.0617938807564987
0.064341111607477
0.0624450393382058
0.0648553805591853
0.0604540946340654
0.0633026006339826
0.0610776225354874
0.0638191103570396
0.0609111524629558
0.0618279400461865
0.0619516700340603
0.0611050742921268
0.0617637518686417
0.0653001352944493
0.0639889742274785
0.060786302618937
0.0598241997902895
0.0630859478599236
0.061937049588682
0.0638369425119153
0.0608628675921842
0.0632306401793012
0.0605449290448886
0.061412801442623
0.0602462159556368
0.0629930867261669
0.0621601440747845
0.0651928038473004
0.0615692875259138
0.0643854061670671
0.0619651272031469
0.0631014130995736
0.0635868585661919
0.0629985267149401
0.0620712794676164
0.0628141929046392
0.0617381583913845
0.0616664143485414
0.0604709674758738
0.0608011995037403
0.061314587759212
0.0589549582396641
0.0625421792593212
0.0633604153391258
0.0626632267904841
0.0608034347780489
0.0600177924592816
0.0615390039760121
0.0603930365822223
0.0624418954791243
0.0625283440527368
0.0604845113373138
0.0626811905139065
0.059520570505873
0.0606461820474661
0.0604746233950112
0.0631729713929991
0.0612368906235975
0.0639627137046027
0.0624355091758886
0.0629725858606696
0.0617272370808359
0.0619169932613883
0.0643604879820104
0.0628546787848909
0.0604690741182598
0.0627573853089667
0.063539563049838
0.0629422467251791
0.0611782555290823
0.0617035568357281
0.0601142212396824
0.060952732462959
0.0616409422338127
0.063828053671106
0.0625838933014353
0.0644838922907703
0.0603211870512276
0.0625612687169054
0.0628225792985057
0.0626119708581265
0.0615013477442493
0.0651764953592131
0.0642938222212287
0.0650258550562581
0.0614811488641421
0.0641178192714394
0.0625817240857622
0.0645158615112126
0.0626004524758553
0.0631947663528985
0.062845787191068
0.0670463859767497
0.0643710421784438
0.0620014044357927
0.0631061512465781
0.0634742104854909
0.0619593729144446
0.0635965658363895
0.0633107826203435
0.0626727574913922
0.0612556525289935
0.0630908511721052
0.0643701084392589
0.0636385839542494
0.0637093041317104
0.0643615479216685
0.0648836109807516
0.0636658575432115
0.0642931889229196
0.0635580705086011
0.0635641646988383
0.0635684272270499
0.063652221760359
0.0645161504031498
0.0635844223985001
0.0662961331341096
0.0664647778643758
0.0638113495602958
0.0627845077229715
0.0641203205555619
0.0626889091561719
0.0631197143724533
0.0633776786103277
0.0668459619329698
0.0673295608104533
0.0656139655510286
0.0618146194290675
0.0657790125717033
0.0655293337006441
0.0668914590417764
0.066089946724871
0.066238726211283
0.0634767685999614
0.0654943335315098
0.062043034645043
0.0666887445811336
0.0672029327902143
0.0663449728454343
0.0654474321643075
0.0681722869224187
0.0646109368720773
0.066955019305215
0.0650453390974431
0.0668760166307447
0.0667749072969545
0.0676000618448949
0.0647435240197231
0.0660154703397723
0.0659283961183758
0.065971845457495
0.0651977176789254
0.0666353969155814
0.0668735967386812
0.0670262049560709
0.064884739682255
0.065856543728474
0.0643263956604161
0.0675126837931134
0.0650095673769258
0.0623791001914001
0.0642749235321137
0.0641139032064184
0.0626090260164029
0.0630199105698881
0.0616803581256452
0.062190842830644
0.0614703432885021
0.0645879157172621
0.0617850043161051
0.066372196550358
0.0620464379343361
0.0653204307601098
0.0616960169242176
0.0628015781445543
0.0610707171289101
0.0648097980767186
0.0624767199544677
0.0624232437912561
0.0617855919192842
0.0647260873058151
0.0609608464145514
0.0633511190157848
0.0642522480297431
0.0645414740108141
0.061421655360963
0.0617086926148128
0.0593137624576477
0.0641611187361629
0.0613128045708084
0.0612838575745418
0.0600182052671259
0.0620233989351362
0.0625297575114656
0.0631318861664238
0.061699837153224
0.0613514001700971
0.0571213817189105
0.0617730620974041
0.0591466495084032
0.0612573552715656
0.0606327342191174
0.0618936017559891
0.0605712849074345
0.0626741304595098
0.060736479731833
0.060987258311933
0.0589027087265413
0.0610045903135638
0.0609220809704499
0.064152808903377
0.0600025573136698
0.0608391691494941
0.0603555798675878
0.0610888481952952
0.058798829578885
0.0619405835081993
0.0590392305435903
0.0603029072781064
0.0606555085265844
0.0636515613180524
0.0583131556958008
0.0619182432998732
0.0602342590252718
0.0605788031858445
0.0600528614806312
0.0598246996415398
0.058963114870869
0.0626240233720703
0.059268326428947
0.0626652480158037
0.058219311237266
0.0606909497157585
0.0589147121691931
0.0613607165455582
0.0586409401113808
0.0612603490602031
0.0619005029681001
0.0647241438197889
0.0588665961310759
0.0601266248251775
0.0577206494751942
0.0596778131891205
0.0585437809597514
0.0592447576899528
0.0594692825090523
0.059569157731353
0.0581808519272573
0.0595238140528492
0.0603396461370746
0.0603953502530218
0.0594485382150279
0.0605171542393816
0.0573668794977167
0.0582206676776925
0.0574660476487968
0.0588280987738486
0.0568223787930781
0.0614016956354902
0.0583945629572913
0.0612943269214618
0.0584578505110546
0.0601324268426811
0.0601497070139041
0.0610943112797813
0.0576733353416206
0.0594842399766066
0.0557129893206724
0.0583317791919952
0.056530784241092
0.0579459683217278
0.0551980661013223
0.0574576443284905
0.0576312706336453
0.0581977468390621
0.058219779750224
0.0581581549138104
0.0562278946659813
0.0549476514662966
0.0565234222499456
0.0582456847559731
0.0552454298744934
0.0570740260691624
0.0537863067984564
0.0539278522921286
0.0536391603554789
0.0537384069207472
0.0534900962405442
0.0589147873352343
0.05639011042634
0.05759071127257
0.0520516056661654
0.0563092563557177
0.0514334005376333
0.054497563136115
0.0514913085339578
0.0541758822705867
0.0499845760307547
0.0552562175758493
0.0502944719165378
0.0553660108295281
0.0508348420416836
0.052080381942444
0.051254459979225
0.0544844688189417
0.0497649780376957
0.0535698726837566
0.0512605401893593
0.0548346960321162
0.048199464609087
0.0520185307604826
0.0510259906965043
0.0539626678694031
0.0497867732709772
0.0524512311707011
0.0559335148506489
0.0612441839380285
0.0525770428391552
0.0513785145108559
0.0515894123677369
0.0539962823032893
0.049999182899641
0.0507549085475084
0.0490646687485142
0.0517794626453861
0.0507222463052704
0.0516809222915579
0.0494360929718909
0.0524550711015173
0.049080120566731
0.0499772898036509
0.0493517051887006
0.0495293982879204
0.0482396830827167
0.0511518814078113
0.0480569374882645
0.0494843181836538
0.0475586755103712
0.0508167390903766
0.05095653536332
0.0477381835656053
0.049585324928326
0.0565806265516777
0.0535005900714783
0.0493851230134962
0.0490219201417509
0.0479083471758326
0.0467392462864039
0.0487628778070959
0.0493248543194597
0.048867216729063
0.0470293382506798
0.0493257105491674
0.0476414370480189
0.0487635885779618
0.0461864170911407
0.0495092911831714
0.0459871508584504
0.047057822869293
0.0469208366791834
0.0486284014295062
0.046984146635194
0.0497970056205426
0.0453545675687429
0.0472108131055572
0.0489087907756089
0.0487180200001839
0.0477744527552343
0.054110781836183
0.0598596307359543
0.0548925305270435
0.0446032456371152
0.0510684410552822
0.0454326723928685
0.0498432786002889
0.04554021014565
0.048977965799797
0.0459004349926964
0.0503594494169261
0.0468092311972549
0.0478011311793979
0.0452005317753321
0.050047896589636
0.0443017092523457
0.0470843122012853
0.044767622833795
0.0487489367083098
0.0430557914951696
0.0472126432605501
0.0513439615582841
0.0603837011958415
0.051286812504445
0.0489376420716469
0.043447290404772
0.0501484210205942
0.0538734223151395
0.0605820990990099
0.0416676785670536
0.0508491788552067
0.0443471707877612
0.0487206417257885
0.0427564467895203
0.0491843867225603
0.0458699241033167
0.0522926787771892
0.0489988317884143
0.049056962019718
0.0451332617856026
0.0454345079145008
0.0456747653895824
0.0480858252447466
0.044217354561571
0.0467649961984817
0.042354442553669
0.0475381024837422
0.043487784219584
0.047416255432578
0.0426848434258854
0.0487026357255652
0.0501395507958958
0.0551556069912221
0.0460227836852845
0.0483108650312551
0.0434296464649168
0.0469030020415256
0.0510273089688798
0.0558182804382777
0.0472575984786321
0.0461664286273932
0.0462476110695193
0.0434101972034428
0.04607693318266
0.0473454311085258
0.0446538758466868
0.0468876464381367
0.0447311073262831
0.0473801886084271
0.0436038685384801
0.0458521257974341
0.0440536845006787
0.0472736108412413
0.0458868484258752
0.0487282673077752
0.0460766275490749
0.0489750934907892
0.0425024113834004
0.0525923984222533
0.0548842910816023
0.0698577581765736
0.0577088215961787
0.0585042442445445
0.0468157636128224
0.049364382958377
0.0458933750733403
0.0466082293673869
0.0458248292180724
0.0498100029150183
0.0446229237867809
0.0449006416943846
0.0452677400927872
0.0463305141368459
0.0422965153024748
0.0445428152479571
0.0447913925115349
0.0428604834786679
0.042228195505662
0.0449662460692004
0.0439129114248859
0.0454628331185635
0.045665502242176
0.050495411611453
0.0560218475543474
0.0446746088444183
0.0536964234362994
0.0618730908334014
0.0721542518967817
0.0536474615987211
0.0494771227783818
0.0501889372596609
0.0451877231975316
0.0486067898134878
0.0490864654905139
0.0530074296791291
0.0482656195860931
0.0483307796910429
0.0464816583605648
0.0513840810424034
0.0447547320700674
0.0483140125827304
0.0576314481897691
0.0745458146813268
0.0608914062012076
0.0490365981107565
0.045241102551561
0.0597110080144379
0.0632612035667943
0.0551330748439674
0.0460249374002014
0.054308988912369
0.0449401459068401
0.0508966013808924
0.0462589332795343
0.0518556169316628
0.0501244175624215
0.051073663677145
0.0464535816217904
0.0492484707247235
0.0456651814666009
0.0506247758176385
0.0495260223840761
0.0627170954599412
0.0585379316637668
0.052886776458057
0.0497770642327671
0.0553143435783227
0.0477067198432208
0.0522747816603312
0.0476662058569573
0.0518129840908848
0.0621465530903659
0.0626396765955351
0.0572339825344902
0.065362187783807
0.056625888607305
0.0526547884579832
0.0512403269105111
0.0647325441349842
0.0525569520672484
0.053623968015662
0.0600470850992389
0.0780265909574972
0.0755893578980072
0.0641337664331438
0.0571582694329172
0.0497109522940552
0.0568390946883361
0.0477709387046975
0.059037257265007
0.0622134658018492
0.0609965362289566
0.0511372495556081
0.0555326959069035
0.0615141917499848
0.0641800967287835
0.0584339926015778
0.0568907845426577
0.0546747196055007
0.0589008060234619
0.0677974936614753
0.0574773457617496
0.0642440950593566
0.0728566662965068
0.094968795847436
0.0742188428102811
0.0632658465257118
0.0635997531494116
0.0844997579720467
0.0670213568867915
0.0571089289837866
0.0596678502591726
0.0573145118149904
0.055937386982868
0.0676049805927738
0.0776412018620189
0.0666430995652609
0.0592131591957533
0.0646345964997476
0.0618865761225211
0.0785921274640319
0.0741985642790478
0.0631585600757158
0.0634742038362563
0.059804916520426
0.0685687335542408
0.0960422510411306
0.0851889989491399
0.079380520415876
0.0910394533583499
0.0882025765037267
0.0763378430701042
0.0783924082792229
0.07076907189044
0.0893140401593934
0.0872122537498464
0.0760060037082008
0.0699519854354763
0.0972587040158242
0.0912801975196516
0.082642249901687
0.0747954526798987
0.0795783084250908
0.0744428751529484
0.117792329301146
0.130010806885408
0.113228254471602
0.079355718567545
0.0934488479860836
0.106916736503459
0.0938450686808915
0.0825612606997645
0.0843672144059775
0.0810076277598996
0.0834617463532697
0.0877345131696817
0.0960644562508824
0.088175599143796
0.0963358507180338
0.0881772384324557
0.0941957840269166
0.117188665487866
0.151979172576778
0.124910826458229
0.117531527846899
0.123447499149779
0.131093548169934
0.105074769843863
0.105697887624753
0.0988356501686592
0.115628200519533
0.109555320006628
0.109542060529985
0.10983535875653
0.132993817766559
0.126222500181722
0.132231732383198
0.131784913538729
0.125256444033957
0.119225812013193
0.161289832085578
0.212051889942164
0.174185159119129
0.135411599125667
0.152342433382266
0.161479115979976
0.208384944972801
0.164196857613561
0.151866291005456
0.153865258763305
0.162202893982873
0.167874225509757
0.182231127624371
0.185093201625703
0.20184071149975
0.182863752143945
0.197183970314428
0.209225260656032
0.287463753486821
0.263077684761672
0.237445183815814
0.217742053478964
0.244634044030427
0.240169863237202
0.237704453968177
0.239259555083711
0.244985694621949
0.2750896237294
0.306227210845392
0.282266486997179
0.274678620280402
0.290122528222771
0.301792923245583
0.297799663539947
0.331940386699925
0.335649526621153
0.314288490393028
0.313663566535092
0.32099397587705
0.322075722824043
0.332535238508022
0.358222830140386
0.367550831642961
0.352026334143386
0.356848883175889
0.352522169828508
0.365048219658545
0.36237216897908
0.367991825092274
0.368801047955186
0.427506959620873
0.428750873422737
0.523518422564794
0.414276535888881
0.388730101254045
0.376528975265541
0.399174185323692
0.420967198325405
0.422073450363898
0.423136903189244
0.415273206749373
0.379089425831975
0.390559671573668
0.384967005359185
0.388631553740244
0.383260577898159
0.389434282667358
0.385333290832855
0.422143549931263
0.394498028781812
0.442576063046795
0.439314160356989
0.39898275202588
0.387359544636206
0.391253551867028
0.373565760668422
0.383408627622493
0.374832778990023
0.395325595528353
0.404885050299867
0.392246879037546
0.373612507520053
0.381930942259763
0.393913775941257
0.401946699449377
0.367291786691454
0.370898059094524
0.367007661506965
0.36675418111738
0.357806834090581
0.390539146112894
0.409063568178465
0.375333870800239
0.354042884997237
0.353672970304092
0.350688767570543
0.353383867297286
0.344180760609598
0.359105103991161
0.350638668502401
0.349132990810453
0.349193206344029
0.351831163088739
0.337663584128189
0.347807593564984
0.338797375602857
0.348372321611306
0.339655946386711
0.344653021272429
0.342603156679082
0.346584400308791
0.334208912243261
0.345960312810205
0.33941838548033
0.344617738149299
0.343518882546127
0.339974357784734
0.334449841690807
0.346174890753219
0.328487650687877
0.344974840583972
0.33801325632305
0.344359013849654
0.336072893654441
0.339161306146856
0.333088316396955
0.336262684455568
0.33384182317824
0.337300133930133
0.329657553165547
0.337134820031815
0.326958529264612
0.336052327641727
0.334507196353614
0.396644978527997
0.344971611670887
0.327402341015023
0.319082956671593
0.321518021439482
0.30968365149503
0.316539615449078
0.354204101317567
0.339340167122238
0.315149128069468
0.307259488189679
0.298824591680088
0.325348896999117
0.303453640548349
0.293934302526252
0.295334647885869
0.298032789654564
0.33350882623654
0.366060978577955
0.374194418030123
0.366262135318069
0.303938210542843
0.281377768182572
0.296898168668896
0.307131919775053
0.27986174493435
0.278404960896059
0.27080145029951
0.316911545542311
0.283652070080848
0.273002774531944
0.266980318789523
0.267621703806019
0.29338420847438
0.293548801473367
0.278512534367837
0.292685342431121
0.289884150543838
0.29197476510441
0.308095828258597
0.326822533499638
0.277207129761048
0.252410531209593
0.249317469444635
0.247455561240401
0.260361440435406
0.299926335075568
0.254881449546042
0.258743705374833
0.227036996213892
0.234619559999568
0.233157548954131
0.250776058476845
0.235071695870856
0.249884348373744
0.261053880075334
0.221253846757225
0.241837515990323
0.245349921497789
0.262328436770295
0.275944502241663
0.231574809562927
0.218210989746111
0.258057109399048
0.262294545682529
0.226826400571487
0.228354471923297
0.200267624786229
0.218109985332657
0.222133442191757
0.208592553568096
0.221497973031436
0.231456865124192
0.227565883975779
0.269857072205606
0.279482296600425
0.250727628395514
0.201455866018226
0.193239602738196
0.191643690119458
0.200692605105323
0.193219551523796
0.192647270762126
0.23348417770786
0.206043506083917
0.195534382763638
0.242683708046795
0.204058792949553
0.197345909008829
0.1997630019786
0.196744497210621
0.209154417546788
0.241648186592494
0.255942444435292
0.228275657674646
0.228636696285483
0.245752185415321
0.217777231580093
0.226316221937571
0.219006204331786
0.232389105138366
0.234916025887098
0.253218393429059
0.242927226666713
0.249360970279542
0.250128633948482
0.259290516298211
0.286784058504259
0.293934867121868
0.269294525964239
0.312924733962369
0.309357097542225
0.359056853381569
0.311786472967044
0.304682952477607
0.309377252200243
0.316184334045631
0.323513358929278
0.323672706318076
0.344269982207259
0.371722495077985
0.333794442157257
0.347572110203804
0.341988947365083
0.357158744087356
0.358628698204084
0.401963210480394
0.381282045476329
0.453561826023849
0.400976234098739
0.393815521252001
0.379631844406674
0.376467840197168
0.38750487294294
0.385508823110733
0.373048476365402
0.387290595589041
0.393389626189629
0.417651600005559
0.390441280243973
0.391262786599406
0.390332325576793
0.402377214628373
0.398205978317561
0.407622643151103
0.407311708371814
0.414657713092233
0.408987484680283
0.419557795314249
0.418993928158923
0.519804991742486
0.439206469537513
0.435737911276206
0.438774216479759
0.447691790171668
0.443094684629865
0.441615605288321
0.465203330021247
0.468017260220263
0.454432304493323
0.461014181788149
0.463654844646331
0.463852006590503
0.479230106934376
0.495816601754374
0.469863487053953
0.490872538337144
0.471342867436565
0.534074221352626
0.533832127212663
0.516211847843473
0.499831455559874
0.500078202333668
0.49615208396367
0.49915433662625
0.493865405636977
0.505122025908304
0.50301030898186
0.505189745530438
0.502736565002112
0.503815479172169
0.50350388064594
0.501338799207464
0.504297424347671
0.52790561585102
0.505344884347647
0.501327700192077
0.498419577156013
0.504299193303145
0.497359009222732
0.539489396346658
0.518029224068617
0.502006778470713
0.505560089298237
0.514251694688385
0.526041939207181
0.517296963256169
0.494858236472769
0.504201018534159
0.491885618810325
0.503261472883705
0.493436260794019
0.512256991818309
0.535071419087275
0.517884090711789
0.505617185066025
0.504577973885817
0.507833422077853
0.509776933763644
0.512893998816394
0.5135230280835
0.51489203745007
0.510454090733991
0.522717516866087
0.521386120005971
0.511099728542189
0.5321720976959
0.542341593030543
0.530935754305072
0.510603351950538
0.507303701954823
0.504703331797981
0.511889134755545
0.511390482357463
0.4985356397276
0.490529120635615
0.492201360324494
0.486455231897352
0.497049081475531
0.507953172579979
0.485229952986435
0.484340751330949
0.473602790115656
0.460623019975954
0.462976151669808
0.461256292303972
0.455246681657817
0.451665819542965
0.453451410379723
0.440175063574543
0.44857809820332
0.443165389276404
0.438351039357172
0.43914687745911
0.43719284819164
0.432639872990836
0.441206107977185
0.435452694635931
0.438602108094527
0.427426363641199
0.433231736251758
0.430733751620474
0.430307449981359
0.44104245581548
0.45077013144069
0.446742004424959
0.438208519808614
0.433614978633483
0.438525763236423
0.422972853373654
0.433890354702914
0.425736522122126
0.429462536637493
0.42432871074668
0.431612913162933
0.421726561519107
0.43219079128649
0.425474059266535
0.43066677274813
0.424567919159035
0.427223052002018
0.425189924614136
0.432127260825472
0.416840097458021
0.427168627771466
0.423676907096108
0.426901209434727
0.425791178800638
0.426804433314781
0.423388352092998
0.425299800608339
0.427922423499906
0.422958461563713
0.426111474431743
0.42357966817694
0.422745328400107
0.419862860204771
0.420677033956103
0.424707821607537
0.41853715280738
0.421246398029972
0.419776063844503
0.419866805554392
0.416357603570323
0.418428617749051
0.408451342397152
0.41383680579508
0.403054895318438
0.403592243812862
0.401712138913852
0.399482565449082
0.39151189400147
0.390479580537255
0.383067056822297
0.380933104369931
0.375526154101036
0.377131586389071
0.372131269055973
0.370606128402514
0.37297745793107
0.371087709601215
0.369008906611685
0.367769903618318
0.367223833445212
0.367642114620839
0.363726498280953
0.361846522188864
0.361908713407493
0.362505792963316
0.363545144517438
0.366078000300409
0.36322149040374
0.364697374111771
0.365825346494124
0.367880063803776
0.364539873254038
0.37254298634563
0.369605950041176
0.370595180528966
0.374247952310759
0.377019111733521
0.375784533073391
0.378669628534582
0.37983252190793
0.383829906121945
0.384190680030335
0.384587675670982
0.385800038027758
0.387667033401045
0.38894635495881
0.389258576248733
0.388866009025695
0.389753645558853
0.386007261328741
0.389974686209071
0.388844524935194
0.388922593755136
0.387936519566746
0.386587212834969
0.383867668381213
0.384893763208236
0.380565423004228
0.379520251176737
0.379228678515135
0.3802845989745
0.380004048667089
0.379252470933764
0.375022705137682
0.373954848401147
0.369489537768549
0.371788823351733
0.370778721850437
0.369005250242977
0.366929879575445
0.366619359040836
0.365926314482985
0.36474078447918
0.36339379118954
0.364066034837089
0.363255201756619
0.359844860453703
0.360232791686352
0.354213062648466
0.358223512879575
0.358017377331699
0.35336279864423
0.355184959692419
0.354950439805662
0.357293090366986
0.352166113358608
0.345982089198726
0.348447671603603
0.346498012086833
0.343318669509319
0.34387799192862
0.339347691771962
0.341236156848982
0.335096759195536
0.331780857785812
0.331728575667976
0.331239700400626
0.325199481551309
0.325999266700056
0.318830520675341
0.319971561184899
0.317038758200281
0.318094573574137
0.314255034153256
0.316568504206824
0.312630115034713
0.313091569946767
0.312286639322004
0.313417287826574
0.305718435629771
0.310252148571274
0.308663502709304
0.307654062979531
0.305462638512291
0.307443462636811
0.301021795316988
0.300554655076915
0.296994146787603
0.292874990458024
0.288100493382867
0.286106948811747
0.28054977204659
0.280689086820059
0.276843938716996
0.277657900192289
0.277562203544521
0.281340292457782
0.279843389072954
0.28475863769513
0.29043730032823
0.298738840022197
0.30311374378207
0.312286905411445
0.327082208526388
0.337578914854921
0.350008243810783
0.362779710249045
0.378867634576994
0.395522937446197
0.404124492090685
0.426489456207038
0.437309658984102
0.452892524483136
0.469347772013501
0.484008183492063
0.496711197102388
0.509955590329742
0.524908084668019
0.537377758037302
0.551283436046636
0.566401298387302
0.57222495428708
0.582754481544805
0.591352314010611
0.610272343716778
0.617306304463412
0.626678507139959
0.63329462731144
0.644794726913917
0.645986196482653
0.657358988631866
0.657757759205837
0.662312948440484
0.664515459434086
0.67227966474313
0.669179288666408
0.671554132527329
0.673804139838508
0.673553709972343
0.674281440256689
0.67679785631837
0.674564362898273
0.67623394183395
0.676377310884007
0.67806198150787
0.677957087285894
0.690775839973518
0.697405715086946
0.698785168934242
0.69834572248851
0.709004517909191
0.709018102606656
0.718458790417865
0.725902899437241
0.731459018009335
0.735421511110631
0.747317909285811
0.752561963705586
0.765427860748996
0.770514618580871
0.781842380911457
0.793509705791961
0.805879474031753
0.807526600564687
0.82369944259992
0.829794782124146
0.84023745266611
0.854521886782336
0.856243187014955
0.863699301653313
0.860431000919401
0.865643344067743
0.867610099375869
0.869728138171386
0.875074051985288
0.874089761070783
0.870279713269364
0.864926478047487
0.872169382229133
0.860887467532464
0.861343243626122
0.869073628744706
0.864053838183876
0.874014879150498
0.894300768831241
0.901416460647779
0.920015664779492
0.927719653746607
0.933272333258635
0.95302349052846
0.976747856213609
0.981070906741249
0.988790746109539
1.01795297361842
1.024885218857
1.05863906814495
1.06239911707309
1.07207574066421
1.09656743024665
1.11354911915382
1.12660199578724
1.147791327118
1.1667283221977
1.1947324048553
1.21234244008649
1.22411940444968
1.24260997255156
1.2703441626296
1.29333214822832
1.31795090151395
1.31173991982337
1.3445599933849
1.34107655336431
1.40325650875551
1.39893555641667
1.39638342155829
1.42569703239694
1.44597881953374
1.43542152789995
1.4373044095772
1.50899190129036
1.47549009048263
1.52605352197624
1.46502379684982
1.51949340378934
1.47255459448389
1.47784520627773
1.49154151339843
1.44769021782932
1.48384741308392
1.48572496673982
1.42796811450447
1.48205297493573
1.46038877788002
1.48006007632556
1.49876467605399
1.44737480136293
1.51906721469502
1.51677696936807
1.4873132201162
1.47892969059469
1.57931931236369
1.54776957912333
1.55485478252771
1.72067549513735
1.58006093466293
1.58213276865042
1.63012605368905
1.57640923902839
1.64365967099308
1.64612141824556
1.59783474692073
1.68535943231988
1.69984186277829
1.66000286016888
1.62924282139143
1.65111141261176
1.63939343926322
1.65583582709737
1.65808338063864
1.59554608310547
1.65358289502669
1.62061276973919
1.67553882036064
1.6260387265974
1.60571533423994
1.68442033854852
1.68637641074323
1.62751416317813
1.5920972398748
1.61634016260399
1.64330850092283
1.62113283583158
1.55540225862799
1.54345295764182
1.50729853598923
1.47313305029296
1.51010843852685
1.51829781515979
1.44571248300918
1.40347506744112
1.35807533998968
1.34085583390039
1.28230370037649
1.22360272487926
1.22307797032202
1.15302968520575
1.13085525674103
1.06622870331494
1.03938510001542
1.0039724747836
0.977859501845834
0.983739512366235
0.93603095472967
0.914665245488363
0.933560670905336
0.896217277063086
0.906797564501725
0.906293117734493
0.889785901832751
0.872875879314387
0.863485010687209
0.8619566650455
0.86663514853106
0.84280898653702
0.831061376188162
0.816209597059743
0.804726673776908
0.793659709783339
0.760740223948507
0.748268807489708
0.727334557330839
0.703365520145305
0.679183748597265
0.663602267185212
0.644974674518019
0.61114477157617
0.582435049674501
0.5606736364572
0.538988718257114
0.516679710278394
0.494174655897081
0.46241013131304
0.444500861009927
0.422870592152852
0.401448397772758
0.385283499752098
0.370819862374253
0.35374889454215
0.338575307273721
0.329899817129548
0.316739782124825
0.305661225018475
0.300199193408203
0.289496883348692
0.289477573548362
0.280694845933977
0.276804093227571
0.267735773597328
0.26977860586505
0.267604740936392
0.268698073060225
0.261570860709918
0.267091564182458
0.261606924742043
0.263801918180904
0.264378607710913
0.264642605469813
0.268788303365962
0.268337852612273
0.270831112770642
0.2731141405665
0.270419698029175
0.272285774976758
0.266386704812121
0.273400342160435
0.267370016293267
0.264256880520701
0.263321328885631
0.264184184825836
0.2591658682797
0.256749582499413
0.254247497660243
0.256402385666535
0.250325533189832
0.249794815846351
0.247986965554082
0.246535106519264
0.249107734660152
0.255447827572507
0.257374848625483
0.25495254284703
0.26003495636371
0.264803132628733
0.261422888379298
0.265298250921736
0.264329614800481
0.27371048129339
0.27383275537243
0.278630549515748
0.275024528179571
0.281299028255936
0.282908980473653
0.283722956763517
0.28655882539141
0.292631163649446
0.28622512614636
0.291075218704476
0.291691123985195
0.294907083360787
0.294622189344869
0.295604654772257
0.291834799066073
0.298661638614135
0.295593783000889
0.306630557082608
0.310880577819066
0.312929763081487
0.319605758740317
0.323472943494105
0.334232273098791
0.342630801783742
0.34791269301098
0.363599296276552
0.370292067629752
0.379326647255812
0.392403142484006
0.401937434287187
0.403403995204101
0.410921145712553
0.40558707715602
0.405371986229771
0.402335944921354
0.390850618911787
0.384526252871396
0.386776319252732
0.36781937092121
0.365839323610713
0.358960796507207
0.352363493460194
0.356013645988997
0.344880971742717
0.339085719626597
0.348442295596885
0.35052873594147
0.344810890774041
0.344572237637949
0.352572624715102
0.35268418259163
0.349264196745378
0.343976987575925
0.341343786420282
0.3390305861703
0.340681946010142
0.330511124289138
0.334276659471096
0.321308217968373
0.322764602961108
0.313927484788847
0.317564748041575
0.312265825946786
0.30908534002122
0.303809530886225
0.300972158998571
0.296090619351573
0.300853369838557
0.294986528824391
0.294832647023142
0.293163675836443
0.287098682632811
0.286226278263773
0.29323826556884
0.286875681375618
0.285232941469946
0.285145133725743
0.283705451532449
0.273159053943988
0.281853763276856
0.283103300708199
0.272946084471051
0.270604674486874
0.28192547194764
0.272680483927734
0.270239283901231
0.262641698338763
0.257911137523268
0.260041914772742
0.262210285282788
0.259464308619851
0.258046554880204
0.252339335832964
0.258279062264992
0.258851866873246
0.253854146941721
0.237590222088517
0.245926847385227
0.246836261526292
0.245736546720229
0.239756252357481
0.243561431188417
0.2379576258406
0.25179540337791
0.249543327477204
0.244189889984953
0.245115433627207
0.24568484049952
0.238265012356862
0.250869175124549
0.245036809155604
0.252856179924291
0.257965269966205
0.261871418700496
0.258434990947458
0.253076979088217
0.263686243193314
0.270484095077385
0.26535158807324
0.269827980805194
0.267009187489427
0.281383839919724
0.266945369890503
0.280262828820664
0.288792235475055
0.293078816521385
0.290183595935074
0.29317623657977
0.295708204870676
0.297802800892555
0.31198654993247
0.313875349116395
0.319014966157062
0.337517232088562
0.348895712897937
0.352624626537547
0.354501561578005
0.380746907611056
0.384137473838093
0.413803076973484
0.397057473205356
0.435116147193228
0.434320226360629
0.423446918541109
0.455014329496859
0.469657691561108
0.453420802535259
0.469368486362263
0.482902794525597
0.501057853709922
0.46689978629696
0.504582241843996
0.483398190192811
0.477034945551269
0.465346599149589
0.457087769907864
0.458964995353445
0.475547936764415
0.456655340609397
0.453741592676662
0.462117158838756
0.472105290729493
0.459881181668525
0.454901853515944
0.459036851885893
0.451157423043522
0.427254889687296
0.436966629664375
0.41907990769531
0.423481143154585
0.402204404275835
0.456398542671849
0.437182583992983
0.405295389046073
0.423693459215469
0.416110884804527
0.39484238752998
0.406771539561671
0.394059767656673
0.38648203473202
0.389807646622691
0.393562895869685
0.404552579985167
0.390480972119826
0.385980963911469
0.408006058667452
0.372713328980358
0.37196731846572
0.3814269255049
0.395847188552665
0.416360549048116
0.428290804940297
0.402435107307025
0.396953722582965
0.406596587238526
0.428952453048545
0.415183782017792
0.400252824457516
0.395804993257463
0.412674679647767
0.406322934048503
0.42141214924679
0.385751763746923
0.415593990885536
0.412602657215024
0.454784587787868
0.427541368616032
0.409050427772824
0.396384722433856
0.426864416216146
0.420222129488647
0.414764728794958
0.456945204301344
0.486257734474557
0.442046303258557
0.422066762112667
0.451655262423905
0.483283312329711
0.467018539634856
0.513684356692323
0.499177710675001
0.482388033677492
0.475979412577885
0.495854502238709
0.481055604870942
0.555396317412854
0.551835506849249
0.491082105813133
0.458591009573471
0.530342853178495
0.579739175034483
0.538299639016286
0.55643599853134
0.643933004332148
0.62186705649611
0.615005691245305
0.591802213069887
0.65729692690308
0.644342084988503
0.593582161233728
0.541749925965497
0.539043337385106
0.560553059441909
0.547657010081947
0.504457800707759
0.548324272826146
0.550160098331967
0.582252232506377
0.582025145680763
0.533624911618125
0.500501452591211
0.595465701750188
0.582788692160283
0.480028959085909
0.449814408160961
0.504833303893009
0.478588822824341
0.544190143855596
0.553255532003131
0.584740787122999
0.622258050423644
0.461707253172298
0.500674336500828
0.564776188333219
0.568394682111091
0.616342866914975
0.418827305196395
0.541662011194576
0.608987932853247
0.538533061594721
0.573656119286225
0.681248095827666
0.578638486131449
0.906276440843827
0.470131506130402
0.397771852494705
0.645032648198642
0.500275080762697
0.487059580870012
0.799281106183093
0.385597313746615
0.343128623039581
0.724852581978885
0.849296719333247
0.481202630383293
0.844440256257148
0.646657193451928
0.587261968736874
0.820625775032917
0.399070527483748
0.411723665111543
1.1395692103722
0.906557115787742
