3596
4000.36533379555
650.420452594757
1
2
2
0.0326531732148677
0.0401430816226005
0.0308834985597193
0.0424444056407502
0.0357330646988721
0.0412882125596533
0.0316115954428737
0.0509818975577439
0.0328679159233288
0.038719353558833
0.0371874448267746
0.0375097777867709
0.0403201301674606
0.0422979479564483
0.0363581411929352
0.0380642122462008
0.0240256265642621
0.0389473559864868
0.0343594056875875
0.0435705023474819
0.0353718906043377
0.0385495881866057
0.0358356961327484
0.0416601790056319
0.0274196141708071
0.0387316273581732
0.0286211236812369
0.0498536733574655
0.0305322887083924
0.0443329137375082
0.0282465776536142
0.0411448278805999
0.0303517612794042
0.0404046220503887
0.029273125056252
0.0466616889097087
0.0340792275698998
0.0466952795508141
0.0297376761152912
0.0411672684150696
0.0385267927217813
0.0370013501155141
0.0315232956698651
0.0510018800242786
0.0274887643585059
0.0507737329345951
0.0298098523074644
0.0424091030852075
0.0386343883573135
0.0352098234147396
0.0364907257454592
0.0316165346212461
0.0376364457074388
0.0420386720139437
0.0282675733851657
0.0430403632570821
0.0313213446496907
0.039266491793123
0.0411141733033087
0.0391008279093225
0.0385675943697318
0.0399404448478694
0.0331640701253763
0.03445643490967
0.0199833442035577
0.0443879971497246
0.0278730659501085
0.0444843550175126
0.0322716711182194
0.0418622006344762
0.0200348580318799
0.0532593327599314
0.0257513377859824
0.0446233407290706
0.0356450382966311
0.0420182807194525
0.0198368890178404
0.0376144628661075
0.0271421613664473
0.0365369371948083
0.0365816601280386
0.0458414506051119
0.0305696619730726
0.0394467879753404
0.0275402219074435
0.0431868246609108
0.0205639895592787
0.0405596363875784
0.0189852729338548
0.0357245375850628
0.0291811779197776
0.0424181043993545
0.0313258138203639
0.0350582285059918
0.0217454766109954
0.0363223986643529
0.0248608804454074
0.0547283771472107
0.0218401221153343
0.0530854153129866
0.0201475672299677
0.0475201236712834
0.0444888381699241
0.0269978700070304
0.0519089510920844
0.0284835471862982
0.0320771452126664
0.0502012548432045
0.0314153838280629
0.0415637080160377
0.0250990226736201
0.0399361080167863
0.0263210035708281
0.0421856369991454
0.0182094543911061
0.0474525242164008
0.029819500198125
0.0407193237335897
0.0282101863587297
0.0474324327522741
-0.00041835411133799
0.0536303374713822
0.0340581573556212
0.0326038757435129
0.0278419995003497
0.0321236725863759
0.00744576753938135
0.0531769943257726
0.0330390420416047
0.042995902752303
0.024143801938641
0.040097093071071
0.0237029588339623
0.04192331888032
0.0456922280110115
0.0323517464198621
0.0251265206193158
0.0278928245025553
0.0349344301302407
0.0374574515211821
0.0253601523823013
0.0370668422453805
0.0196941870173586
0.0325989554344208
0.0304115658495656
0.0380037071490275
0.0209276207924883
0.0405197127183665
0.0224616313475498
0.0459827801157122
0.0304078231442414
0.028865303919638
0.0352334691655238
0.0355619827442078
-0.00922127638702942
0.0632649403867604
0.00907278992965629
0.0401977907944992
0.0428958057134226
0.0216713330611224
0.0320824038182372
0.0261865880279267
0.0301671870065723
0.0223662463643049
0.0345186898047433
0.0220464233502337
0.0297487739026258
0.0376152714821601
0.0241380595106968
0.0377726840285218
0.035169223882937
0.0417814646505911
0.020709618926642
0.0819839934937009
0.0238359734498878
0.0403240665663855
0.0302053928452404
0.0355699908072115
0.014926245716327
0.0357057010437443
0.0366370917234279
0.0411651954456993
0.0262383482455535
0.0270998961767924
0.0221225964518202
0.0374348190662042
0.028664342830484
0.033610602033646
0.0259696449140726
0.029903766184891
0.0228268958795052
0.0466606770769494
0.0349537064234374
0.0303310903332527
0.0358639257446738
0.0153139765111012
0.0440348350120547
0.0366762438158785
0.0332176635253333
0.0363023127365541
0.0306674147736544
0.0296823219596541
0.0234969423191682
0.0361674609116809
0.0132250402258492
0.0121742843253258
0.0507290823152847
0.0298419375969351
0.0310940684616859
0.0304349464543744
0.0279745742762694
0.0144675447971295
0.0512765440817215
0.0384358120757793
0.0305527036945409
0.0328276135406246
0.0206066953566555
0.0476675622597306
0.0345974537073996
0.0316784750569406
0.0278587197185133
0.0312486026494406
0.0246323711601738
0.0338885802139495
0.029548006700642
0.0342452432796495
0.0295444270530307
0.0270180258770231
0.0277113471364489
0.0365842350874413
0.0312964458062913
0.0303607168146802
0.0283788957060491
0.0386557928416131
0.0256901085633621
0.0405210311852785
0.0309974490636279
0.0363286616330431
0.025997851402056
0.0337054041932502
0.0243967105919538
0.0327935494937089
0.0286242183543619
0.0332955735440992
0.0249892011475296
0.0298309074980347
0.0474217000759981
0.0307039851519727
0.0377096220566788
0.0173975369268258
0.0476299090192158
0.0275771308679276
0.0326875836097718
0.0253220790258552
0.0357822901270268
0.0232862950623534
0.0273372924390087
0.0372803059905591
0.0365811623839167
0.0337345156146631
0.0397982851975326
0.033451957919163
0.0362383513631519
0.0244794423654879
0.0222198985921116
0.0656118864566504
0.0215170413353017
0.0390531957470705
0.0518247226199612
0.021444431445012
0.0371089246295113
0.0295367773378474
0.00521857483455052
0.0806376366077651
0.0383637824727005
0.038208773490079
0.0385795128157787
0.0495662258617473
0.0239859421741652
0.0370647569510182
0.021043653175901
0.0478026064122225
0.0279215861322027
0.0514516177151852
0.0497870167150898
0.0147133422223482
0.0536627989718232
0.0348715320227007
0.0309532144215979
0.0393935054319882
0.0324921852344464
0.0253894597136106
0.038902394762653
0.0376462934723022
0.0419132052187655
0.0333185625818497
0.0304653779150274
0.0485501525696015
0.0368450659196103
0.0396700145722904
0.0403869884413665
0.0413325877636236
0.031862803149108
0.0452585478848433
0.0315947811283716
0.0531661548280805
0.0210180367658041
0.0297809203977668
0.057170553834674
0.0406943853273601
0.0439541034894778
0.059084221492598
0.0374342537999434
0.0437740136828541
0.034002167470552
0.0440765236934768
0.0334270415088385
0.0400266468863394
0.0292372828516943
0.0625963871176149
0.0362564854147281
0.0444434286057864
0.0317753421740988
0.0427606449215086
0.0410014474337449
0.0500358877860139
0.0409529282592337
0.0554993858506292
0.0470991987694413
0.0445108675805097
0.0409220018643864
0.0610761812979617
0.032543161357039
0.0786039135657246
0.045632186644782
0.056918231404165
0.0437027881088132
0.0505376360858819
0.0474600257852818
0.0503241973530942
0.0511932308735692
0.0545727852047118
0.0557849862174487
0.0682055471751849
0.0484696442687802
0.05471659840445
0.0475281217015422
0.08114857265132
0.0677000914782027
0.0576864236148894
0.0633994293465026
0.0426226287979787
0.0804800301288665
0.0503111844446182
0.0712838979168425
0.0739349347773857
0.0594211034385162
0.0793640565563538
0.0641653091385571
0.0824826944893591
0.0675346744465684
0.0878317218099217
0.0716936888646158
0.0826290144911596
0.0675896819324413
0.0874911314664943
0.0693776582141583
0.0909114985479785
0.097889279397911
0.0953641263468558
0.0794920192263209
0.0894249481619949
0.0676351321760176
0.108495928143566
0.0795809354830168
0.125350559637751
0.0906781154303628
0.106125453896746
0.102120249389702
0.103431370193239
0.104429164902539
0.0982253481416338
0.107648032605187
0.118703932330649
0.106450625054076
0.117582358520182
0.114186882940301
0.124677045086971
0.115835021482446
0.122664944476276
0.124388111559698
0.124374993027597
0.137091928338503
0.127155815366454
0.132189651422056
0.123629295676055
0.133232072366812
0.153858066847273
0.145875085425166
0.143889717086798
0.153771345720112
0.142920446612121
0.146045383989116
0.159124214961622
0.155901062969706
0.165000575052801
0.157459396819622
0.183235460547746
0.146797013911965
0.176311772532945
0.172637415362206
0.159851163955673
0.169873341734439
0.174764259497719
0.171686825975971
0.192350626817244
0.190140478711419
0.184539418878813
0.183996563499904
0.192118529660149
0.195289745773746
0.216741243742047
0.189869427914919
0.207407308407679
0.198041808756898
0.224279948340156
0.200160247042016
0.225395409922193
0.21188878084568
0.235212426882264
0.223627158209821
0.241219932563588
0.22355407021722
0.259533995520429
0.234210058958538
0.244739998693776
0.246152027126057
0.25488651475734
0.264824669293071
0.247367337943917
0.262868373410504
0.257226183761778
0.255279980327042
0.281524336207193
0.247234070728031
0.282220847332155
0.268278999716382
0.278389648643967
0.273859435637487
0.299311136562255
0.288092514922757
0.309701790639531
0.279120692079909
0.313256475233669
0.307491549541376
0.324030230756248
0.323575017816002
0.320619905332248
0.312868465175727
0.332782752456027
0.332798764237726
0.328785400264963
0.338618282744174
0.367838950884696
0.336407537329396
0.340175300040995
0.34869439080777
0.370672012550184
0.339469179230497
0.385855924620356
0.370698701227591
0.395009940978229
0.370078534947068
0.392322840312059
0.376600163103695
0.406095842336406
0.393325781525757
0.415506615973521
0.383663891310932
0.411865852786284
0.404080116826871
0.436140513498019
0.418740232385715
0.419438270379091
0.40566473759
0.45843791151608
0.433206454301833
0.481492500946146
0.436053089734248
0.464175601073661
0.447655243879443
0.47143481484323
0.446461475065493
0.491668441795026
0.455233000876385
0.473621705449997
0.465448702961182
0.509469373601842
0.468226936386107
0.533386461426274
0.494994974991988
0.535086064413754
0.504707800838847
0.524601295825754
0.503498461082014
0.56094574026574
0.519066054291154
0.560827906903604
0.507776627909254
0.557522571339015
0.536528702013458
0.584615768121568
0.569238150662137
0.576273057554667
0.537948376875041
0.600228356586281
0.563234561764529
0.591593399874512
0.561671572781062
0.600947006381785
0.562990087302985
0.646502268332334
0.623330966877979
0.628203837511843
0.603033547089583
0.649991746162827
0.634595361206212
0.642173474988454
0.619983910132643
0.676024826820664
0.640000893585466
0.664262456623679
0.653316001979339
0.684978264410918
0.676951714632549
0.705703887098113
0.663494316858534
0.706518513368833
0.644656964180834
0.707858194703829
0.691659867309506
0.743621094802966
0.698502176926368
0.747862330407592
0.717441239432954
0.766685439265444
0.734605017025527
0.752857810310403
0.717337731484569
0.716123777492395
0.710398025471203
0.812486130194034
0.749124762214855
0.795375363366215
0.778831956844568
0.793347054233662
0.744045283635776
0.826862104110855
0.783801151908057
0.813138025943397
0.801750499496324
0.809492566741211
0.85499455257874
0.858468357677772
0.788842705645764
0.879863981572337
0.80998325705273
0.854578919627321
0.808423312736191
0.852888032022227
0.843027388831064
0.859846997548249
0.844867264477293
0.914143395635522
0.881905650281172
0.897654328309956
0.833787082720892
0.883828292606441
0.856192432300656
0.941205263649586
0.89424261011069
0.938704009861134
0.896873065880239
1.00543241322334
0.904630114590689
0.899603710580997
0.903127324978118
0.986056104277212
0.990517391130066
0.996221885740179
0.968488255808984
0.987580784622343
1.01807779287539
1.03553543697337
0.934738535909207
0.983784436188385
0.964961052128958
1.02477080729484
0.989291414977088
1.01785763297267
0.938026856104809
1.02918536717902
0.99998706600263
1.04395436027811
1.01843498381091
1.00476036783421
0.996179748550419
1.12462355322392
1.03439277304032
1.0830506296759
1.09439564537209
1.13567017089433
1.00893117268368
1.06478372785958
1.05412890014981
1.14570814557993
1.10535953878737
1.1640951262262
1.0590229024476
1.10831035080282
1.04690698939534
1.23994182997759
1.10060110567026
1.07410414264451
1.07314671046522
1.10102217980725
1.12316651341388
1.1960514843261
1.08087505982916
1.2141284389993
1.04932570529324
1.20784731299191
1.157812092513
1.21924955866172
1.12154426348515
1.20025811338696
1.00968606729765
1.29440351237074
1.18090554708396
1.14139906269597
1.05108733516693
1.14751887355127
1.19667714127045
1.21088416058894
1.23676094341631
1.34991740392943
1.10244994341026
1.28981692948497
1.30159011885156
1.31689881567665
1.14483198689794
1.1813302215903
1.14672403811963
1.3212419357042
1.16949401533678
1.29844588621567
1.20490625251611
1.20574148574125
1.22919825668992
1.36697003471911
1.25717190942959
1.33130022562091
1.24928871180312
1.26972984922318
1.20964735226386
1.3904951870407
1.26000805074252
1.29341584710411
1.30930972152676
1.39906688380086
1.23084568443161
1.43652087888047
1.36204023083404
1.32713065397155
1.21195572279527
1.29648286227001
1.24329720367244
1.27453647066058
1.21166772324486
1.39715975223248
1.30760843715979
1.45606928262188
1.2288148616027
1.35780722071435
1.27628465610397
1.41620050885624
1.26012867209988
1.38956994884795
1.39853209456519
1.57042955132911
1.29410632141155
1.52862175177052
1.31461631107477
1.31751424217673
1.3339466246272
1.46359733479021
1.33043896583624
1.40799754362165
1.31712426917755
1.44835013680315
1.28916561431798
1.41890738855786
1.23434419323708
1.42906776182528
1.3526080761408
1.35045065098941
1.37791672603958
1.49047748700958
1.3999921988818
1.3828517700346
1.33213986117349
1.41703149854671
1.38921743606428
1.42084315738403
1.42084288108462
1.41492351604708
1.3484010472667
1.59009708297913
1.325762688184
1.4507804353841
1.31103102984238
1.3239339991295
1.29760737870474
1.37553151422372
1.34044749139341
1.45983065355988
1.3185650588105
1.41753876870487
1.52500323804203
1.57193648811269
1.30557127592515
1.46568258590707
1.43212708683378
1.46760692754061
1.30416379224408
1.38268292652291
1.36464847026482
1.43368054053698
1.40466928798162
1.55076669235664
1.39166934580189
1.39104256822444
1.37104552543441
1.44703946147287
1.36332312257054
1.36902555334694
1.31076792285531
1.41809448292189
1.40371287405937
1.41691700822263
1.2309190869678
1.51310968142674
1.42400303553237
1.32887949063442
1.34251612976638
1.63693664033991
1.43386291694638
1.42059313067982
1.30944456927856
1.37249434580246
1.42747552460664
1.62038424397923
1.4488082923898
1.42849836592261
1.30153903388947
1.39788778596794
1.33423848413824
1.46025082183496
1.3200527478064
1.4337174852506
1.31643965681071
1.38435707507064
1.3461020865297
1.52687690568074
1.40360383900391
1.37240310789102
1.35704483978079
1.44971115629682
1.44289801760323
1.63628702658359
1.37705172675859
1.27605620188846
1.30643294217952
1.41727295787375
1.3695167534887
1.37594277011598
1.29957149226168
1.40784569691831
1.32537481644957
1.39744326581927
1.37104835089734
1.45186633665251
1.33903364716676
1.41325247071032
1.33031165364882
1.34967120484392
1.36081533687828
1.37039610158705
1.2827213127972
1.50968330470263
1.30167242129593
1.34393299345681
1.34733173290707
1.36617760891401
1.34369164687293
1.35744539614124
1.24292865503588
1.32900712224719
1.29999984977952
1.36176125554527
1.28648924453248
1.38645256685572
1.33670190519664
1.3488607036816
1.29582656831365
1.28446924447221
1.30781165598783
1.42652707932726
1.29044761131012
1.28263934897214
1.23827483676894
1.3482146960596
1.40187469315008
1.33534950459957
1.25991918111
1.2881924566043
1.20122537787252
1.29266178600367
1.27985148705665
1.28159397936357
1.33683782418586
1.33240689660061
1.31569946664767
1.33708067706344
1.21858774480999
1.23432140318727
1.27837249811073
1.17720699570303
1.20931665015574
1.32179688814578
1.26568086825655
1.2514635740611
1.18234284842223
1.29246149997363
1.21321823930283
1.23643153060088
1.23909947982562
1.25243764578261
1.26665954473786
1.28158134149456
1.20451975395695
1.22101778395466
1.18992665447025
1.23520033961496
1.19478019041208
1.22240845361292
1.20744734392993
1.23581246657252
1.14614968549636
1.18032748782742
1.19128136851666
1.15592867491204
1.1394256670056
1.19639299875176
1.14140472683023
1.16704115899852
1.1062617856365
1.19371752080827
1.12781076937623
1.16916569356244
1.09064325738613
1.10199723003012
1.10492914697283
1.09465629532881
1.10996957873535
1.18179242391396
1.12664611674168
1.07058595977573
1.0858517668798
1.09147325593543
1.05815362278577
1.12736920978969
1.07547643806906
1.12275848908253
1.07166264129255
1.10611481517245
1.09155237564662
1.04965019163721
1.0699715944929
1.05833907407042
1.00513818388815
1.04881183520444
1.0311055209484
1.07979379900066
1.00456437634805
1.02101249695746
1.03054220928541
1.0161228951378
0.985308065250804
1.02237720142325
1.04511584597913
1.04936971348204
0.928216300552502
0.964721949256834
0.968924260728137
0.98550610612094
0.945864087511694
0.96709751746107
0.920408125019495
0.969099234227907
0.967625227381728
0.957703996039123
0.952343414505596
0.947512364625129
0.911306061995271
0.947753426071121
0.916066973594298
0.959055098328673
0.889872188942525
0.900206787948167
0.890095351739953
0.913487800914982
0.876782648391687
0.87967680020163
0.883218697516671
0.92069712412524
0.889501940370107
0.87270080982051
0.879974265122356
0.905446577936904
0.859414736097276
0.871881943334259
0.84751081724424
0.860260624412042
0.843938397424987
0.840099232779585
0.792028892098683
0.814467139193286
0.832334454770305
0.820984342077182
0.812587150831845
0.83189722128418
0.798731913135782
0.814198227413547
0.803167639450397
0.795779548561379
0.781762283574224
0.78277367971545
0.776572217755549
0.80486349070506
0.764009464947299
0.787737498884252
0.772127724045809
0.765688482280816
0.773310940833538
0.767706699867623
0.747900936153365
0.771250286238897
0.755991239611523
0.748932337040357
0.735643229557503
0.739240468129588
0.717862822067176
0.736433948733933
0.707995051531002
0.731309786890927
0.703923956864676
0.706381823575725
0.709459702129226
0.732277003230238
0.696815697750012
0.725885964636565
0.704704505410007
0.70200373709967
0.675946002640078
0.696806409822404
0.67496860605175
0.69026222738486
0.679429979956076
0.687217517863903
0.674496548617242
0.670235427023221
0.654863162725564
0.667831020587466
0.647645178737695
0.657669141645654
0.644352961899708
0.648026739596021
0.627361331152789
0.627922073315982
0.623487151532063
0.621654603875468
0.612601118702563
0.639576060712158
0.619868280684386
0.617185420470965
0.614537032652832
0.616254075760767
0.606984440010405
0.61788489876061
0.6049165291089
0.619495156716144
0.585524635359831
0.584923943616186
0.58768937342743
0.599553021805894
0.566329714314164
0.587788128995256
0.578880692305754
0.571779672988073
0.564548489500816
0.56607881821442
0.560159507988495
0.567125202035781
0.545802081222353
0.559951070768006
0.554102125287535
0.553082490295566
0.547951606615923
0.559323437809881
0.532874977256573
0.547620099427319
0.531057228384771
0.534625362724855
0.524725600962173
0.533622042355352
0.529642386360629
0.525301121610309
0.511590738821636
0.51604477405316
0.503273421484699
0.509906313534467
0.508270233307042
0.50843741845278
0.507582096784754
0.509065495960632
0.504088618162751
0.504024637422484
0.496617591979523
0.491836423108689
0.480616232280121
0.488646384695491
0.478713454960388
0.482411333530872
0.475213584881542
0.475250416946242
0.466788052083408
0.479298360353128
0.460720688470665
0.476095802306208
0.466235089799415
0.464274715896014
0.45413452322506
0.459396008467238
0.459719323766101
0.455774776640041
0.443240152432285
0.454009438953734
0.439447620316352
0.44521087330325
0.442952968928372
0.445911043526908
0.43402727636908
0.443372953721252
0.436231059431438
0.446925132530423
0.430237333315293
0.434205692877766
0.426178722227511
0.425086573317432
0.429657222557364
0.43461414439296
0.426037509084427
0.430560718766937
0.428467209231878
0.436478215956372
0.428875090161584
0.432707368457759
0.419909570484593
0.427551212302703
0.410654617285957
0.422777784971906
0.423573922937283
0.426391933581873
0.416003343960039
0.42095015625715
0.420782553840642
0.428604256038607
0.422106837486953
0.416848140978764
0.415068390349742
0.43301904408956
0.421271264898147
0.435122668577784
0.424803846462695
0.426541570056816
0.425489996129574
0.445585929393677
0.430667219899022
0.433940674867675
0.436349613839008
0.442679876129664
0.436533355010297
0.450784590880513
0.454078501056656
0.449616929229334
0.444353415920658
0.449516553053484
0.449192748806394
0.459995154154721
0.461408012953693
0.469585520228366
0.449438300176761
0.459387831966972
0.463253704170279
0.473362518266083
0.462967083373628
0.471607037258701
0.4714410419966
0.492555638921054
0.48240107389208
0.490563523170361
0.487128804918587
0.494219371877638
0.493831928855966
0.498534301772513
0.493575417202131
0.509883609710697
0.50099268887906
0.519351977274962
0.513751858970429
0.530385684687901
0.526038881896154
0.525822957592116
0.52481572043372
0.524271820122871
0.536098006979787
0.551806616140516
0.546214454572862
0.553877650344656
0.558210722894596
0.554971017898043
0.554787502974707
0.572565184046803
0.558676627164618
0.563812461593436
0.558336048248242
0.570367880277007
0.559293907918418
0.583148633913297
0.575937163945534
0.573811468351404
0.565146802332444
0.585479973570522
0.572454570213766
0.58638118661164
0.572493836748946
0.586400849586398
0.582376714394267
0.574409501507234
0.577512736863738
0.581474635679436
0.573570454763444
0.569784759610497
0.563990754136219
0.569949586540121
0.565463578399508
0.567799691693472
0.564096543058406
0.567615106684473
0.560835575175081
0.588568059293534
0.579771237804414
0.570745418362816
0.572377515784509
0.575363890303017
0.569962548440017
0.566424200037421
0.561670403819913
0.572992939885774
0.57445123717025
0.579656015788195
0.572155699174275
0.577790370121382
0.577773790598603
0.599177950245447
0.575441648173653
0.577061464994979
0.571771603903412
0.580553554794911
0.569121178090708
0.571204393807595
0.573616488381978
0.577763062913976
0.576969722965
0.576445230878245
0.565467905554234
0.577388471130829
0.564686783186723
0.572212048349099
0.568137911108985
0.576167161007452
0.570980088321817
0.572160052754395
0.573239508063073
0.560672369216864
0.566302865227656
0.571866625040453
0.549845370197827
0.553465104051805
0.549233769503502
0.561313272717234
0.546053880133455
0.560075768014183
0.544791898557104
0.540510452833569
0.527421937727618
0.538291977847769
0.528824226437549
0.531030450036894
0.513821822770067
0.510322084521213
0.51949213303008
0.513909896292299
0.504223426169068
0.515600974268056
0.509429241565669
0.503347950978541
0.492391471183104
0.492488947328825
0.480386981500579
0.489212885193751
0.4711280332222
0.474603073963622
0.471059679891821
0.476070820114985
0.462340011363426
0.462349328720665
0.456686286217418
0.461929903721471
0.455139667472665
0.457808252019724
0.442103621092224
0.439284246996873
0.437432054183036
0.443214109088032
0.426353750684943
0.428917203101923
0.425385505351833
0.423059424406236
0.413671405854881
0.418412970208291
0.408783329416187
0.420058441421831
0.412075182955555
0.409184537822672
0.402754689873065
0.406614193099679
0.399178669517247
0.398861325836719
0.397315906970857
0.400884210170733
0.387442517821691
0.386519996056185
0.383300439539985
0.389551613612684
0.383773282312342
0.385705527491828
0.380856066760624
0.385826113930885
0.375219259595602
0.373367594221229
0.37482958839812
0.375957820431642
0.365149896736394
0.365786393673521
0.367545871333266
0.366369860371443
0.363061010194315
0.364772547057823
0.352804883504543
0.356924627920853
0.350524156370092
0.356637602958004
0.355729304725524
0.361852621516641
0.351703550011289
0.359225466094406
0.351748655739092
0.350298380589203
0.343321862246669
0.344960505814668
0.336958552045016
0.342836238939316
0.337377711700738
0.338096622128972
0.338181358763432
0.338274427884544
0.332955228341931
0.336312779928996
0.335909384699423
0.336043016633162
0.327066160499719
0.330083000591272
0.319590044832179
0.328997736761649
0.323323811662367
0.325585973059927
0.325122607870183
0.327071231946754
0.319441568897748
0.319146237151233
0.316354607546241
0.321998266358193
0.311845424036102
0.318051902692239
0.313589167680685
0.316700018745513
0.314081216776999
0.318532161122556
0.310332256954779
0.307023944702387
0.307212591569883
0.311558973291841
0.309305816719909
0.308119609750274
0.310024805642166
0.307951887746575
0.303951102153118
0.308468039107705
0.293766745320775
0.302008177058764
0.299354574896605
0.303062115373735
0.299752073545134
0.302008298183435
0.296032454317165
0.298734087276906
0.29438960956395
0.299986719823759
0.294650967344601
0.295989582951912
0.295212940138197
0.30182258961284
0.294334385766178
0.297976293812233
0.287537113454272
0.289165856143189
0.284558220515624
0.289061319154508
0.288023494344335
0.287945021870089
0.28551480527225
0.285834790524129
0.2805600345706
0.285433273977041
0.28498748216744
0.289554108103468
0.28352542758224
0.286974928849473
0.28518685508973
0.288003645627612
0.281508956276408
0.282262170707539
0.281788754047174
0.283933987139434
0.282830664559325
0.285384407024932
0.281204290414286
0.283648060016525
0.27774723192072
0.281727488648252
0.278488732515767
0.2802211942459
0.278101700868185
0.274987034445329
0.267707423091322
0.271040921044997
0.27284995426444
0.276415029519505
0.275522615130969
0.276138892871633
0.265379474848197
0.273319289791109
0.272368814352856
0.275031226313995
0.27238404565151
0.271107160531994
0.268626984144983
0.272422729574254
0.262337870597079
0.26649569082276
0.265289369774724
0.269051253629978
0.259746498332902
0.260099347665964
0.265330028406112
0.268474956015008
0.257872928315394
0.259354478565057
0.259542889355134
0.261578868637756
0.256466265875559
0.255581006567526
0.253954875842474
0.255720119298546
0.251952753213454
0.258451940391405
0.249683157360049
0.250457666928417
0.248616503602129
0.25459057995779
0.246377846637398
0.251781500713339
0.251650209932841
0.253354250953951
0.248245181314715
0.250291087563633
0.246847293191963
0.249024107176344
0.243784679091058
0.245607789836567
0.239508856043451
0.245493834043786
0.242267763300745
0.242470090144742
0.240098227021646
0.240578826992467
0.233908250004479
0.238385415878849
0.235685270807275
0.23458934871283
0.231584346814028
0.230960832703369
0.227853101321195
0.230273454870318
0.22814843782347
0.230113719883775
0.224343189342108
0.230010889539029
0.226927118585629
0.224243325681049
0.222689961664489
0.224814516904979
0.219371914003758
0.221327216173123
0.219380183778054
0.219120942104614
0.216952476838368
0.218664557421627
0.212941308191781
0.22179166608114
0.215295412542577
0.210602811606262
0.210263667197586
0.210037968365242
0.205810787250028
0.208252548725499
0.206413143115492
0.207984600513215
0.204341517471957
0.211099509054292
0.201972315242225
0.204361586390061
0.199752220090629
0.205527863191864
0.202944936499431
0.200107989400588
0.195674983530681
0.198805780770683
0.196986990786996
0.197091557605162
0.18987328323565
0.195761761489976
0.193347551260912
0.194194552962985
0.187774233280117
0.193814667529024
0.192108934734576
0.190310451392557
0.187547595044567
0.193315563774786
0.185555906239023
0.186942317376614
0.185112178984844
0.186618638891475
0.180044001740362
0.18282517822533
0.180048364541268
0.186154011409907
0.179431885799673
0.181014454488084
0.178004439033581
0.178587767049243
0.174901492952504
0.180987555853077
0.17636177344811
0.177618326521854
0.174517190922928
0.176826585334635
0.173323114946111
0.17590644789596
0.172979673109287
0.175886673834774
0.170254815142481
0.17357478938396
0.169471779215443
0.171149355414072
0.170573037776485
0.174988151160573
0.171670427327371
0.16914349163662
0.169217044938042
0.172334960095135
0.162779652580388
0.167162598666603
0.164180970225804
0.162931945431101
0.159447179439936
0.165847259407967
0.163122993839688
0.160799010896878
0.157658718790531
0.163656501789993
0.164088462775539
0.165429367238062
0.159238312630296
0.162372651587384
0.162072328284197
0.160810329642505
0.15842507390488
0.161614999495289
0.155452760949048
0.157507312994846
0.156739055191818
0.157930131776301
0.157311917432716
0.158727043942569
0.154223653886649
0.157910164169474
0.154610600453181
0.157039964233659
0.152731942899641
0.151981179242852
0.150617170196052
0.152244446311485
0.151825083440767
0.152510762164314
0.152079321287522
0.154962583105979
0.150744927333049
0.154021700298103
0.150969263140532
0.152855492149184
0.150429868161794
0.151060357992083
0.150719614216213
0.149177621764021
0.145879730193278
0.15531492287932
0.150537275302887
0.150301564004414
0.143446764550151
0.147596793390987
0.143436949066827
0.145585455754772
0.145285614622307
0.148669046883105
0.143568845725323
0.148717324874791
0.145206992891088
0.147207127037235
0.144475852146177
0.147072417670115
0.142625022283061
0.145116091566909
0.141553430861118
0.144248608618184
0.14159224902873
0.139145160502397
0.143121200456231
0.141832993526071
0.136320630056556
0.143565417612732
0.142467498823891
0.141718722456974
0.134533446647883
0.140229372402675
0.139210390576844
0.137926601324898
0.135544214445868
0.140935019580864
0.138703664924116
0.1384800664129
0.134179935525639
0.134927028338504
0.135113384844656
0.138049692891742
0.133855429428794
0.13565385149208
0.134732025535464
0.136242409999785
0.134502126357209
0.135361449855331
0.130357723263757
0.134066275249537
0.130786863221947
0.136362842138734
0.135167451174639
0.135633454364339
0.131908943770215
0.131480664347528
0.128497026634396
0.13399822450479
0.12977438175337
0.131011585726715
0.128601699325397
0.130042872729517
0.128493185031087
0.128925946413079
0.128288590675096
0.131383812166467
0.125342241315682
0.127755760994903
0.126149911032967
0.126571414713944
0.121811451294837
0.123752912627449
0.124539941995233
0.127181866243333
0.121662090128732
0.125901721471044
0.123463166404717
0.123365880374077
0.119128375153415
0.121731897653595
0.118076928809185
0.12319855671692
0.122561006919701
0.121596601207513
0.116240144448159
0.122811125842475
0.118232815995468
0.116182722731128
0.115439067272427
0.117942784968776
0.113649829934249
0.113285888980592
0.113339731868955
0.115027230253967
0.113416959541318
0.114777903081924
0.111893125141252
0.113643132009129
0.113795789310268
0.114300197314405
0.111795685067988
0.114071047764347
0.109029112332698
0.111720385012054
0.107990522468767
0.111037745437732
0.105942917147038
0.111114731498314
0.106203999560012
0.107469460631033
0.107894770966983
0.106120782283076
0.10449456694138
0.105762138209692
0.101832491941919
0.103957408020415
0.104532729675874
0.107598119066438
0.100725730169735
0.102422123052682
0.102974793697104
0.105994406751118
0.100155142215672
0.103418889612514
0.0981805007468538
0.10310035053229
0.101344021299762
0.104755956885491
0.0988685288932936
0.0991915494837259
0.0953275380822621
0.0991119485209948
0.0970725930674419
0.0994300487189473
0.0953870424327851
0.0994289893113861
0.0956422305188512
0.0953998393594669
0.0931852152760062
0.0968774287558
0.0969487745802134
0.0979184980298491
0.0917452558337898
0.0951121587527475
0.092073711416814
0.0934111220205693
0.088522320781635
0.0943937294617432
0.0897353499672462
0.0899093312251418
0.089869374156174
0.0944712108590898
0.0877222372852265
0.0921366960292708
0.0890553054626354
0.0913838704898206
0.0901578269501845
0.0920741320072159
0.0878507187661045
0.0910844675889448
0.0863723039357594
0.0894740199094011
0.0893445125221363
0.0892341212954425
0.0872059984967423
0.0892140843094048
0.0858056815533695
0.0884938564368917
0.0867051304999981
0.0903113648905016
0.0845074335269064
0.0907548004235075
0.0844244479277148
0.0868085853619246
0.0837669051013388
0.0884368765440552
0.0857677845891951
0.0848533986431413
0.0798490268715664
0.085038578976683
0.0848627081042656
0.0874019424273758
0.0823754959864165
0.0862856197019057
0.0826503888839024
0.0844414252820228
0.0820508443249853
0.0853252976316067
0.0795580174486351
0.0841865475938782
0.0829193169452092
0.0882717542468168
0.0816709816633259
0.0853661825191241
0.0797149974314386
0.0823448444528775
0.0744616929978117
0.0840784211297091
0.0764317817050286
0.0852711861874442
0.0782523578439365
0.0835648911042997
0.0752010374826515
0.0806109911979344
0.0756952505679753
0.0855284854967138
0.0726426548285722
0.0832610692977251
0.0750963766415611
0.0816371059077397
0.0776129757664754
0.0884235808890439
0.0763059018737873
0.0843287351584976
0.0767155519170639
0.0838424965874463
0.0706990363080802
0.0846205739828788
0.0718743422606365
0.0822722499957107
0.0699556589085504
0.0815529694354319
0.0708301489873882
0.080616540470309
0.0756287832500613
0.0919301324290894
0.0773246570535096
0.0856903284150253
0.0756198626288437
0.0830452476064655
0.0750198950528692
0.0803987314944862
0.0716668952326587
0.0782945834910221
0.080183691596267
0.0817450649876606
0.0737616811835011
0.0739919390343493
0.079264029569232
0.0733976382182204
0.0805515787666432
0.0721907246387292
0.0858842435967211
0.0607311329622663
0.0951789583311556
0.0619614485242163
0.0924955220156062
0.0521041797544066
0.0952942143912996
0.058912889326176
0.0932380645199028
0.0565030956519477
0.0931029719473576
0.0626337792358654
0.0861782467621985
0.0684835332947965
0.0758402903853511
0.0743838425874215
0.0764505984324159
0.0759938822795495
0.0714567621713547
0.0779565347693783
0.0736084537503766
0.0752378220706331
0.0748481169379424
0.0738316057082631
0.0766078183551475
0.0698927058568488
0.0765589434906538
0.0726041848766458
0.0758245902905734
0.0741095230314818
0.075446480875134
0.075001297178671
0.0753830045220076
0.0727385969437959
0.0718816494458594
0.0709580681646592
0.0742679491116677
0.0718244346339466
0.0728281574576849
0.075498438449795
0.0739804446845398
0.0700088436017255
0.073419393410354
0.0730312048592916
0.0733796877578985
0.0719867400245434
0.0736897613005236
0.073455099501496
0.0730037904145728
0.0733092984715064
0.0731830517255166
0.0740235147950389
0.0749739643234435
0.0749172379593378
0.0751253762102203
0.0740520576950216
0.0740288581212933
0.0735673150148171
0.0724176750550517
0.0758448835250679
0.0780332241387529
0.0720024114618808
0.0740459904548225
0.0754256854392128
0.0753918812620353
0.0732252035791269
0.0719082080779665
0.0756809733043175
0.0771740818245529
0.0724323066477931
0.0736849272752388
0.0739213916351689
0.0754089996429239
0.0732408293655661
0.0734264282936393
0.0738195582890054
0.0724515114736587
0.0739749236585371
0.0736849627737052
0.0740312213388238
0.0742849983771694
0.0733205173116715
0.0723952930962075
0.0718792927915265
0.0726031032041525
0.0747937237562466
0.0766196345739135
0.0769334462121807
0.074217813878377
0.0749577432298087
0.0764752478103273
0.0765273860475176
0.0763823082268506
0.0783834836237909
0.0773340745453175
0.0741938063353697
0.0754332840975405
0.0742912356760773
0.0742117020069682
0.0778035432484452
0.0747323707463165
0.0753444758866417
0.075101600045127
0.0759002890894438
0.0753060063340215
0.0761466654823605
0.0769085519242546
0.0754340266423769
0.0749377041852218
0.0758678609860556
0.0751915613046188
0.0765611820744344
0.0763403463474172
0.0760402002398541
0.0768409985480886
0.0766813119472329
0.0752349898589846
0.0774370878732213
0.0754036153588875
0.0775089553766029
0.0763257682069352
0.0779869678750497
0.0782909447201767
0.0784072479762797
0.0780918545532399
0.0762386266733455
0.077325010898175
0.0789792404836084
0.0792820757463838
0.0775516333681416
0.0783898240380515
0.0810325541875773
0.0792908324905395
0.078650174632534
0.0770111222423283
0.0782102706561383
0.0790156810524242
0.078292285198093
0.0772766164291891
0.0779592669281393
0.0778210196287185
0.0787449700600197
0.0787576652147116
0.0789513316544903
0.0794372023850795
0.0800579905175372
0.0792798421202649
0.0807836071200937
0.0795371607501176
0.0829562186820411
0.0794266080396621
0.0814373866356578
0.0805999486703247
0.0808708624281494
0.0778768051050843
0.0795304317656324
0.0812393545028776
0.0799756747445947
0.0805930614392222
0.0827399866169458
0.0805782228227252
0.08081445917133
0.0815902428876824
0.0791594328030339
0.0781555387734172
0.0819569958555777
0.0818622008484478
0.0833475991822497
0.083770560198087
0.0835414699462498
0.0803992989281784
0.0828559489476228
0.0820957835932949
0.0825918938807931
0.083725616030083
0.0839770612515142
0.0819296248743321
0.0814577889830275
0.0839513037330149
0.0801615879895724
0.0811516965757554
0.0863108603164136
0.0820255381601786
0.0851356488578389
0.0859727826576445
0.0827919031488865
0.0811925369259186
0.0823008248446959
0.0817846203584278
0.080995595429931
0.0815726146414513
0.0863057830613113
0.0828570539095438
0.0823822285377054
0.0827476969821501
0.0819606445974207
0.0813166825413186
0.0815218837601352
0.0815493384747847
0.084144080276665
0.0832104520568786
0.0835001964614721
0.0814211936517267
0.0830046214238709
0.0797605586801929
0.0806827916127583
0.0792790792603783
0.0807411664883163
0.0816555391816859
0.0815459660903878
0.0802608255647971
0.0796324661753715
0.0772404529556166
0.0804918303699667
0.0777221213360598
0.0799407109535013
0.0806705273807475
0.0811261840002263
0.0782519688771899
0.0793980197054824
0.0815607568729172
0.0795825343946562
0.0772969485908959
0.0790449950986391
0.0798422607352294
0.0799225696177128
0.077212690831518
0.0787018456628794
0.0782789528041692
0.0798153709732678
0.0793164638674656
0.0793629334171164
0.0800375388280369
0.0792197763034343
0.0784471208631267
0.0791399758711399
0.0779929430249972
0.0770737948831996
0.0759992025136149
0.0766768927620887
0.0760738393788281
0.0806033458463026
0.0790636531401951
0.0773969139628778
0.0756348336521542
0.0787280126355054
0.0770333627549859
0.0754055362183478
0.0727846285822837
0.0775430916261304
0.0764501534226702
0.0779464207343737
0.0760733604650336
0.077781832796893
0.0773776947199847
0.0778473443564465
0.0761337815279095
0.0745402307592489
0.0728885344764021
0.0772488210122628
0.0762519397634449
0.076208692089118
0.076227199719955
0.0767732051672131
0.0755770435211387
0.0761614364227489
0.0732098396913552
0.0768366341352816
0.0780628234867414
0.0760838228027837
0.0736975042973965
0.0767072530586439
0.0743005637013264
0.0752705137421517
0.073765804930871
0.0771948605533026
0.0766060043866347
0.071486905061318
0.0717114091951396
0.0779781346981491
0.0743608628797301
0.074308400720059
0.0745085003312744
0.0763412033939228
0.0750689663326882
0.0739912678869896
0.0743602952435635
0.0755023791137188
0.0737244431360935
0.0737200387671665
0.0721889279833079
0.0750465916523944
0.0729839842947932
0.0722132281750004
0.0712604199601925
0.071607606611394
0.0742458142001678
0.0738833525132069
0.0706502058382286
0.0758696955548477
0.0710097337662663
0.0699236859169122
0.0700724863056745
0.0709413026199242
0.073863494820486
0.0752972053684636
0.0697479450825585
0.0720757682661147
0.0730216470639718
0.0709870036366728
0.0688147823806118
0.0693804617633614
0.0700810124358227
0.0684305553687252
0.0699574249773799
0.0715627297091447
0.069074904113743
0.0706090276336214
0.0708544037247098
0.0679059122448368
0.0656260457118861
0.0684704670125066
0.0675340819881745
0.0663017889542243
0.06744166405796
0.0681184151139547
0.0653610997659317
0.0667765911203085
0.0650140008994529
0.0667175112690125
0.0682720030603525
0.0698166411842107
0.065783040025053
0.0679736512706717
0.0625941031375716
0.0641423347545306
0.0628537161813599
0.0661680202157394
0.0643426242282007
0.0688293893610184
0.0631941027259019
0.0626938747050926
0.0610058633546428
0.0636032154256172
0.0617972403611693
0.0629916862154653
0.0628670386881342
0.0644094771194427
0.0609697917198536
0.0636039782163703
0.0625195402773767
0.0632976214300351
0.0596804350989625
0.0617596619766287
0.0603050232151494
0.0619698956685733
0.0581620914400294
0.0625491195050192
0.0607645823078822
0.0598800168640933
0.0615322725285938
0.0624957749294263
0.061365621605974
0.0621996256044861
0.0585156275466413
0.0588967833483012
0.0583728329343405
0.0602769797633482
0.0596857475274355
0.0595270123416827
0.0597952035666793
0.0593139644930354
0.059778023643151
0.0597919448370936
0.0587836949704945
0.0593419758376166
0.0590944274695128
0.0589861070798777
0.0593596760959378
0.0589633979548639
0.058723383341739
0.0610350244967884
0.0589612349184149
0.0593316335038094
0.0568326406436792
0.0581120820990251
0.0598638703505875
0.0567208567601221
0.0565427137363957
0.0584538643762187
0.058587862330007
0.0564030927830457
0.0585013415410911
0.0593831892658154
0.053899465256697
0.058130780291474
0.057192549418835
0.0555586326082898
0.0569079513365934
0.0568484284105068
0.0570583299110262
0.0558057066528033
0.0545909987571238
0.056482982050239
0.0564556378136936
0.0545194588478773
0.0537143297924648
0.0547110690521643
0.0561885249788966
0.0518730916381293
0.0581140213947792
0.0570714479016289
0.0570497318679344
0.0549371908829973
0.0536973246619372
0.0571013773160611
0.0518197791716682
0.0543683982281973
0.052666315489102
0.0543235126312125
0.0523162534965903
0.054519209365097
0.0561064012928113
0.0545587628717764
0.0530586176994833
0.0545005586777453
0.0554093538083075
0.0573627325914055
0.0549220009517669
0.0530741156075806
0.0497738326681698
0.0554307295445114
0.0531530910466899
0.0519894533914846
0.0548458348025582
0.0562530732427895
0.0514309387832081
0.0599117027759079
0.0494514413764665
0.0565346291066468
0.050743553901892
0.0561757195694957
0.0513680716352472
0.0562585089643344
0.0510512815249089
0.0552703073505653
0.0520591297266433
0.0545464115096279
0.0551998431635257
0.0548333209004854
0.0511452020081673
0.0553593809391481
0.0554970750870981
0.053598985374661
0.052764753646367
0.0548915773283335
0.0512613937437424
0.0520926106120326
0.0513259110538636
0.0552004475768042
0.0494421791932163
0.0587938300762078
0.0532112893884956
0.0546085730872051
0.0529337228883299
0.0535056883841508
0.0477367284336354
0.0587879262232293
0.0521928834336422
0.0504422659483202
0.0562204363325831
0.0536548473295595
0.0525141535669909
0.0538443489680772
0.0550962439118076
0.0528156283302425
0.0532318883765642
0.0527385455493434
0.0520402536599051
0.0544963592748567
0.0532161733687737
0.0547136856343338
0.0531563242855165
0.0529039392049759
0.0529809238068799
0.0533047623323661
0.0533035084083323
0.0530263535120752
0.0492334204929179
0.0606619300113421
0.0504791429431732
0.0561457783748656
0.0523321958683818
0.054081292256088
0.0503692390956515
0.0539268274791523
0.0505525994539094
0.0529837408839895
0.0508637304921376
0.0550172059714545
0.0507177613401785
0.0524907488220254
0.0554418308773068
0.0554958776943759
0.0514924855285258
0.05297127306742
0.0519507608142088
0.0535066333715327
0.0559026506682085
0.0544194203091266
0.052472850003036
0.0537812909905827
0.0560365847166572
0.0528304166160968
0.0551388859491858
0.0486434025278938
0.0659709438730882
0.0498375159241843
0.05576333116465
0.0553326367108249
0.0525308317702517
0.0542515452040329
0.055255476808262
0.0538808695199128
0.0556096597451333
0.0558726767762058
0.0549069316163409
0.0536026583055641
0.0549430430055088
0.0538229668364868
0.0522386865716602
0.0604547082927265
0.0585661746819392
0.0550248190869705
0.0586503526813617
0.0498533789268682
0.0613082428493768
0.0577042284532474
0.0513093860267106
0.0588119983455596
0.0537400754268771
0.0579275024936135
0.0566953519063916
0.0548818881475677
0.0529273876054826
0.0577002186939109
0.0553885917178157
0.0591555142708045
0.055140550481586
0.0579292268960744
0.0587937655321454
0.0572874462056843
0.0610686811158173
0.0613795605066262
0.0566287197171602
0.0610262530002145
0.0556056199410657
0.0582676172723838
0.0566033710844975
0.0611979665418631
0.0581638335543826
0.0653617682897403
0.0596124229238045
0.0595907830202275
0.061077426740621
0.0569856679467331
0.0578665895247658
0.0637866454515572
0.0574191233019003
0.0648978695730034
0.0535798163873264
0.0705439677769343
0.061237124593435
0.0661123435412532
0.0630386011526746
0.0616315655574156
0.0641044116236755
0.0619056586079528
0.0628526965113396
0.0609549950870611
0.069272237814459
0.0553971147227107
0.0675183332669602
0.0619189211997426
0.0681189583719185
0.0628347050105377
0.067378322268907
0.0655160225129169
0.0695491787612815
0.0615619305202999
0.0699392866312336
0.060343779391829
0.0661562364100176
0.0740484860090851
0.0657584928472957
0.0739165437200956
0.063965437453192
0.0728185420005008
0.0763300826006427
0.0674737826716489
0.0717860283394747
0.0688546347543039
0.0741135880425109
0.066440495130119
0.0760146630759657
0.0775257271541371
0.0661203130112448
0.0710858803139178
0.0701292386191261
0.0745666338914721
0.0790210585443391
0.0704438201526315
0.0757187154114353
0.0773098634837087
0.0748122275417548
0.0677012104757279
0.0914589011485554
0.0683793738080425
0.0928303353536693
0.0796752795401139
0.0853660585338045
0.0843301306933353
0.0841579316645474
0.0814996320718208
0.0898423049362752
0.0860086355011678
0.087703707615108
0.0822705943735799
0.0971066273218134
0.0932795433793668
0.0888270687562353
0.0950820638932762
0.0836193064267057
0.0896692716185674
0.105626503348578
0.101532429365209
0.103104884608336
0.0996597112838589
0.102129924787715
0.10625380565993
0.10191850705546
0.106408576794272
0.106137166490088
0.108819626679282
0.109326332152053
0.111142252061774
0.114513660219931
0.113534066855072
0.117839187505361
0.112003443460083
0.121608810693504
0.12486521109211
0.125607526167092
0.124135637926327
0.122993415801493
0.135652536880438
0.125870944280708
0.130319153406161
0.127333834668984
0.132667724230777
0.132330866346444
0.133130594823451
0.132495226960237
0.142060560185838
0.147702374366776
0.133163609210022
0.153189641525576
0.149483969400421
0.146613589812717
0.140771179584202
0.169202366311498
0.182517477395409
0.159087803967741
0.182631608149705
0.144524886509671
0.202304014955575
0.190269597341442
0.189594005826442
0.192371050369138
0.20504980976219
0.202511767215193
0.213293688742204
0.217365412954992
0.225659119365527
0.23101926960554
0.240031209927903
0.223024396879581
0.273357714166805
0.267442328926618
0.278623580733761
0.268766080825194
0.284767062304154
0.287978723575401
0.292654356860337
0.295529586636751
0.313955854114561
0.291754325172212
0.345568278765848
0.336012537560858
0.341393486212099
0.349236940975044
0.358893385992285
0.357838628291053
0.362162357488233
0.400389457691002
0.375755889222778
0.396126776449887
0.397184912628306
0.41519023429773
0.407454590333498
0.423745620357313
0.435433052100215
0.432832790699523
0.439466555062194
0.440223346325781
0.446798207618581
0.451237751414096
0.461681057664137
0.4549517054079
0.466907866615418
0.490104530345693
0.514239298213445
0.500836942579099
0.466757746157045
0.479492475311239
0.477796566841902
0.486929905029553
0.483031987811757
0.482176976511403
0.500685349778959
0.487013246524064
0.486988954357728
0.484723379057036
0.48923117176587
0.495499028475528
0.492648426730819
0.490403616946276
0.489011872663815
0.490463848268455
0.480488652663919
0.531799071593215
0.48891103487528
0.489544240281046
0.480093281842291
0.488598308822128
0.484583198396891
0.488277992182892
0.487029096851104
0.499153548772186
0.493253750782909
0.479537354500329
0.474494440369726
0.484261554976361
0.4971894356766
0.470949893579757
0.470043351845536
0.459178878393961
0.460282183311268
0.457769846388469
0.443055069944715
0.477791570583843
0.450125424724412
0.436656760143538
0.440607521330281
0.432854386841442
0.434525778033375
0.44047080230814
0.441611486109824
0.435787180589933
0.427893578757192
0.423029074448088
0.423913986358384
0.425093639054973
0.432709880541248
0.427149763129853
0.422946741255438
0.420305983444052
0.426568991533854
0.422986237228402
0.418276097479338
0.420173442432414
0.421923461029914
0.420182303431958
0.414566831745473
0.418331701618509
0.410949860444325
0.410435626154199
0.419789970466199
0.408819257773959
0.417495260963146
0.412631815357279
0.412665706861445
0.410017987668538
0.407904499761454
0.409085598562643
0.411577668135225
0.403515203978816
0.410266967880855
0.402617987381744
0.402580276093532
0.397433965663201
0.394234716620483
0.388128126565217
0.39946002121601
0.411466141224317
0.38707099571969
0.39026017775454
0.385492087142789
0.384411822630513
0.373472658194115
0.386861098257914
0.395094514174103
0.376376637385109
0.374070785858181
0.3634896655914
0.367231535979225
0.366713033026741
0.359624038578779
0.354669650753635
0.347589289148866
0.335937478776118
0.369457017369786
0.34138031638756
0.378741971265086
0.343348923501815
0.337123415838539
0.335703891557276
0.355394439386806
0.339965762964767
0.332573403436274
0.333210935174651
0.326464168330186
0.334040542238112
0.322269312105367
0.320771457181109
0.317583209245038
0.324025169807137
0.326923271416198
0.319079652494375
0.306020482868901
0.333227191890822
0.316626720430463
0.306930907143771
0.318218177854839
0.316577540413222
0.298891226497865
0.286769842419911
0.291067429653975
0.281497694131909
0.295571930260271
0.294427513770652
0.287326125531645
0.286646072278426
0.27515921921516
0.279806735796658
0.27639106610538
0.280509200631907
0.269193200680416
0.275223860785957
0.270591365343423
0.260764855428294
0.272982006643585
0.253221739621484
0.279158179230555
0.2604748212438
0.25929243531517
0.2574347059502
0.276838887605766
0.255180423216248
0.255384843628593
0.252034207628538
0.249581752378495
0.251198786774328
0.252688839370981
0.244119122719395
0.251714575674506
0.237930732415361
0.251161592426486
0.255742327530409
0.254933292919672
0.247376086436548
0.242207799102078
0.241173083050242
0.242312436272188
0.23992659078263
0.242480734478898
0.229464783490051
0.253776163339345
0.237128461190807
0.257002434254072
0.255032099053141
0.249542325425859
0.251482871089602
0.255693873596363
0.248881084105766
0.273244454154084
0.269353090065235
0.277938670337173
0.264517079860844
0.274655536814353
0.278444909603404
0.286014053699879
0.283217384391713
0.291203421856618
0.297639359979853
0.299465663082116
0.304742474041023
0.31497336126934
0.317957412647785
0.325796984583941
0.326175920328879
0.351587961362641
0.342365783077647
0.349846994614331
0.363659062743747
0.367945980430218
0.386407012008206
0.379553490600142
0.389617444837586
0.394665656471569
0.398198110987411
0.409055694823011
0.405471770814984
0.420223536682639
0.42355830629531
0.425782488870362
0.431299175947735
0.432429292542979
0.43840814112545
0.43910814392516
0.456070482317675
0.436156873223609
0.470766131890808
0.450999078317668
0.464917453347994
0.464704553366863
0.467850326753561
0.470414896684465
0.474375465105036
0.470340327402109
0.468134265440177
0.486295188519489
0.48512088593811
0.486139731278936
0.48789680383796
0.491303886218429
0.492074913020602
0.495979642088043
0.497382498603764
0.499952725627977
0.500579288469948
0.506814652578115
0.494995116189272
0.524173696253113
0.527423745330951
0.517063309162874
0.529248036051327
0.527121608557827
0.531151463176993
0.532762818111313
0.542861185562649
0.551904637103797
0.555357976184744
0.555870586940825
0.550073860898637
0.554911179912288
0.562076317949613
0.569568001352972
0.578842849492892
0.56799480321222
0.576944528713755
0.57070782424135
0.593243937685573
0.575879504316007
0.589965497396035
0.590774043925709
0.597921716497563
0.602558180102273
0.597235420897685
0.598458744084871
0.592168052052977
0.603406873577354
0.598311416050824
0.599674263470532
0.602575232128819
0.604239174378859
0.601267103047291
0.607609595593434
0.600771916391463
0.594506533363694
0.593769949951045
0.601000617056496
0.5948776677298
0.594354552213269
0.612953761639735
0.589166697271517
0.595957676821882
0.596676305929688
0.599710722907504
0.599529359081983
0.592483367335327
0.594206930163865
0.5978112939119
0.592341599633319
0.605753122810209
0.590905276741923
0.611823094745153
0.610169600903227
0.607020289080534
0.613104189542882
0.610180098336682
0.616125996233861
0.625196269198805
0.626174085376811
0.623386146378373
0.629819066201354
0.632609439325348
0.632591488858079
0.630322424776595
0.633905646148183
0.632641499259635
0.638035636560385
0.64143319940313
0.621600900528571
0.627968667745252
0.629994010054087
0.626006313000547
0.626092152619022
0.610881806434476
0.613597771250116
0.602987347107027
0.597961520210119
0.596702883673397
0.596151690730671
0.591495583305674
0.593571118759291
0.569125080065327
0.572749279406716
0.571630274004143
0.569423578700805
0.557400791652515
0.556441425951901
0.553391816090255
0.555391245104533
0.552424496614223
0.544281112975768
0.545809220040526
0.547575905029014
0.547188212599324
0.548694947580649
0.539015843177619
0.543639353566394
0.540105122407828
0.541632639785141
0.539286963327631
0.538903967429667
0.544068091072214
0.54500052013593
0.540938813539785
0.539413921141333
0.536864616780498
0.549092494127622
0.536375662968984
0.534258892813311
0.534423972951475
0.541595212569521
0.541935516987509
0.534301874138653
0.534966585853574
0.534828513440693
0.535610041702436
0.534539281449029
0.535922598519655
0.53654663469085
0.532412144214649
0.537208409007994
0.537876442871942
0.526985646898403
0.533409656690299
0.534189053716623
0.533464084109185
0.52970238586783
0.530497663957426
0.528437006942544
0.532381630469911
0.539598498696238
0.529984891197696
0.534687548111272
0.537713908056997
0.533055129717773
0.536118237909051
0.528700504711557
0.532341088895235
0.527322147384873
0.527961109780311
0.526014276907317
0.522147875468028
0.515800717096722
0.517555857562759
0.511698696482762
0.508359298117189
0.507119551219631
0.500686471931505
0.502563021090039
0.495319011781312
0.486091467209411
0.486704803692542
0.480898471159212
0.477732381924915
0.478529002397375
0.468762365627223
0.468687766253992
0.461523793298965
0.462957222116681
0.463979570845782
0.462415490936972
0.459258313795955
0.456373514584783
0.457849818573556
0.459262498760641
0.459565713240669
0.45879925840886
0.45821765265696
0.458943978611216
0.457385344212666
0.459775034884125
0.461630191911419
0.464516047788019
0.465761263933672
0.464246225758379
0.468127671934254
0.471274589562799
0.469090382806109
0.474827036493166
0.47393581422839
0.475117120153607
0.477980337402394
0.482040619936817
0.48289108374257
0.484256139415497
0.483190828348397
0.487161411109745
0.492718682502595
0.49131549877287
0.489644909878182
0.493359033172541
0.494042355038988
0.491107782672456
0.491135769421496
0.485435717757826
0.487548451259958
0.488063012383848
0.483206041113832
0.484241249802238
0.479191544353825
0.478582935137804
0.480009425746929
0.477398660274055
0.474688503799759
0.476766366447749
0.47540710473542
0.476336832528886
0.471399215371925
0.47077672767149
0.464258147462524
0.462460551569308
0.464087385924829
0.461593354905836
0.46145275326358
0.460638898908509
0.456205068759295
0.450688919113028
0.452316697710327
0.447082860024646
0.450720288702559
0.449466559130131
0.446589453869831
0.448544171534213
0.445795653719727
0.446938845910111
0.441849205998885
0.442113303257996
0.440431222488487
0.440087784366793
0.434398442431562
0.434862591282174
0.430649992538052
0.430519155121665
0.428865552066148
0.424259167207502
0.421229581397494
0.420038401786858
0.416532784492302
0.410518501447858
0.408325768385483
0.404218189736285
0.402565499489598
0.405332559800584
0.399501897631544
0.396372782657528
0.395230620047105
0.392554515989499
0.394592760573925
0.392404888521956
0.388893469906907
0.388462523233812
0.39389563604166
0.39083807164527
0.38448447663081
0.385036253009591
0.38438217879672
0.380305869918409
0.375008673774275
0.371139540916247
0.368078110535793
0.363084933857399
0.357824377804028
0.354688862258153
0.348051307705886
0.347716474329171
0.344769455298638
0.338415969446415
0.342741323315443
0.345116427784624
0.343657775041686
0.348749652893531
0.353317105692336
0.362425569881424
0.370949325540659
0.382547159285816
0.392461417319005
0.407856518849925
0.42520968150152
0.441514165114909
0.453374427238998
0.471942315909316
0.491955924105921
0.506901497744649
0.52353095096852
0.541565131826329
0.559723422135985
0.574484816978553
0.58872621755652
0.605473655147886
0.627616143977409
0.640046885901601
0.659026426881915
0.672142022702265
0.686450742146808
0.698954222820798
0.710166477473327
0.719786982663389
0.729346393310535
0.748120496999798
0.753368829667821
0.762646670160516
0.763219774937793
0.769060823234987
0.779444682485136
0.786118546358734
0.790470569505037
0.786695233774606
0.79855636119796
0.798586963951283
0.798724999475802
0.793685501663533
0.801580418287779
0.807957038211446
0.801729847876363
0.797775768158554
0.795980370412387
0.804463848594766
0.815416158870539
0.813239466593768
0.813436968744487
0.825803938916286
0.823115586558087
0.830264211028217
0.832452561741726
0.842994694428641
0.848718149071312
0.853965951765979
0.868451772124958
0.86757564224602
0.881095282940133
0.893850093948852
0.906323874639429
0.92237635253929
0.929907638042759
0.937935161889679
0.954813206351294
0.972164670432448
0.981337062763704
0.990809302740728
1.00060319295843
1.01580148373636
1.00049719728132
1.01504748670129
1.0273444118539
1.02444332571366
1.01712355322398
1.02091534196814
0.998781342579557
1.0146995443479
1.00624928456873
0.99743031183313
0.984948354068004
0.992384864002428
0.998060042306914
1.00413576473194
1.01684895981607
1.02646215418528
1.03933318789676
1.04965317415982
1.06404728151773
1.08245708362318
1.09239933236937
1.11699015612727
1.12180696579918
1.14104481093108
1.15586788178098
1.16558135868325
1.17997326023
1.20218470995765
1.2316934849431
1.2292613098872
1.24343032737799
1.27367453075477
1.30746042060991
1.30575714331498
1.28517675555298
1.34945303880892
1.3829876711782
1.41764044634511
1.40507558149906
1.4476044071474
1.42556266399614
1.42552305780192
1.50623576001392
1.61214622958685
1.584301715859
1.58941235968148
1.54639182672162
1.57206166204543
1.62043264037808
1.68410664084292
1.64400900516845
1.70316824318103
1.64905211404248
1.67822076972406
1.66185876446432
1.69358813202496
1.63063949109734
1.73759493232027
1.70042116639508
1.63215503771229
1.65173496681783
1.65101657999561
1.66648102093107
1.70081158815753
1.638646044236
1.68951338185646
1.65874745406269
1.66457850423822
1.74360163888691
1.7174098769776
1.61979595010202
1.71945122056325
1.68010734354763
1.74342686293778
1.70731422569264
1.82567526487051
1.78934762171013
1.77896346480161
1.78306727026628
1.82707982616111
1.83084223838096
1.8882574133746
1.86383424154822
2.0335581474186
1.85430801583207
1.9846764633674
1.98455622175185
1.98940343928103
1.94718524764324
1.92844096158092
1.96094887627756
1.98805751598316
1.81182065686055
1.99572900215162
1.9310076975412
2.1838944366767
1.93439271911756
2.19165434958131
1.98755815433868
1.87390122605976
1.84457111126997
1.99132126593942
2.00162508681185
2.05890216093112
1.93924483930567
1.90318345833474
1.85186458006064
1.8500848719494
1.97696475596502
2.04295969049423
1.85258421229743
2.15955658845768
1.86596990896115
1.84643723583341
1.82731876617848
1.78797909420111
1.63653457903939
1.66458353471663
1.55983068067626
1.59345102946136
1.43595074709635
1.44262444037067
1.38762850552786
1.3396308020775
1.32884333472927
1.33871848400245
1.3088623632067
1.33139408394153
1.26803149863335
1.30367032923532
1.26399301089632
1.25895679283503
1.24950819619914
1.21424023298242
1.20851202535528
1.24937075220659
1.18902441726636
1.21455615551592
1.13924867699988
1.1583921153144
1.08459874116562
1.09302734164405
1.03008100114273
1.0162542844648
1.01957689575561
0.971245159502004
0.943144138457327
0.909210473536964
0.872183168765221
0.829058358247504
0.789268671131907
0.752679198364159
0.718395870667655
0.68410262172217
0.651336154970856
0.622814177194163
0.581957547361947
0.562510315674985
0.540588391337445
0.51413457829292
0.499192796528802
0.47876248345759
0.465497027953301
0.453318441021333
0.441857420255462
0.433215682678259
0.41355540621298
0.412493730470552
0.407017797101786
0.402375958767374
0.39482294842057
0.393467650146414
0.390366593664256
0.389377792790488
0.395901976386565
0.391379549614108
0.389786407956272
0.399666173229832
0.393706498958385
0.402607237787292
0.400439040335153
0.408724038586315
0.405808792262252
0.403839452833381
0.404185139677526
0.40514588309667
0.405076168833825
0.400648354808301
0.390074499571426
0.388873238493339
0.394664437550961
0.388940961379221
0.38493412342175
0.383418396633315
0.375960983918257
0.371282541931873
0.376955522065956
0.372544750517604
0.367034408767249
0.374185046516777
0.37353962116423
0.380588994557153
0.384235707313574
0.382208228065009
0.385424793483676
0.394053186154845
0.38918654357805
0.397670229608322
0.399784202776838
0.399938098860486
0.400676077020068
0.412919921148469
0.410997621039279
0.409664443504072
0.414982229651352
0.418888980933938
0.419042423429423
0.418418971195354
0.416260216825673
0.416855211971225
0.426394555214696
0.42632204700739
0.428357625079121
0.436201548682557
0.426170984592703
0.440281426271792
0.43840674163952
0.449258367610342
0.452654477437714
0.459393082322809
0.481319976006886
0.481111670022345
0.500129770187362
0.52463512879741
0.524730798654065
0.54021621627217
0.556782645036097
0.568012284181214
0.566616078867312
0.582042854925174
0.599247417486195
0.586772216553554
0.578536463750496
0.582067726080413
0.573585902972321
0.566681950853993
0.552649912947568
0.549694360494657
0.542124296624662
0.534439480108196
0.523919405580667
0.533446605450461
0.507277004786343
0.513644744257028
0.509503598096392
0.524227899868136
0.520155280619839
0.52688313009893
0.514091062603634
0.532880403901954
0.529090115480244
0.524927975564357
0.506074781292872
0.519010523320691
0.494735260500289
0.494256520342688
0.484110233113279
0.474169909757162
0.484799160139694
0.471957850169075
0.468712274492937
0.46671235114711
0.44648202059626
0.446861079619367
0.460292517789257
0.457786025711512
0.450274088807246
0.447218751918101
0.442551529071277
0.441102827905062
0.441011255238828
0.444372611319785
0.443475216869212
0.43827987926331
0.430914930568662
0.429732592788868
0.430777634459463
0.421756032383182
0.413547378141583
0.414306489174415
0.420827039731432
0.414170460418084
0.420391195933398
0.423613840067873
0.411805146408678
0.417808263387766
0.395792282927073
0.398020556738904
0.400170861731378
0.406669496302422
0.405157454126127
0.395292971581807
0.379792471869572
0.391869940353088
0.38700829263282
0.401775431228364
0.387587480845441
0.399944534831164
0.384021380079191
0.397346382046983
0.38608887861019
0.384977409563543
0.396044374358981
0.394484843686194
0.382591211720067
0.398089564920015
0.382074170191961
0.404188497350347
0.412715643298421
0.405100492218084
0.401374520429753
0.416264047936127
0.410201819495274
0.411993189750529
0.409180125845724
0.420237810682495
0.415747875594958
0.42311174355236
0.419020186481044
0.461511247876717
0.433835974559275
0.423093264558703
0.433323501792906
0.445348797704166
0.440075941100004
0.45437282852363
0.44684620695068
0.457643115528035
0.468065181404957
0.487984298195007
0.483501869108608
0.51031663638827
0.507165264523932
0.552046784573361
0.535213664115728
0.553609956100531
0.569315581413628
0.607654418220802
0.589551810788969
0.612838453735538
0.63119859712885
0.667929460896082
0.666591383830426
0.700955628993765
0.723851165444845
0.728137145652236
0.70402755519771
0.721605625713819
0.693668721626051
0.722959642598847
0.701265286195299
0.730420715983957
0.715226686208883
0.714450053686119
0.753300452958718
0.724098629438587
0.690656682622403
0.70102082841445
0.65089344523895
0.717792269132731
0.733938438970516
0.745667297096392
0.695139149224643
0.699265081943104
0.670301627958658
0.666229335426451
0.677464166971074
0.672270644789322
0.616329882826874
0.646584131822848
0.657334398597148
0.688361886604155
0.634350864231786
0.599879460094669
0.605080552477262
0.592674155402279
0.626138932549406
0.664070325607674
0.618338602221988
0.628412734841208
0.611421872568571
0.606477791979457
0.578575679242922
0.609756990923946
0.598511090559044
0.631167198504072
0.563022885875818
0.631042824114641
0.593517435375887
0.667966436234844
0.59278450362066
0.637880852251819
0.60704775210437
0.694970465691813
0.618875542940051
0.691745161983053
0.614539738654329
0.672782357410125
0.621900579829485
0.653539271422642
0.635994811842145
0.640274380861722
0.62427398529627
0.677897892454511
0.625240714835378
0.657088703030238
0.656676320963357
0.715974103712831
0.678680706528366
0.671118122052659
0.69130745157425
0.669395731350116
0.698591011003154
0.736572364093273
0.682784952880789
0.738238144297737
0.623632398719508
0.653216075999966
0.696198568861028
0.822858777567576
0.774016166796123
0.801038110531085
0.692184924079932
0.74096604007304
0.743836302758301
0.865420680446075
0.83451387912981
0.845375261492712
0.875095000620387
0.968664275674746
0.86197251176975
0.927869937997015
0.775295473130928
1.00318343152154
0.736034191525793
1.08526855880574
0.729728108658366
1.03237629782123
0.782640477500706
0.894195714704817
0.840861681756982
0.897096246413565
0.877744606415845
1.10180192991066
0.78164035605452
0.731008114736179
0.694785378975032
0.770164819351033
0.801652766859602
0.800884915491824
0.799943878105924
1.02702839077403
0.726849315381522
0.985782418882814
0.718084290210735
0.74440541575355
0.76081393360805
1.01610896195987
0.713782674581148
0.850156875067859
0.850046149060201
0.797668916650541
0.567193530082358
1.13130190258471
0.703501600344549
0.879655490180832
0.911883606502985
1.47374213681253
0.727336757125829
5
0.779880619664511
0.965461688917023
0.594093440708408
5
0.91284057114169
0.595005025770492
1.05814608575793
1.28259422676093
0.899464326329134
1.14246239152551
0.863756147442898
2.6076907873571
0.907351213591057
1.25713625031066
0.679950244501487
0.83169503738289
0.643247016570861
1.15849636890779
1.0950705944715
5
0.64672499947458
5
