3596
4000.36533379555
650.420452594757
1
2
2
0.0373872790346894
0.0515692882705512
0.0405739152060959
0.0417986735644659
0.0344685833139369
0.0578808077132211
0.0387645351580836
0.0501265928370796
0.0406137944513166
0.0474058432257969
0.0366152222131615
0.0606446149285458
0.0396110338812612
0.0520477827652704
0.0369053099770881
0.0482719118717818
0.0334211986139589
0.0516435357077051
0.0339075877831063
0.0476899897653978
0.0410681099753418
0.0440265102835147
0.0411334686473638
0.050319876800741
0.0381166383776808
0.0554779056914104
0.0323918373208847
0.0500631785503017
0.0493055224890319
0.0503982659373385
0.036160014140548
0.051818514362981
0.0337574322416856
0.0482958182955363
0.032235299742309
0.0548533561290669
0.0402588317648081
0.0445942630816198
0.0316434293690933
0.0521456819958634
0.0381983221944101
0.0521804381278893
0.0462535265606054
0.0547296870173959
0.0389032123832661
0.0520264334254951
0.0382464963655389
0.0453411106849081
0.0414523079473835
0.0491690374944671
0.0393467351388044
0.0432644237373599
0.0399954351703001
0.0513435239061145
0.0405005338703494
0.0534245529530022
0.0391188496850122
0.0468820354340702
0.0424707546234578
0.0436224444414782
0.0453828066590826
0.0559047613172548
0.0323482605894772
0.0367651274726302
0.024493018422658
0.049138664750268
0.0414172253725748
0.0427397063742796
0.0350930917054967
0.0456592383017793
0.0279045495012665
0.0602825921794828
0.0407796808516136
0.0449274080718077
0.043092443296414
0.053711196375049
0.0350834939407812
0.0427081136549347
0.0292556987641031
0.048650556773587
0.0452977169685834
0.0485853704050702
0.0400128145143385
0.0411325286812397
0.0281988228743964
0.0631838783067813
0.0224469708514839
0.0499907166340984
0.0294081147379749
0.0497024295590445
0.0323542918090924
0.0421351769773213
0.0297096219715996
0.0458942713352775
0.0294833127010683
0.0506381653224408
0.0253770400536296
0.0512724740943806
0.0273169089463162
0.0604043260261502
0.0200599381717443
0.0578304862150692
0.0443782115775285
0.0261845239889895
0.0605664943712266
0.0269339087411483
0.0290186751517032
0.0505940728090392
0.0404722368440824
0.0452104454967982
0.0277230427306539
0.0519784107062255
0.0330953881307501
0.046422559468712
0.0210178931055187
0.0557639642002163
0.0289410904841727
0.0536561085295342
0.038316175095079
0.0531462031367174
-0.00227737460665878
0.0723339529676679
0.0436025518187113
0.039397885078687
0.0273641720262967
0.0400281255441237
0.00663134252536203
0.0682107373984551
0.0377346840103982
0.0427123695950504
0.0201101012078018
0.0506356490494949
0.0248705542583964
0.0436291945013364
0.0552587154528394
0.0399433215681538
0.0278381727950122
0.034037956926226
0.0433854419736243
0.0552503389575313
0.0344901854801295
0.0430267581667634
0.01440176585158
0.0450453507941003
0.0450011392941668
0.0456842808129712
0.0188866294637712
0.055955359135112
0.0259748892329072
0.0498886604222286
0.0326957279121398
0.0316598532508654
0.0392011179266537
0.0509256828107019
-0.021013700293599
0.0830597280114521
0.0292097812801193
0.0595401721109188
0.0571436493147412
0.0372874108752757
0.0361683105885324
0.0381190429817977
0.044858388548588
0.0252000626006959
0.0338095015551219
0.0268265459721366
0.0395854699967436
0.0397946342522346
0.0277262155932283
0.0380837642431333
0.0540816221023518
0.0377973559767069
0.0179541562771189
0.0916654558386999
0.0295309894715449
0.036083832173311
0.0348129565324935
0.0443589013365508
0.0176175745017669
0.054260240111524
0.0369650367756313
0.0394064413989472
0.0361982044622298
0.03098090438455
0.0272803835490359
0.0488754584454462
0.0394291009415656
0.041670168505537
0.027434495391646
0.0277069138927032
0.0235378473071873
0.0713397869645073
0.0379248566661187
0.0464153601818814
0.0371774742701383
0.0148977296506115
0.0535917497910842
0.0441520496403538
0.0416500020386231
0.0505362306397669
0.0313453198378592
0.042054946114867
0.0263054829157062
0.0496682608056093
0.014058242926255
0.0194307040915765
0.0585921502549376
0.0479897410226906
0.0345724813827865
0.0342326236256114
0.032794724940967
0.0185675279385001
0.0715914939221533
0.0423461361704706
0.0440311698999177
0.035364464215505
0.0311647776535659
0.0511160161400939
0.0432439057347711
0.0420351550739759
0.0309787404947141
0.0419122382697989
0.0334128685063071
0.036259276396284
0.0382455240918956
0.0466600652439471
0.0417762943287659
0.0374929125632069
0.0353107764605618
0.044908547054623
0.0458497775949732
0.0415572679885669
0.0354743176075433
0.0477002214223137
0.0189156633241269
0.0506099832541307
0.0385636561123448
0.0424504502713727
0.0353826032702235
0.0488071622735366
0.0286490105263859
0.0393412768375975
0.0348296225831953
0.0432637856141129
0.0204389247538416
0.0352925395299731
0.0487404896190743
0.0408858610093873
0.0410562730640427
0.0245766021717903
0.0556225269983567
0.0401606132023888
0.0414969879889415
0.0388413754081298
0.0448013881723472
0.0293771618016303
0.0297696053138487
0.0433781088514874
0.0367225811218886
0.0385576682844371
0.0504796414940507
0.0408155786338399
0.0500138387997288
0.0268205229172374
0.0242206656453036
0.0874412278950202
0.0186844684827462
0.0417910125756171
0.0632037385579173
0.0414409376780334
0.0535526480672903
0.028604890325091
0.00684781428496454
0.088057549823967
0.0589050380431901
0.0449721614075431
0.0370783298403123
0.0569718463793684
0.0277162868623964
0.053953357800577
0.0189738023295092
0.0513270222673638
0.0320718220642856
0.0726458397074121
0.0521648144862788
0.0261275383096866
0.0653795971026127
0.0453597403503669
0.0506702163114547
0.0433465445525392
0.0433457457951339
0.0401700379343671
0.0533516176364349
0.0474400843358985
0.0554143988944958
0.0368780370945816
0.0441114493856698
0.0613345017526559
0.0426087108849849
0.0424198334167399
0.0550032742935294
0.0466808408598692
0.0404709007408613
0.0503638192405537
0.0358912380111883
0.0641744795004765
0.0250511324750213
0.0392770514192745
0.0660896255864358
0.0452061980959028
0.0487137325981398
0.0623225101047864
0.052991038382619
0.0494915708376161
0.045659453460794
0.054111849946519
0.0421363362930671
0.0532935360741549
0.0460423385603509
0.0805273572865924
0.0470152143535553
0.0638678856921653
0.0424816328936341
0.0544841306817882
0.0528084827620459
0.0621057283874835
0.0475479738376595
0.0607330317842251
0.0480377960978698
0.0447030890803227
0.0591892313988049
0.0685655525991946
0.0288293378372836
0.0864173241505903
0.0556695821028665
0.0719336385848492
0.0544956258772749
0.0595609917403499
0.0561427334569494
0.0627655797152513
0.0617631163591252
0.0673661706323012
0.0541445297989141
0.0774507452551769
0.0647822026758633
0.0595211315089789
0.0537552338365916
0.0958149674143018
0.0786277493513484
0.0777859484591574
0.0726670118279161
0.0465441737860672
0.0906356722765083
0.0628909741834861
0.0833785151844774
0.0875369967856378
0.0742219149794101
0.0853767254872903
0.0758518018402238
0.0928369958381339
0.0758754983679662
0.098096779889743
0.0782692955269442
0.0954270082453152
0.0832982027163562
0.10348073467012
0.0766472278428647
0.103889022158055
0.110408799058582
0.105839457465673
0.098340584964625
0.104818385780677
0.0837708142535466
0.123542591881851
0.0891041005768652
0.148046801603558
0.0990539441358078
0.135532827534199
0.120450489825374
0.127939944656925
0.120252671743983
0.117418383381993
0.121979032043986
0.131829378821644
0.117877764084558
0.133220210010327
0.128128904518494
0.136469961700443
0.12967708382988
0.151439795973525
0.128453360279452
0.134323297771655
0.142368514275611
0.15011529194429
0.15749313193678
0.156077065874821
0.146909738025589
0.170145350390365
0.187869989716457
0.159703619773999
0.16532903690365
0.159875460301488
0.172248198082798
0.171585996434684
0.170658798830335
0.186562798210998
0.167517776780212
0.201470489564158
0.165970446717735
0.198279375616454
0.184938562340267
0.189731633854439
0.20242421332556
0.187554233653901
0.19917306543395
0.23136857512713
0.215586116879463
0.190547420245075
0.229912519959271
0.228706677628588
0.210411919267134
0.22713304622601
0.210957902063037
0.233357907338922
0.21704756762314
0.229698283724137
0.218442497515765
0.266198734785067
0.239984661328192
0.250156833400753
0.246946886386496
0.255567405763987
0.246202953594138
0.278137682010584
0.252190681136447
0.27755499715322
0.265705015370997
0.276900250077424
0.274237758710946
0.262431621436941
0.297348003427592
0.303533007826491
0.288534395317433
0.311091579758452
0.27677447104284
0.308484449956707
0.295901126501241
0.318313916301316
0.288787265473883
0.312892326807177
0.304717830378662
0.327183428523884
0.312806486012739
0.340095701345808
0.317674347338395
0.346387240794613
0.333231614848016
0.361442423360471
0.339695612508129
0.374174617007693
0.354179398641743
0.378531709619737
0.364353334594686
0.375362052279607
0.373219500002027
0.405970780296684
0.371993881948315
0.399886080543547
0.364064909848601
0.385597239018893
0.370935980658794
0.419057609726213
0.392602742574334
0.447788620867818
0.413297392170164
0.424368184572743
0.411487363285952
0.439278077193385
0.422286017348471
0.466123781321296
0.422435938835921
0.459755691129237
0.419446492283319
0.484230348451033
0.448470217113298
0.497802789682563
0.444327538856741
0.476868279733959
0.456116344363105
0.495694355560207
0.478404775698118
0.512976699415256
0.474907892780077
0.509594705933625
0.472646564919572
0.519707804684095
0.490920761256538
0.502817394211316
0.498436440103062
0.542069271709881
0.528055282834947
0.552652479865773
0.512162568723189
0.585893353118533
0.516094892029583
0.573085473671833
0.531447776009184
0.580570791585444
0.567313993603141
0.565452377678
0.563821062055745
0.637511635075446
0.578238131379816
0.605536270178082
0.573414853118551
0.612701654037248
0.577478104824366
0.640748899360297
0.59113140862613
0.65185386178975
0.583988333510278
0.651999670090325
0.575540526755698
0.728687644405176
0.62743743132105
0.728962495321669
0.64796839782097
0.660446166670658
0.64721731298144
0.70275827480235
0.661281592966257
0.69363286359028
0.626324202330999
0.702430156636628
0.666471511427875
0.733294058734302
0.673430608247482
0.717154505883833
0.678943234898492
0.753192888707887
0.688885687008359
0.730908391921594
0.728431738592136
0.775021688481095
0.72587311425448
0.791460955425136
0.731749619036859
0.808826816662044
0.732301128215769
0.792684439390649
0.715076876756675
0.799137774565743
0.776118715533525
0.849978539943449
0.740908874679586
0.792099202624776
0.758897535122675
0.840338038162924
0.782402803206949
0.86910238379559
0.756465881483311
0.896991951445992
0.78734750916362
0.87368877424768
0.791248778407281
0.829454858936671
0.874491930716072
0.874708677581939
0.757635265798102
0.867558260820882
0.792501240232211
0.921488808178586
0.875323007110651
0.929856021427002
0.869415824746959
0.971633230573944
0.913715353256484
1.00934575605489
0.883305395418361
0.967294304792685
0.876924561498382
0.909644559929643
0.859569250486507
0.978659051434323
0.921848126614325
1.04300724692788
0.890849394709804
1.03781365662928
0.912401485530431
1.04798601926083
0.942812517555588
0.998769258731842
0.939606165394824
1.08474723830726
0.981197681028037
1.01219078092832
0.988842282390345
1.04432771841918
0.91942245604694
1.06730557379305
0.948007417866735
1.00722605532056
0.973986227064654
1.15827437404271
0.946096019810147
1.13815572256359
1.02351483259447
1.09050296254975
1.0190358396464
1.05632252884945
1.06409697964699
1.16731563397887
1.02920035115756
1.25130498441007
0.987990507387311
1.18103000768397
1.01137460594577
1.11511883480488
1.06092865074506
1.18145652824837
1.07530437828061
1.06597726667814
1.0132036389976
1.07463813824783
1.06643763394197
1.15738384653072
1.10274951727396
1.25901274240598
1.09319509782471
1.19712799070829
1.15053486415876
1.16605399301584
1.08432900087771
1.1738682772625
1.12504619171934
1.25291210962686
1.14299516372428
1.25918961414085
1.08844182201244
1.19351727740184
1.0488279788881
1.1469433975284
1.17000959254656
1.22911735658052
1.14004340177185
1.43085101232703
1.15513474512529
1.11234195966659
1.13966601456086
1.28692509920062
1.22155980422414
1.25375185826608
1.14075871854771
1.29705145186957
1.2462908827519
1.37554417518197
1.22629034386663
1.48052679539869
1.26906638364757
1.33153508639514
1.06515641275188
1.30554018398315
1.16898331751986
1.25893514952298
1.2008480731829
1.27559071033329
1.28767826130585
1.25786562782351
1.21296272798103
1.32692833398492
1.20734626215517
1.44548758714338
1.27283745103288
1.32404877254598
1.2217321117234
1.24885155492391
1.26711087285001
1.30542162853332
1.27498075553285
1.3898393135947
1.26691045980893
1.44552776174642
1.23869012110807
1.31220398844836
1.20015735416835
1.33044181803988
1.33001105485925
1.55123700062663
1.34214296661696
1.53658912491937
1.31897492386389
1.30881850389959
1.39915430499198
1.29642023899399
1.36076398692812
1.49526441866878
1.31542214527516
1.45079736656483
1.22967564828896
1.38242638035844
1.17055160982809
1.44172676208901
1.2927236984536
1.5448786724886
1.31002142153897
1.53856451418654
1.3282918088028
1.41319959938832
1.23589947196513
1.61921581370272
1.22865699335538
1.37299527714237
1.33078789241083
1.50456786262294
1.28010928970436
1.41945956263555
1.24594656241785
1.34778234473437
1.38262404596179
1.6007221972128
1.23006854260429
1.35167080940794
1.33515001795052
1.42964516561304
1.33223367738437
1.6109375565422
1.29610979201787
1.4950460588516
1.21211229956867
1.47322734282234
1.33613536471784
1.38059900949904
1.41810082861589
1.39682450998308
1.31561645741359
1.43741686518806
1.27422298731444
1.40382195839987
1.27436612259641
1.53297656358502
1.32173965076674
1.40730789311082
1.26895485556455
1.4087566039735
1.36880069334285
1.35861681781105
1.32643867098756
1.47398551707789
1.36155721713107
1.44614549735317
1.37935804837232
1.44110175257014
1.41219989037331
1.39863922775759
1.2737238752944
1.47445229984903
1.17103909790961
1.48522314402117
1.29478235800504
1.49200293020519
1.37889686856537
1.42467635288227
1.33257804513568
1.35184601546037
1.31672227831809
1.43948645564666
1.24537717088227
1.41313224877305
1.39158485576765
1.48901780967735
1.31109725884719
1.40188963904843
1.34117780496548
1.33388682766296
1.24527621038368
1.45767640321484
1.38946212322204
1.55617298816112
1.29958171764087
1.54653839924424
1.2719009184917
1.51784853095485
1.27126328210021
1.32215090792315
1.403209945499
1.42903766716615
1.30316521057403
1.40140037993086
1.36717804060983
1.50141700638741
1.34417483129313
1.44167807620972
1.30038485673009
1.3775976548049
1.274940738097
1.43998240376002
1.27192143030858
1.353292980262
1.30706513229013
1.48733499001129
1.30898361217355
1.4215734780655
1.24642604792273
1.34130034683534
1.28848654756244
1.42854054021767
1.20878984910111
1.37474716649372
1.26366556853455
1.42149387864929
1.25162999837615
1.31366593576739
1.24507506142025
1.41065146922565
1.27481734216312
1.34383377706288
1.29221771171479
1.30364438996767
1.30819767401887
1.38426096821527
1.32483460048106
1.261508236761
1.24378799603954
1.35339821621165
1.24598101490857
1.36026960830131
1.25357658307504
1.46650105157329
1.30992011263633
1.30278895591217
1.25214497821266
1.29324868064567
1.22387027112807
1.33700865115844
1.27228054494311
1.3003245916022
1.24997624392736
1.2765374464668
1.18885156790591
1.35836767234058
1.11882799555892
1.34667784148721
1.1811523200862
1.21162387510645
1.19862627614985
1.32907288137517
1.13833945944724
1.2601164515444
1.21354148611733
1.27905724546056
1.21413473744301
1.21629899642443
1.10077239853858
1.16428753627908
1.16487030579376
1.25144561242049
1.16751567216291
1.27524479149074
1.17369293541239
1.23039363228863
1.11899626164825
1.22011482179908
1.10596139011859
1.17917881495281
1.17561062868225
1.23594798156806
1.17882672641184
1.15472294749502
1.08238324969743
1.17794841338792
1.10279297524033
1.18861011876042
1.13390940869132
1.23011862041489
1.11473982920957
1.16295382745016
1.10311764521983
1.12870744121188
1.07239501906899
1.10541541803688
1.10544110759193
1.06522166703505
1.07045483443203
1.12941740550915
1.03945471518152
1.10382608336509
1.03760643469648
1.11050157657233
1.0438249045959
1.07096739608574
1.03577420023771
1.0332817270376
1.03417470587065
1.07374129493292
0.990082668170031
1.02592088075678
1.01116011437144
1.04589861386712
0.995858869990465
1.05469195610847
1.02952648714128
1.00296744356211
1.03825997099266
0.996503666376594
0.942231141300004
1.00975713568035
0.967331797855941
1.01673679514072
0.936191729354157
1.01368484926649
0.958948884811659
0.985524653015883
0.924777021475238
0.996013995721463
0.927726031972915
0.980957749977595
0.930043655381483
0.930518322493288
0.895985195749694
0.953674625784514
0.89676697629128
0.939286775187985
0.888703214430273
0.888402469072836
0.897141887068258
0.926183225827668
0.873219623075451
0.919614994928027
0.883284065545694
0.900430062359846
0.882584023981343
0.890759496708365
0.851125893734823
0.869069395853248
0.83481806176463
0.842839126543557
0.85141945834135
0.895337308918058
0.866729697321103
0.851581001102678
0.825804484906445
0.879348025956891
0.788222832402124
0.826404376772631
0.807482912958207
0.834936209826823
0.806567473086598
0.824580831502843
0.804020726733209
0.814793060585868
0.787142619971449
0.805022751517254
0.770809533399337
0.80606459375454
0.749395019750834
0.790077479007848
0.758853357953379
0.766600687583383
0.764366627070522
0.777538555358344
0.763277477174453
0.769594469865851
0.756236951190503
0.756100070443952
0.735629816222417
0.757510439322482
0.734508019901823
0.745856912208776
0.71469551943198
0.72855093765427
0.726291566648222
0.736231953319063
0.691103697636937
0.721623268507218
0.69381691527841
0.689690104014166
0.674321491436275
0.68983864771417
0.677576058970902
0.704460017857297
0.673420354932952
0.705129834744629
0.669893321506052
0.685438636882336
0.653509759241558
0.665515521191515
0.634923299558898
0.665063605134565
0.658735362421686
0.667351234850633
0.622781653601617
0.668692231823185
0.647366549142574
0.65647079797216
0.641379758523518
0.636932563872055
0.6195544733048
0.630165531458522
0.603518289865689
0.629833400167783
0.612843131529505
0.62341846723613
0.600110978263632
0.611676789699668
0.598909121236077
0.609833460712555
0.599255257282013
0.599493096685804
0.592172845545769
0.607676248638365
0.58095022138548
0.588262892772127
0.574575403542008
0.591212123557171
0.570048355651568
0.569432681942172
0.550157437398861
0.575012298605498
0.556571845442556
0.568791138585109
0.548643782814095
0.559704586730623
0.54624821662748
0.559093853222202
0.53805831492088
0.550216190574545
0.526567522911462
0.54325727709914
0.530930021316579
0.538113892828552
0.52932992562292
0.53569247290514
0.524691014770392
0.517760463245863
0.509742508676953
0.518650942535411
0.519969196612636
0.517660623862584
0.509824951729265
0.513527369940298
0.502730456481711
0.512923917009679
0.494267671327977
0.504718674664722
0.485346784329705
0.496184325524479
0.484680633259526
0.478467527145756
0.479335680541512
0.489743792808724
0.473850487233694
0.476659495507449
0.465726781123239
0.47980099455775
0.462508038224308
0.474224940354608
0.476647163982499
0.46025338283326
0.447273580324727
0.479725849402379
0.460473698948926
0.46590986057616
0.446022938872325
0.467305244174675
0.448172227062518
0.452952251405462
0.455768112518054
0.459943638699551
0.448212368902059
0.446141287258566
0.443144233967036
0.448582110658128
0.445953669965128
0.456183102071909
0.440349523876615
0.444984628497562
0.428306637123499
0.444727118115485
0.431334969394887
0.448345477885649
0.423877251002812
0.434011561042496
0.436114167959661
0.443777233962269
0.433186292515076
0.438694664964479
0.431885253376631
0.439314239942061
0.426982290970743
0.441895350812335
0.431366415527657
0.44639269649953
0.431715539461552
0.435759836947525
0.43671278604702
0.447858104857216
0.434838847119924
0.456489442057234
0.438658154333597
0.449957195201338
0.443902430783277
0.459507590248281
0.446018247454551
0.456424600478119
0.44729014257928
0.465226841094702
0.466036273756842
0.462899756283146
0.45021743304045
0.469682523685209
0.461800018828145
0.475846933234264
0.470719062280489
0.48558454564859
0.466297686728495
0.471699496036725
0.469723797036883
0.477121513303253
0.473536407736188
0.48668815527967
0.484055807978627
0.494748321948142
0.483665128343668
0.49947809508827
0.499367270466919
0.515175516904571
0.502133847228573
0.520327059605308
0.508442518585383
0.525311013551609
0.515413612223305
0.531675538928668
0.515317631771568
0.529026994937727
0.528106461980516
0.541804253408307
0.534777828317102
0.549282290649708
0.533855566528554
0.548460365237456
0.546104176819409
0.563337520407616
0.549403956916475
0.558629042811053
0.563362936010084
0.576977624448794
0.561743386942609
0.578258013434735
0.564209348173993
0.564906423830261
0.563285310335869
0.57351196933506
0.564250327433062
0.583210848308195
0.561996299317451
0.590849222774715
0.572171817296696
0.571204931628678
0.552947693461073
0.562171364338648
0.566169001684343
0.573913980546357
0.55849220732222
0.584501287865812
0.55532823737804
0.567488933403134
0.559348529319916
0.556988000569432
0.555335888361095
0.576692332548274
0.558555076016906
0.572762685134271
0.557537774374714
0.576866289874288
0.558405149683624
0.575306640948214
0.551021172234579
0.572838355669105
0.566978175845338
0.568566256901103
0.572924392708704
0.579104791710649
0.563411898792613
0.574720407170579
0.565620638751453
0.577972172972618
0.562597617525052
0.579520080478087
0.571808618588331
0.58001486977613
0.567333065940204
0.579758814791428
0.579092014425426
0.580294911009111
0.567746253343063
0.578161879239433
0.561051968452465
0.572078434437103
0.563499591623405
0.561316223860966
0.553079389668965
0.568057326807153
0.557304926962433
0.565515493571006
0.557199346477517
0.565851741200221
0.563310675866128
0.570672022935518
0.551692104566234
0.559538872192783
0.537111267359457
0.554818650828543
0.549674880906833
0.552495106937268
0.540587872795678
0.540014023242018
0.529235482572711
0.536185713669661
0.507526542129221
0.520270226331744
0.520270376620982
0.519088509163953
0.507228741580012
0.513302906731004
0.504746257013368
0.509183260147994
0.490245102016995
0.506260289908467
0.47810659834821
0.490687656207881
0.490798746733551
0.499011459013246
0.476441072432032
0.484350466332679
0.46935568871623
0.470330307246794
0.459552601128152
0.468695353060509
0.454855808772833
0.462050738890253
0.447090131873854
0.458892399503856
0.437811953431902
0.449334241230301
0.442211251172888
0.447220372319261
0.436414877357859
0.435878912555471
0.428279956358136
0.435251481811278
0.414251426456813
0.426455148125881
0.415617946163659
0.435699464482234
0.412363412911916
0.412970275643093
0.4110545278558
0.410981931997243
0.402452971283666
0.410108267146326
0.40406372567545
0.412704893047693
0.400744225635447
0.40370598776149
0.401526162269019
0.403109267329795
0.391785978806211
0.402530303681797
0.383378166967794
0.384853897556714
0.390703051186062
0.395851764566528
0.385104322064832
0.38466374611
0.374928410407646
0.379037170886527
0.372014789087694
0.378964890359814
0.371193434204855
0.382030394532983
0.368933143122475
0.374958149526937
0.357802251625522
0.366221364538533
0.358850357425321
0.371520171198773
0.363316742492457
0.368635238560237
0.36090485781874
0.357769993583694
0.350786485904476
0.358291865042695
0.348766636661904
0.356371629179354
0.352338197215726
0.359670170572474
0.346212283325211
0.34656736032377
0.34056904943952
0.349188142743985
0.348037943087474
0.354945264031077
0.336788724731999
0.34493947722151
0.339509317033648
0.346085350385782
0.331032686540808
0.345126449321973
0.338002547902782
0.341441722579903
0.335309744596084
0.337162190829111
0.325395207670842
0.334927589950442
0.320424080188169
0.334606094460761
0.3244372154004
0.324662933849884
0.332148869221394
0.327065545265224
0.32150991003776
0.32209870518125
0.321152688083074
0.3291907803487
0.323222434813438
0.32735891400392
0.3228845264669
0.325451030497091
0.314994735673923
0.32098511258941
0.317321136467074
0.322137966498614
0.311709405228533
0.317507413376466
0.310430300502337
0.313515528329858
0.312221809586961
0.313090207422016
0.305282526928902
0.31290350970852
0.306556648892506
0.308064669279948
0.30543066335909
0.316487253945792
0.304225371451558
0.310930383673433
0.304522885705035
0.312485287982791
0.303747197544494
0.305306144507634
0.301793701402711
0.309497108381382
0.301628078630321
0.307701903308114
0.299057630359231
0.309170865106416
0.300702610940464
0.299085919907425
0.296573209557137
0.302997980355996
0.301807575468338
0.300792156071784
0.29638668650022
0.302038509521438
0.293105011599903
0.301176980505424
0.296219916752426
0.298674079960092
0.294397484449544
0.299266806369184
0.294795985145539
0.301099652623511
0.294360487377857
0.298864594275186
0.294579883234921
0.294284607524366
0.290253714639712
0.291702319011505
0.28841993436243
0.294460208454197
0.290359756839872
0.295082643064915
0.280923744278938
0.290013352754031
0.2856925926024
0.289411660805966
0.286644513279879
0.29018438175706
0.284817068814727
0.293731088446856
0.284625432531847
0.283231194052968
0.280015766693332
0.286698460433005
0.27730533189754
0.27758391341026
0.273618198256629
0.280370699124382
0.273427370000004
0.279227200509417
0.274088794502793
0.277985738410328
0.273552609561665
0.279635958367448
0.268528143010812
0.275284466815978
0.267840227759242
0.27159112139038
0.264575102491989
0.271269496090244
0.266144843579031
0.27381896835514
0.266091362053307
0.269748449315436
0.26662543761098
0.270629572287538
0.265958783248526
0.267843671708942
0.264430248241592
0.268156203359545
0.262130061547342
0.264961846977471
0.252624545726727
0.259890935535529
0.253576035664554
0.260606812229352
0.256903124312117
0.256605429738522
0.257072652573537
0.258248364631505
0.250261182728965
0.25384766682078
0.248887535539962
0.256285955521236
0.248275735717928
0.250454193378099
0.247438283909409
0.247946873777665
0.244000342429497
0.249081500582596
0.242103509715432
0.242747895530149
0.238708955988432
0.246472584796226
0.239596556583045
0.239052246774048
0.234225850832212
0.236658293957582
0.235662387836975
0.239152915865998
0.234811478497013
0.238529466570655
0.231387284002703
0.232768448553154
0.222979726741968
0.228035605084156
0.226855208531553
0.228948363979408
0.226237369113697
0.230643247450155
0.220213126524588
0.226868117743139
0.212847138901321
0.224077298931348
0.222676078637596
0.226015295874275
0.217595737985743
0.217926646747418
0.214864653084623
0.217415962661501
0.210103117211836
0.218879292075466
0.210205177872792
0.217694542030208
0.209836581719864
0.215110880279973
0.207713516920386
0.213321370811912
0.207769854285845
0.208202898731351
0.205967598770197
0.210963139824646
0.203409884721374
0.208363345475812
0.202967699344343
0.210328237303506
0.200673837837449
0.209320640503976
0.195070162084368
0.20415003861981
0.196517017618053
0.199911321801894
0.196932641894299
0.202450464688648
0.192940652276696
0.198070861703966
0.191934358330992
0.197874567271756
0.193321815417298
0.194381209850878
0.191131004244703
0.19405908211509
0.188198700124983
0.193695153358375
0.18704013670865
0.193710284956149
0.188888675283243
0.192428895434274
0.186248684933123
0.187015547630785
0.185154819699212
0.18714872045216
0.183187243538104
0.188922786022446
0.181055818020068
0.186196565438189
0.183679836012789
0.183631571234771
0.178100602027063
0.183566147385148
0.177096528927336
0.182486604238976
0.179522380449436
0.180341772508501
0.173837283060133
0.18385162738578
0.176788638212239
0.181551399002472
0.181206569484185
0.178492669733818
0.175326154746187
0.178358488463714
0.172872810560029
0.176402342429017
0.172490654340121
0.177378348905615
0.172088084406123
0.174848420770705
0.173252741212615
0.175706826820975
0.169844748298835
0.175440987468459
0.171357278237825
0.172175306945746
0.16516217915313
0.171761033092338
0.170422330834892
0.172364351620056
0.167650354996103
0.173121699027937
0.169104799559972
0.175358108090224
0.166242439901271
0.171404461978885
0.167249792686063
0.166699786571937
0.163986047885314
0.169202044870285
0.165517342649162
0.169719119753688
0.162483376105996
0.169047948650733
0.160173221178138
0.167780609652979
0.161170473069535
0.164207416021337
0.158628286668487
0.162899273173668
0.161047869472813
0.165953154928193
0.160634640501223
0.164723744029066
0.160754102437803
0.164563297578029
0.159071734118275
0.159692350596327
0.153834485125275
0.163394182697737
0.154234451018027
0.15615225280877
0.159335634190395
0.158795519708702
0.154351739870894
0.159375718899707
0.153666870264625
0.156437993494212
0.151671618741381
0.1575564081014
0.150132285929251
0.153218162457737
0.15147986006993
0.153949533249541
0.152080971122753
0.156529372083358
0.152130471136619
0.151336525686416
0.148626233998089
0.15669272549845
0.149289293234411
0.150351089315341
0.148222627350882
0.152002873078428
0.148127827047022
0.151647468063847
0.146295851533708
0.152390516330711
0.147709156882055
0.152676371622687
0.147531516724628
0.149756422856937
0.145129384440207
0.149718157681213
0.145765403471136
0.151257936569654
0.14367564034589
0.148929688624253
0.14319482584959
0.145008069566372
0.139794573422859
0.144092976403655
0.145809688799992
0.146061339872627
0.13931950642315
0.146199002557085
0.1391055298774
0.142612860774234
0.139497140652592
0.143879763110762
0.137796133699951
0.14228604279359
0.136101986374596
0.13868348882488
0.135706628263625
0.140380056012094
0.135499425398921
0.139625929738257
0.130954681562863
0.134174648623257
0.134119991991399
0.138482395074383
0.131867110155444
0.137709976800358
0.132990512223696
0.133907737234208
0.129390185294233
0.134209294765446
0.125272565454673
0.127421452470176
0.129043240782772
0.131138895928951
0.128174302595385
0.127970785185705
0.123412254678893
0.129428492419826
0.125997165941819
0.128628841343995
0.122833431753646
0.126331593868092
0.122987346779242
0.127830564229766
0.123269777046943
0.122480676231739
0.117010508628791
0.122894020486157
0.118317690894844
0.125146250814785
0.117376247535445
0.117776894582415
0.115567230259475
0.120234438944459
0.117388261427713
0.121421950405432
0.118023580867469
0.121120816442292
0.114187252504635
0.117818637710035
0.11455798856953
0.120123449906572
0.112520788082567
0.116319942898137
0.110704587035052
0.116079815508374
0.111909168862187
0.116926254241618
0.110646761050433
0.114877642737851
0.108526003083397
0.114285497640967
0.108009663894853
0.1088614395175
0.109028549623624
0.115674115043014
0.108490198738602
0.107781108304751
0.104194763733611
0.106609438155168
0.104195772411854
0.111793314541213
0.10627106835199
0.109397069007443
0.105869046101418
0.107429366122113
0.102207949209179
0.108706578512312
0.103707821258596
0.107621505283086
0.100974879243507
0.104715314477048
0.0997913103833908
0.104772657030697
0.100647928868925
0.105844487239046
0.100542861497745
0.102658939342687
0.0978273228537233
0.104321128173448
0.0972441877007159
0.102425745466403
0.100434866635606
0.10179076020279
0.0991710431830782
0.10085976486257
0.095392742057129
0.102437217765157
0.0963062567206048
0.100713027166695
0.0971457905985048
0.101987180537389
0.0931060385880239
0.0976986641132409
0.0922524581842711
0.101083814145469
0.0942956615528093
0.0978834874474985
0.0951644076507242
0.0994507161781011
0.0946765681178523
0.099317293137291
0.0944338116150317
0.100901229103947
0.0937164377298053
0.100184758042555
0.0937849325966677
0.0964049286005223
0.0919527650639774
0.100723703730552
0.0907049080382174
0.0970108484372741
0.0890764395245315
0.0953529123160554
0.0892816752481085
0.0962788001180165
0.0788563752478562
0.0981938704463479
0.0891847218964864
0.0983156682459704
0.0844604962042147
0.0925720778762599
0.0806447861548331
0.0951233079953873
0.0839202157950026
0.0985705745716854
0.0863830846831859
0.100309737340385
0.0822188511507285
0.0934739561632449
0.0859050468674336
0.105796426964695
0.0851247924368223
0.0980062600978362
0.0846078185166129
0.0996093973919147
0.0787324521728819
0.0981332974112251
0.0781820062981667
0.0921032192491829
0.0759601333548121
0.0946519821699868
0.0746169839436137
0.0951865844636849
0.0765756623609887
0.104007733063289
0.0805485418444915
0.0981625074797778
0.0806712384384414
0.0991751592650921
0.0814484591109937
0.0956224259578618
0.0753452032414281
0.0947723601239602
0.0818230793496886
0.0965886966924486
0.0814143758715369
0.0932552797619959
0.0854935513546941
0.0863138183856014
0.0861520749510754
0.0850239048882411
0.0965018165758881
0.0705662397251943
0.100963200404994
0.0693448317443225
0.109711402425543
0.0603736996856186
0.112323695873666
0.0628665095997539
0.10997695607182
0.0591647595560441
0.114476359698565
0.0668489948845002
0.104563826768297
0.0740925478231617
0.0942756744094463
0.0827481208411562
0.0889837498753642
0.0850448925245877
0.0815325403959067
0.0910112044988782
0.0821223840367746
0.0860136615811252
0.0863202286271599
0.08300509694022
0.088156293692104
0.0795837596843565
0.0884683254879392
0.0831662708804531
0.0879769274875685
0.084288309108963
0.0867104823840329
0.083828106367251
0.0859223421744815
0.0827487590253212
0.0859674959423372
0.0841319130946186
0.0849651261792658
0.0803080113863002
0.086979715474822
0.0859441210635166
0.0861944416485195
0.0814032009459879
0.081139186329648
0.0830210654136849
0.0837604108641661
0.0822194984536532
0.0864052550694037
0.0840902201195463
0.0857628397676657
0.0844559644571033
0.0840551519212421
0.0863972890860401
0.0848400807493495
0.0862337705539916
0.0882456227964115
0.0861120213497047
0.084493562412099
0.0826689443882292
0.0836029302862798
0.0858395017519604
0.0882081737295691
0.0832452638693294
0.0845131835546618
0.0852632080862979
0.0850638001764013
0.0860863169339397
0.0870765521215513
0.0871242041960023
0.0873503224659301
0.08382627714575
0.0891560038445113
0.087105122772296
0.0887562291645631
0.0836737152055646
0.0838425594364887
0.0867384102524279
0.0864790579251589
0.0861489755536779
0.0844379111431855
0.0822689127317457
0.0851140663148309
0.0853226967036789
0.0839196393869028
0.0833557642606184
0.0841848799257318
0.0880193274657618
0.0882885637082367
0.086473692839332
0.0892120026524399
0.0896430598814834
0.0867698927187385
0.0864504326685032
0.0866570827724577
0.0893838438024301
0.0877905059585588
0.0880036992175497
0.0885067985588456
0.0846389616053689
0.0874022361530269
0.0886937759381252
0.0853142839037529
0.0875793067906886
0.0895586482100383
0.0894896294153329
0.0870154577943746
0.0870453742540965
0.0877344821749014
0.0869135103528606
0.0862387567521252
0.0889133052086798
0.0875812743858261
0.086804280168841
0.088842767822773
0.0876980658322419
0.0876143044906775
0.0905955330614018
0.0872219569613899
0.0897735945773055
0.0900220918384578
0.089454271626265
0.0879835894256379
0.0904927385437953
0.0899791083091284
0.0907114140511852
0.0903801784766317
0.0901289735982552
0.0895788263461506
0.091138705637228
0.091548801158704
0.0901491032967666
0.0902230893516943
0.0916302081540651
0.0909117692041873
0.0926180795573857
0.0914184094870544
0.0902729899967383
0.0889819862535843
0.0926077178628806
0.09042715386126
0.0920734497343808
0.0920952251149142
0.0905040680948877
0.0925179546348773
0.0948885342741505
0.0943053211666782
0.0920128068927267
0.0896226653008639
0.0919150372540483
0.0901585356155944
0.094548661272131
0.0908863066290272
0.0940981652454137
0.0912256706405679
0.0930830632944663
0.0938254678211022
0.0913000454799449
0.0908367799367742
0.0936803513905276
0.0919448589476673
0.0934216954417123
0.0944956643010945
0.0946715571849788
0.0934989411388523
0.0936442556107633
0.0924689810958413
0.0958264524369614
0.0944660876722273
0.0958817699076045
0.0954209853001413
0.0928952775243909
0.0918023001416187
0.093944949256917
0.0927804669050783
0.0956360814582033
0.0989175258769166
0.0966479624740596
0.0947888663183818
0.0959343665417677
0.0946209801950707
0.0965259876914119
0.0961092158749569
0.0979918944906211
0.0936721343611971
0.0938693952855313
0.0958196215520173
0.0981667282750503
0.0968852987121502
0.0971436486584891
0.0961548476853461
0.0982393615016544
0.0967315932135434
0.0979912843963892
0.0959583094402812
0.0969349237700897
0.0948446293263542
0.0949534800457789
0.0963842876132762
0.0952694238060671
0.0939032626521644
0.0945420656271748
0.0953171962709693
0.0974000835906708
0.0928355058384127
0.0951530676378893
0.0955758397482244
0.0953833898572994
0.0908660966087875
0.0941244924610743
0.0941021813899215
0.0947265928475393
0.0940525693308299
0.0924223278644128
0.0914923931107808
0.0936730284094898
0.089765143068841
0.0923108004789281
0.0931237098949407
0.093749950920156
0.0899548956814232
0.0922840507056151
0.0927654022057004
0.0907722415148015
0.0892467277031708
0.0915268368222041
0.0898945357877834
0.0913256912995773
0.0920526969975505
0.094228167273772
0.0909784249336133
0.090311323116644
0.0894477596081139
0.0906467612833311
0.0908949413757014
0.0917141556797318
0.0913352233253812
0.0917490472596961
0.0903173259764224
0.0913471743810061
0.0900898778603637
0.0911688048571481
0.0889604060858226
0.0918785722701893
0.089337328033636
0.0884717288080391
0.087049900420795
0.0891239903928616
0.0900439435703997
0.0906129088332049
0.0854840553167002
0.0917650415090636
0.0905383381992536
0.0898691399904461
0.0892874969675096
0.089693068643288
0.0870978674411898
0.0893646884635211
0.0884292515882967
0.088967610757971
0.0872488743238929
0.0874172080302391
0.0873708107733675
0.0881988136860142
0.0864596345527792
0.0861604880396627
0.0866297223592962
0.0893694576952197
0.0851057777194948
0.0872352692937994
0.08711723084822
0.088089739741385
0.086721507951588
0.0880436627649697
0.08572386726669
0.087735714319822
0.0852982091996749
0.0885250110462373
0.0856207354463749
0.0835271493483179
0.0861387682236029
0.0896830200360104
0.0837171568219909
0.0885666659662547
0.089182326229964
0.0876050084284418
0.086392536914848
0.0846147794655079
0.085027661440066
0.0868530861085249
0.0844563118797523
0.0837805715333967
0.0835142502034408
0.0869151643140907
0.0839673547127936
0.0849129429631222
0.0812938429893478
0.0851819970316561
0.0848534026602544
0.0831963620733651
0.0824785063867064
0.0861362467091448
0.0826160716886912
0.0825305447632374
0.0821074509515796
0.0827644036076096
0.0839979713655258
0.0841208031922739
0.0808905933348386
0.083180594661391
0.0839516887479988
0.0842970461570704
0.0815504589684637
0.082831508633999
0.081467253867402
0.0797624985478576
0.0792195411336347
0.081860715894654
0.0826082847586893
0.0812936326471056
0.0788141815924541
0.0784586344399603
0.0765146253006267
0.0784684088216107
0.0764876342281692
0.0781160773699029
0.0773602449922169
0.0797736544280761
0.0781487590450301
0.0769305732370058
0.0762455163521872
0.0768036368585549
0.0785247049835568
0.0808198630137724
0.0754936168388775
0.0808387047292998
0.0732898283783277
0.0740184101221003
0.0733586598717032
0.0766139168339979
0.0716990396276417
0.0747538290973913
0.0734965256848193
0.074496918918698
0.0716265854922589
0.0744543998515618
0.0723106135834219
0.073732772271329
0.0723474071615899
0.0747288893323517
0.0705431310501055
0.0708712395683788
0.0692043958216852
0.0734638739456262
0.0697328810237732
0.0728344836605507
0.07004284728322
0.0709921728488683
0.0665579470660111
0.0737215280230469
0.0692423241788111
0.0701986460718022
0.0718155772421409
0.0711794935343367
0.0699471688302143
0.0724671111431382
0.0686423307194444
0.0695167187947144
0.0674130964695032
0.0690155370311145
0.0707545006458756
0.072304718664822
0.0682905580759452
0.0679427030457508
0.0671974869077749
0.0709297954124157
0.0698372224125739
0.0695722371182459
0.0692284790953489
0.0682371875907732
0.0665390191007631
0.0687357430836977
0.068059520937327
0.0698170734081456
0.0663797396462944
0.0680225414753623
0.0673079914740477
0.0663773522173719
0.0648892137365185
0.0653652751940157
0.0664385111085909
0.0642884663747962
0.0645272183068106
0.0657480602173561
0.0664447375802509
0.0684790383751954
0.0664653121059521
0.0666041296939763
0.0658778232755137
0.0675058011782725
0.0644860077366959
0.065126696018097
0.0665241301762901
0.0654157733890151
0.0641491883554858
0.0644257342692777
0.0611047043772561
0.0608349000876711
0.0629200899571542
0.063599173771592
0.0658419629810079
0.0607083146537416
0.0688602431329636
0.0644348466838085
0.0637761337842589
0.0633801398621422
0.0606983099213495
0.0661201349640725
0.0628600702297988
0.0632398154879452
0.0628036039295086
0.0648870615490596
0.0630468547928527
0.0636296839179868
0.0622336761825899
0.0629046826218739
0.0629285098698086
0.0609130212214689
0.0612107035427336
0.0653328373353563
0.0620754744949622
0.0623984397052312
0.0595199376814167
0.0643183983399182
0.0634959534333723
0.06256755679713
0.0643339961728879
0.0600030813335029
0.0588843615951232
0.0709140431355038
0.0562619221799769
0.0656269316674149
0.0588603350149565
0.0643648363711512
0.0585665114499872
0.0650264044259221
0.0577412080384919
0.0656799979474709
0.0606016425276337
0.0640757221206773
0.0627863588047193
0.0636880442394863
0.0587786371382524
0.0652298432290227
0.0636407016275892
0.0621045525738115
0.0610046533992954
0.0625514850242768
0.0597424680500612
0.0627054254985396
0.0600468029702225
0.0639442892736913
0.0574480771917644
0.0681833331078636
0.0627315092935824
0.0657740692608445
0.0628213382535546
0.0632350647230844
0.0566890390331567
0.07026562408366
0.0592128376266642
0.0597513296256304
0.0618043815346577
0.0609246880407204
0.058635612302013
0.0617831099747462
0.0645122790345469
0.0633495753677713
0.0603091590605154
0.0606734094571981
0.0594519910053181
0.0616377080434459
0.0627837519485645
0.0621327826670514
0.060157761357785
0.0612576028242484
0.0631617264202085
0.062698229424022
0.061034577180792
0.0610424569451992
0.0570787580799846
0.0703903497980104
0.0559267276478976
0.0647768263997921
0.0603402951571859
0.0650697540363142
0.0586334518356737
0.0662748544345426
0.0598649665017374
0.0651532513070778
0.0608451106440733
0.0635604093032466
0.059595078305701
0.0640641107510475
0.0616200347140633
0.0639080087181377
0.0615162443105443
0.0629876694173928
0.0597371572941098
0.0626198348702895
0.062074168441855
0.0632171548426267
0.0626532767747009
0.064853668594338
0.0649354905771032
0.0645592101186458
0.0619188587800204
0.0511677983838
0.081169689798484
0.0586732550517252
0.0681333738501334
0.0639036440494004
0.0634151455873485
0.0636512285110746
0.0616936345648774
0.0646728783250944
0.0647334654269433
0.0607564113239864
0.063201057102565
0.0639640856089853
0.0667123091711876
0.0632648503185558
0.059754524186853
0.0721055728509114
0.0687587806432781
0.0640349365259803
0.0696702034534571
0.0570509624809189
0.0739514916452417
0.0693290388701566
0.0598025923662393
0.07105706867234
0.0636802455169551
0.0666102307844872
0.0667608808762073
0.0673008878962397
0.0655618285289773
0.0705793296568906
0.0623635584083191
0.0670285668598011
0.0631683258431657
0.0662851542879948
0.0698389160179252
0.0696055729093089
0.0714408910944795
0.0695447233598567
0.065020031276952
0.0726212430619819
0.0641696488143381
0.0700479407726005
0.0656892475508678
0.0695615837932391
0.0688165421671239
0.0769373706264129
0.0683195347026846
0.0721509013373063
0.0739746712109302
0.0694857424681424
0.0698949854369007
0.0762445596010944
0.067347234643098
0.075334177816478
0.0556138864122907
0.0864588080219511
0.0694876416062691
0.0805838009681783
0.0720884150884792
0.0735966130258822
0.0734612345891326
0.0746291662731313
0.0727173240963137
0.0718657872096415
0.0829777143238012
0.0689239939436707
0.0794174275639478
0.0684122247523696
0.082748191006258
0.0743080203705359
0.0805400279469422
0.0767386158259422
0.0790606089173382
0.0722703900414632
0.0832739053310658
0.0657943520495491
0.0817046688920086
0.0881884770033819
0.0764551613739738
0.091104784065717
0.0705007509426544
0.088791567661456
0.0885501072393139
0.078646974914072
0.0862674957470129
0.0790296045175466
0.0847875426161003
0.0708408048815809
0.0898469455015184
0.0916577847881768
0.0773077108861535
0.0896907489200653
0.0802130550972732
0.0885040982406846
0.0950858371379928
0.0828695224622345
0.0904243217408849
0.0889046486409296
0.0848104767901772
0.0753901625042861
0.108953739080922
0.0773881175351693
0.109453927919494
0.0913182482394255
0.101659403394357
0.0969683761873723
0.0981623580813755
0.0929723659866077
0.105294412611604
0.0990358016737989
0.0974420415209247
0.0891015513821796
0.116811646255795
0.104440271985013
0.102860004692965
0.107300634421624
0.0948399051543424
0.103141668776236
0.127418799164308
0.120940118463565
0.11598801910927
0.110096134945727
0.120278002544361
0.121077233735176
0.114146806310349
0.120424612399662
0.120537184869399
0.122893295075018
0.122051964292538
0.125390717614146
0.129217456451247
0.122404933655049
0.131138739311355
0.124625986260202
0.134923255199231
0.132481134473834
0.152024877978138
0.139225081383576
0.141980856815444
0.152548171218228
0.138922667129548
0.147410580721727
0.141577276871874
0.152437119448976
0.148923156719206
0.14882537938631
0.151556359590421
0.157186325162276
0.164200325893109
0.143621512280652
0.172669413860331
0.162600558544909
0.163061402415542
0.142573006268096
0.200261069284444
0.208981631052776
0.169499429985505
0.199331578916611
0.154170028700912
0.2302065216434
0.19938318498464
0.200196815353381
0.206895404522725
0.217586934711425
0.212738865509354
0.228710563618721
0.228979434039528
0.238211777529326
0.239269023940749
0.242657240770438
0.22591498368074
0.296838795542463
0.281848557074836
0.289975805865641
0.273116508992674
0.292895268540264
0.294996713262534
0.305315557238046
0.296178348554703
0.315125799157161
0.294452978289355
0.363152386246379
0.336805557072057
0.343084322274645
0.343286288418448
0.363639255726872
0.358509562909432
0.369146379039385
0.406552871651352
0.370249906545131
0.398801431594709
0.388932726198686
0.409555638313419
0.399688234975775
0.427842276017654
0.442234454302263
0.42463153657829
0.437395643672749
0.434635496223571
0.44713143320846
0.45441820983223
0.461417728794423
0.452735734867816
0.464948478869902
0.483107118885462
0.518118215820461
0.505601671519293
0.460474086973286
0.483682492899625
0.468859502197301
0.491268456761264
0.497087957244715
0.47386829754004
0.504092574572335
0.478934334213761
0.489338418303185
0.487166136988756
0.490481152620475
0.489072675479979
0.486351021724214
0.48613735841083
0.491557695627478
0.513022640935343
0.479584329641826
0.54418017571233
0.487204813119682
0.492070805559824
0.485645409772876
0.489136819129163
0.495090106909886
0.491913160947403
0.4783639407966
0.500691912049706
0.479506065258416
0.481109298808047
0.480733355612887
0.463972533424138
0.491496749542815
0.46919328079157
0.468753783029234
0.46462268981454
0.446924609526827
0.444595949422837
0.43546544118421
0.485325494030266
0.448565429246271
0.442180932058591
0.451502618115982
0.439221242619535
0.434323637034626
0.434263380694314
0.432280518317692
0.429468104692678
0.429348056448609
0.423491680228241
0.426045104854549
0.426236427296183
0.432180029604306
0.426245669888098
0.425587077537018
0.414154466558487
0.421713017748631
0.418728578287684
0.416267218292556
0.408609659846895
0.416881401734447
0.418878129017541
0.415056116429876
0.417936532021771
0.419843307393226
0.411980335312217
0.414208889492293
0.411652737472065
0.414845530081771
0.406136756729045
0.411907866785138
0.406451545048377
0.406299687114673
0.402663572304693
0.403684636022524
0.404559730416308
0.407264812382421
0.404617637208843
0.401458374504746
0.38535061588014
0.395689725621116
0.383664589784998
0.391405510222158
0.414939135542814
0.375900181165779
0.387782330232475
0.380786829307149
0.379586544946478
0.370011092394281
0.378845765766937
0.39505910237038
0.369063489160408
0.370946390928063
0.36078655000912
0.362031474597028
0.364168765066153
0.355568096772835
0.353783067252975
0.347207867395402
0.330638005169967
0.393871591692419
0.320288126504386
0.393981224649731
0.344826343790097
0.334526029812936
0.321008685716315
0.354076814884124
0.328751674423868
0.318402174692184
0.323033978380716
0.317076504735516
0.333769915392087
0.314376512132787
0.31638086122135
0.314535914316134
0.307208452560838
0.317382564023592
0.310061696698418
0.290915385799613
0.321944969739723
0.306336423097435
0.309793336148212
0.32282702616121
0.308616527313358
0.291478400703856
0.282356892585995
0.291048749499764
0.278723543745546
0.298250714697948
0.285076768260989
0.280318810786368
0.284791135565291
0.264880813100882
0.273741522240188
0.266374334545051
0.274030635328389
0.259580993620417
0.274786879262384
0.261399339874992
0.24964136768136
0.279473245168197
0.252313225411036
0.285875325590443
0.261720420996986
0.258229060405836
0.246414970226866
0.275209713524819
0.255674645682979
0.25745154168488
0.253511957754494
0.244311220492145
0.248408160695564
0.250024836782446
0.240275545878016
0.255965125048917
0.234405475347274
0.255983703162912
0.254763839314049
0.264190584242825
0.254362877849665
0.242481198302173
0.24297355466296
0.244566540558705
0.239826274123346
0.245547569817106
0.233571158546121
0.263359939587222
0.235925205362708
0.267109556633221
0.257257223272346
0.253910337089298
0.259723994798885
0.26074290292027
0.256427495390405
0.274528844093994
0.272081117112447
0.28299756154335
0.262308069360733
0.285601540971862
0.283502460530009
0.291570513674363
0.286225693999826
0.291653334895362
0.296905224732951
0.304529170250466
0.310763090597728
0.317892278637758
0.319899194911232
0.326233743736195
0.321595529540515
0.359195887741677
0.33674135273308
0.345398436155666
0.371076213878485
0.374655719531509
0.387277850755911
0.375788407699723
0.389725438458035
0.394635498993666
0.397884354888867
0.397118792734523
0.395123003729111
0.428296581241713
0.415405491449945
0.418764640680124
0.429069352473657
0.422583975239033
0.431471618820274
0.433030150265837
0.451086876618923
0.428105331134731
0.479949080206706
0.451598739701445
0.460593190721776
0.450318302076758
0.452310305253841
0.463796934142743
0.460127109363744
0.461712128333235
0.466004952399998
0.472613132610073
0.476207203642986
0.472602031440149
0.477782347581513
0.48040657413954
0.480543654233424
0.486719897081996
0.490506784624022
0.493604548548679
0.496305818368132
0.495095402846934
0.484900670074903
0.526118922398744
0.529099084953286
0.499416603932546
0.512547396583431
0.519766512218061
0.522211328521094
0.508377062667064
0.52379959334444
0.544445594910878
0.540089331728412
0.542222012796558
0.534891455275771
0.540649241935097
0.551807164959081
0.56246797433149
0.56254669779767
0.552557390845431
0.563364227318827
0.551805931954374
0.613728772540114
0.564649066744571
0.576264439129344
0.573340033353162
0.579001539486924
0.57793866095734
0.582026418386
0.580692145393807
0.58055475838356
0.588105659614393
0.587529528001531
0.586383801441415
0.589018151327881
0.584504190621338
0.576831088632881
0.593762499518537
0.591668359673816
0.579120826901939
0.579398488737023
0.57647579349196
0.58078170707696
0.587146609521166
0.597464097393845
0.575440582951419
0.587163932144812
0.581354812790859
0.590781744772279
0.592978288770128
0.576214535264856
0.584504152159305
0.589983220424162
0.580753177277131
0.582221328231076
0.581419021860688
0.611006178470963
0.591939158504782
0.596835058729937
0.599042244681595
0.59923472210058
0.605057756011435
0.610925707222903
0.612809664920013
0.615036843069575
0.620397286725835
0.626542869083061
0.62288420801919
0.623993262326101
0.620435517301633
0.622272566776361
0.625600943062086
0.617344001481824
0.612899914949915
0.616868000315165
0.616078856016259
0.614924643841969
0.610758953427695
0.59809900273579
0.606329630108275
0.605181004431363
0.590050220180645
0.593598849402777
0.592751378071892
0.582493198817478
0.582086206899661
0.571245182992389
0.572777603882366
0.562352710374429
0.56191938609141
0.551068920891687
0.558511430325458
0.543644462409186
0.549195667491355
0.54889233860679
0.540161484134392
0.540824888278804
0.542962240074856
0.546592993835909
0.541043936838104
0.540587101374261
0.541755598316205
0.541759225053303
0.538370028909236
0.543191467392909
0.540588531257527
0.539427565822095
0.537630714454816
0.533449535617282
0.537346255642611
0.532904605663404
0.540673796495272
0.533657470747237
0.534278886949063
0.532605321452348
0.532994077253328
0.533248898060604
0.530750205256501
0.536335226802943
0.536075510772141
0.53231346980751
0.535653494152288
0.533720213524427
0.528190125694571
0.526163053200751
0.531380108597874
0.531186762816598
0.527092451508516
0.532026228999425
0.533935900168315
0.528253650248686
0.526662788561963
0.529696366264912
0.53316283307959
0.530083117179057
0.528024700564069
0.533127691368389
0.535884386120059
0.525715992487727
0.529399766489297
0.530116404889634
0.529808710799679
0.524360582921628
0.523477538413137
0.529388260303333
0.525190235758263
0.518797136705317
0.517587740947781
0.516735154911322
0.510639755949441
0.507081327898306
0.503677792149625
0.496365699537614
0.490549591200323
0.493707266862539
0.490990709280731
0.486340162601241
0.480017785650159
0.47769348695457
0.472266238343204
0.468783566841938
0.470461067780643
0.462552729318599
0.469386824857565
0.460466913440373
0.462202894523742
0.466600060086451
0.458735341766551
0.45930625459497
0.461103534929638
0.460255789687506
0.456853052999318
0.458049421805095
0.457648416296214
0.453516062969595
0.461079211502817
0.461978132246524
0.464355914407022
0.466320813061129
0.460064209231243
0.468185371389764
0.469229576993342
0.469345267484089
0.471753171166952
0.470422031027433
0.476555025228724
0.479012782623553
0.480505089230236
0.480615437752588
0.487809088002714
0.482239774133585
0.48636354437139
0.488829302072189
0.485110682586076
0.490383067158377
0.491745873089218
0.487171424036581
0.489099577027356
0.484439779468803
0.485125467440497
0.482737497989275
0.481711165292727
0.481337305023699
0.482166612705863
0.476608011396475
0.476915477676395
0.47505371433741
0.476524205762489
0.474942154441633
0.473692013454069
0.471564442303036
0.468224222293814
0.46425803090446
0.467405381547626
0.461212064924505
0.459394154039381
0.456893358416781
0.458062658524833
0.460448197854524
0.455396702725262
0.448821855944684
0.453145756584237
0.450963703963933
0.451290084912487
0.448474178632271
0.447957724980013
0.448355319679996
0.44774533168463
0.445662977371064
0.440865858133049
0.442310021851738
0.444308420453319
0.441248518147269
0.439527626568122
0.43282120457374
0.433198003867725
0.432265673659909
0.433160709327971
0.428635967389878
0.423631927750968
0.421846652272423
0.420745068691468
0.419148459407133
0.411666417510791
0.406980068292662
0.40330243606961
0.402346052801428
0.401696305724985
0.397302673648544
0.398584484564356
0.394390440123573
0.393386167884961
0.391574630608474
0.390498398143532
0.389140616577191
0.392163361873725
0.387055218494257
0.388352824263291
0.385600182934581
0.381894549397971
0.378783100326775
0.376716501907551
0.376280760183444
0.372075516078093
0.368089532734397
0.361502993303085
0.359592904151721
0.355369204458999
0.346094532476578
0.341284200740271
0.341774432084901
0.339185356654124
0.340233327847281
0.344707043530005
0.344504213076322
0.343101487717774
0.352449359215279
0.358424013554162
0.365463646668065
0.377108775498636
0.38987551779893
0.399638229350872
0.414068776742858
0.431978057681314
0.446636115037423
0.4626025694166
0.47448772773044
0.495237556590854
0.511247478651703
0.528376909424474
0.541432494153219
0.561479948775756
0.572954771023555
0.589000486723135
0.606785361121229
0.620783168901344
0.635609126623859
0.644742625035038
0.663095085063115
0.67832996888278
0.685360149540969
0.700498884938419
0.71399621722163
0.717529388798023
0.72775255730966
0.740770018760077
0.745181878840811
0.75678851334595
0.758575650934474
0.7611604956238
0.765791224522913
0.763754197931845
0.769005617377104
0.760680178086199
0.770731199463165
0.77349044496512
0.771213256968169
0.773496743107498
0.772930025154554
0.772866310661624
0.773403686344942
0.773266458287882
0.774717719263879
0.780698633200496
0.782396592499817
0.789999202364431
0.800173351467773
0.80200857374127
0.805265648058111
0.813276518585237
0.812523420720003
0.827356107263387
0.832660519584565
0.842086351305042
0.857477254101488
0.860831678174601
0.874945939827137
0.883721204295994
0.886641592675981
0.909484419546378
0.926311526274917
0.93357746850257
0.932931173356481
0.95114859369488
0.958736187408068
0.975691472161124
0.977107225326042
0.977497049853116
0.980770954784271
0.974804209453519
0.980645076254083
0.978465336291482
0.976953354734762
0.961903274694967
0.964494217292849
0.954187928936789
0.951792182677213
0.956474908101974
0.953511490085424
0.967695657530262
0.967996662340546
0.992250400510952
1.00258485005477
0.999100551692682
1.02062706286698
1.04379551993439
1.03370051134168
1.05923142973606
1.0725207690288
1.07235531066653
1.09380625323467
1.1355116159727
1.13505180949712
1.13996029890148
1.15434588068912
1.17889166705591
1.20785367681609
1.22284613845238
1.22272121672454
1.24437128158465
1.25706890559464
1.29280652886319
1.28772897477095
1.34537372520424
1.36051509898532
1.39056085521578
1.40484460560114
1.41609811679224
1.4445529119563
1.48072463903315
1.46868134869793
1.50145941825101
1.50762028898558
1.51583134632957
1.48526267347601
1.54067639930353
1.57095187037552
1.59893328068998
1.58499691938243
1.58843571669462
1.63890260894334
1.63225418811508
1.60948732449182
1.55793716320363
1.64341824756655
1.6267826972278
1.59194624700096
1.60861726111722
1.56343743387866
1.57399803122162
1.59999684347903
1.58224495403284
1.61997019753904
1.6145685659254
1.6482827632394
1.61608864126684
1.61229133634803
1.61601389452167
1.6194281870091
1.60539373147576
1.59765772738484
1.67957803887335
1.75860071658751
1.77212706424672
1.72626081963278
1.74834844227865
1.81436804806597
1.80893740003147
1.8013135299922
1.92186290665954
1.87763337325159
1.88197026027462
1.98835154230173
1.85424382129364
1.90450209953297
1.92364989833948
1.81243210423485
2.02775270460295
1.85542037869671
2.0482302107482
1.96127978366294
2.01740811677846
1.87679052559833
1.98463506466674
1.84321725202768
2.03703171775175
1.89963113368887
1.97256284931442
1.93536142443242
2.13262536642231
2.07323163056414
2.05658340000928
2.04011412436221
2.09705044196647
1.91095353305344
2.20281820352058
2.00329277625307
2.00686390297089
1.83645092696325
1.83456449093299
1.79986219768665
1.76600183166409
1.74602491805323
1.69161027932143
1.56897600366005
1.56847757715598
1.47325589279879
1.49698122904309
1.44898630971399
1.50946071274502
1.43007971347037
1.40810220740656
1.38323664151141
1.3867950081033
1.38165681454701
1.34629369766685
1.31909976352633
1.35701240519485
1.33622954444743
1.31872189713091
1.27546262866714
1.27731602695123
1.26713165486921
1.27765863339552
1.23976593944291
1.20604590120789
1.1887731650702
1.15848712079253
1.16748334038336
1.14614328874095
1.10205049094866
1.06372131404639
1.03410076728821
1.01407043560708
0.970097296951614
0.925566811254366
0.886764334043461
0.847752506400131
0.824998177340212
0.792352906718424
0.741903526570195
0.71498733279884
0.676972046445779
0.660819290684106
0.635366548167689
0.609033547386251
0.582656649080355
0.565867543847969
0.556223119165626
0.535154342770726
0.516943730522707
0.51270564808027
0.498665919448722
0.486646740614316
0.482439108310445
0.472587068460765
0.46977127755954
0.469127420067005
0.462778959582511
0.457894113095923
0.455748336684253
0.457680801023688
0.459897217687141
0.464154980710676
0.465411377672376
0.464107050621092
0.468593149627887
0.474788039448384
0.470709244470697
0.474579547741171
0.469825242741916
0.470080803468454
0.469130978475771
0.46885778490931
0.459966523930038
0.455319227694512
0.453619774907182
0.44694082527722
0.442749683169723
0.439979967459422
0.438154248681975
0.434015584744131
0.435662989783941
0.433905543347877
0.426480229712833
0.427820932020552
0.432596555367163
0.438179021580396
0.43856852432255
0.441045257298224
0.450941199023856
0.447242172780197
0.450115473253052
0.447729417900901
0.44985462959216
0.454891037056144
0.454599496887648
0.46298026990994
0.462696619918833
0.468660135475033
0.473961973377503
0.472404490020129
0.475932892137561
0.467783753704449
0.474116868408001
0.475260764726488
0.477057958605719
0.48339142967757
0.486498207545284
0.488196460992516
0.481093228349616
0.488033593767762
0.493004219289439
0.494862819233354
0.500090090025049
0.507642843799988
0.516547952724876
0.53319904819135
0.533320516213463
0.561471729714351
0.566171019544721
0.592371450118914
0.596820895916918
0.63043570011989
0.629470422982368
0.646081867042806
0.637760923235805
0.645928045992074
0.635753611882058
0.637922988277178
0.627411316511946
0.628210554460531
0.609655636812556
0.599768319675974
0.588187134340471
0.609000203097056
0.590463301255519
0.580340431930969
0.576476552745199
0.582073524373099
0.591554703678153
0.569248079419185
0.572607929117645
0.573949685328511
0.586082993164967
0.581519520807838
0.585177074771907
0.576781331145585
0.569384180825673
0.572064840808122
0.56110034209142
0.550716510452915
0.555221500522814
0.546377910322156
0.53422933641128
0.552921613581789
0.5333377716391
0.521855563739586
0.522498410903848
0.525490176194363
0.525291505740536
0.521776943939505
0.504686699583019
0.498377403346482
0.507081019646333
0.510981068412276
0.506365974229532
0.508229652760531
0.494649355195943
0.505418500799051
0.501550889642443
0.498982144071947
0.480662885815358
0.482257043397224
0.487994325993076
0.482296470195796
0.493792406325319
0.480995857307927
0.475080206251702
0.482864096917851
0.485627306975
0.483060978534893
0.460186888208738
0.455810909720904
0.459472692749048
0.469637148240022
0.475492688656057
0.468559007072332
0.460494197786237
0.460751046530656
0.465151671127402
0.475104660163596
0.457148580468081
0.461711101293597
0.466948221862812
0.467906893441807
0.450183201427607
0.443722508358214
0.453945190661292
0.473931552412926
0.462753011785822
0.46659343333493
0.468678767166852
0.460182168696212
0.465948344941725
0.480965786191643
0.4618273617745
0.480959533211722
0.468884343098622
0.495311980470593
0.503471267803523
0.486407568630499
0.478009869582758
0.489362473045807
0.495172509704787
0.495779108325497
0.500825142035767
0.501542459141758
0.487775924486862
0.519402436279409
0.505906294502651
0.530864940642546
0.51803610942938
0.529027651970671
0.546277494744118
0.54996905648736
0.552798779049606
0.572404149233424
0.557276154272552
0.621592746843795
0.602295155118092
0.646035949016677
0.628854763173292
0.682254736166877
0.67470557759161
0.735279277712355
0.711437600139084
0.679465875460138
0.655636434731162
0.760021834243752
0.771868160030735
0.818828173088878
0.802908185158791
0.782889698943332
0.808184264856933
0.844383649786708
0.78410115030535
0.761525875277249
0.746144883812782
0.770129014552808
0.765524604592048
0.811084348850744
0.762202242981597
0.768765568394433
0.796862988545717
0.816450109388137
0.749917835241623
0.773696819388297
0.759239407278027
0.81176184457813
0.718139622654386
0.795299385182258
0.740407052106209
0.786004947299257
0.68972774949949
0.736511727744107
0.737504559921552
0.840998573084335
0.703797092282976
0.721544308232884
0.695238762232839
0.771973296487663
0.660457729669983
0.761106039263243
0.698140742024209
0.771522701922054
0.649078961116588
0.704491290851263
0.681997854668695
0.711379184423329
0.706679729483858
0.720250966667751
0.711967104740632
0.749242568975871
0.719815993389087
0.725747821320656
0.68334342142869
0.732682596574007
0.672603995474053
0.770737813726502
0.762804637319947
0.675062317487699
0.698159895704042
0.781177218463276
0.643499187106294
0.761762347118131
0.704376241683906
0.756691414287713
0.689890673436886
0.77870223635096
0.71161427643078
0.780937415448688
0.726803132427281
0.750589155737677
0.705346618741072
0.794497506518529
0.781709866142771
0.753388087003829
0.728199222459009
0.823633226788529
0.745243180243128
0.794340992960016
0.710143859818316
0.784203452928065
0.690113986341197
0.885592035558417
0.803572506438288
1.02962542772505
0.869490259526808
0.876488889210586
0.815572818777738
0.902835727443682
0.888088015154543
0.906966634276155
1.12563321729311
1.00556585555639
0.910919588019766
0.928473130923524
0.773183642113691
1.01783191718587
0.865323509951546
1.10414215170201
0.918522303600887
1.02715457073455
1.01842016406514
1.01603804074592
0.848993550011905
0.877733301782048
0.901359056159165
0.912263622411794
0.718911944234785
0.985460062488768
0.984052749030926
1.08105969201085
0.844991910174836
1.25953800822052
0.806329691977062
0.943071658694241
0.834597386278765
1.0677769096515
0.965802629241485
1.1208465989441
0.813878307919327
0.924097569290081
0.690401377279028
1.1690445474589
0.832518343257917
1.10478427772232
0.826876142473434
1.52437198586536
0.906719743628022
5
0.802721212114004
1.11861040097166
0.891761833150472
0.867168870617443
0.64259910204825
5
0.742328373901353
1.04487952985755
0.606230813443971
1.34587905401614
0.933123032950039
5
0.982584602907009
1.52734433923524
0.801054571979983
5
0.782935314069796
1.50144788903988
0.543131415199445
0.708492387842821
5
5
0.432683251339854
0.8491130072362
1.38462949556542
5
