3596
4000.36533379555
650.420452594757
1
2
2
0.0506780049003523
0.0557951086413888
0.0525388246889827
0.0582483960317921
0.0538172157635157
0.0685009933012989
0.0582278614951288
0.0606143867256
0.0499579683889161
0.0646695325966559
0.0524048764167391
0.0620843162635367
0.0537035469593057
0.0580767316919715
0.0485266641121593
0.0510369443844542
0.04078044989653
0.0535484861551184
0.0506374115545754
0.0614470148920583
0.0473970766450752
0.0545955022451268
0.0430466569511007
0.0608975435174967
0.0445698238912005
0.0612590803889793
0.0421494067245423
0.055965224259681
0.0436611169471149
0.0533011430253699
0.0536070867459789
0.0581856693102258
0.0484280706370885
0.0542387511944696
0.0448235884586101
0.0605510183675176
0.0483481751082924
0.055748667796423
0.0428566969879013
0.0603451257031811
0.0562430585417677
0.0525253705617822
0.0524734925198291
0.05903195447046
0.0440604915123126
0.0560349984671914
0.0519810818302192
0.059661817653774
0.0512832405962242
0.0637728566835359
0.0501201319937227
0.0448366109032006
0.0497394221679841
0.0579266398250719
0.0485446687073905
0.066083275666692
0.0506566519205585
0.0586333795152141
0.0515700317672932
0.0525216933363329
0.0683063756685856
0.0569813587950913
0.0416938532254102
0.0520745396004065
0.0376705232550185
0.0509697754225783
0.040035616560522
0.0472653189119743
0.0450805207705365
0.052371701061137
0.0374217748778024
0.0582329160406238
0.0496580448814428
0.0589391015109478
0.052966507216077
0.0582539528875664
0.0363628879787519
0.0531679304043033
0.0399904070469935
0.0608285332594286
0.0495829846573709
0.0531281034907075
0.045088823200354
0.0539363669136019
0.0374829320760009
0.0667723941501245
0.0410785341856167
0.0573169491592282
0.0456666688495396
0.0585309771817014
0.043541433847892
0.0549398471321753
0.0436400638699078
0.0537079120373829
0.0360042694051202
0.060709954545903
0.0434756965740096
0.0641857315652877
0.0377984832771345
0.0685887586177774
0.0205150261811659
0.0673066507817966
0.0550214834187854
0.0507076927632531
0.0677303548549574
0.0351170140915929
0.0475283485928426
0.0712693511803489
0.0565881228343847
0.05233626158865
0.0484031657172569
0.0497139906556488
0.0409172686766722
0.0559075817039238
0.0308631194664281
0.0621792389155724
0.043975378897193
0.057172233888089
0.0402017588372226
0.0602522755212705
0.0169696315490802
0.0720606302745843
0.0571052407851855
0.0553235435811428
0.0404811271138993
0.0447512018833755
0.0143477696012547
0.0735952147911364
0.046461407819777
0.0539676020098336
0.0247083798839862
0.0513151064457948
0.0299162239849979
0.0501755408222787
0.0616532501250059
0.0523904225013561
0.0393031806022897
0.0370406604735489
0.0489662569148242
0.0674469712212583
0.039934506645303
0.059454997307299
0.0211353025415815
0.0495948322740444
0.054255094164996
0.0525435180000057
0.0315506940857472
0.0625560552045119
0.0354574154050286
0.0526898107588318
0.0375145022871908
0.0430472298048861
0.0461435983865585
0.0505411748137325
-0.00622902671314527
0.108108549293736
0.029765128508784
0.0717615647002852
0.0495801808210367
0.0514883729307831
0.0414349954463226
0.048515050330388
0.051130799358081
0.0394261597424735
0.0427626379371127
0.0380336560474063
0.0443166423991799
0.0498936026142944
0.0362085103254291
0.0516905193374152
0.0586724099956063
0.0450567132563953
0.0344175983806269
0.0979448511532724
0.0405904682927427
0.0528845636735564
0.047481398728585
0.0548839384889896
0.0248172975796571
0.0606749205018565
0.0405056184781772
0.0525361621056802
0.0425023368258777
0.0435421967078437
0.0326491903274435
0.0579544339924298
0.0355853687676096
0.0475801302462485
0.035973758374501
0.0407460900744393
0.0251688786047897
0.0720007810425022
0.0515457050898511
0.0568150714544792
0.0371413496165306
0.0278196576111301
0.059256455352355
0.0586333949082481
0.0476774777293574
0.0531508471047765
0.0384529617949026
0.0487831243475476
0.0330670778257542
0.0547319649031531
0.0245462600213749
0.0266175314963499
0.0590925763122719
0.0593401805341304
0.0407586826213391
0.0472823383116717
0.0399628530623183
0.0270640966845412
0.0774718676672321
0.0580502093352389
0.0490351530393281
0.0399905442446479
0.0356209910467203
0.0621654230175162
0.0473398339106667
0.0507144122498314
0.0416632280290319
0.0467785698908422
0.0384862701935097
0.0489315939636028
0.0418315739777191
0.0485838660978709
0.0399634039330709
0.0509593257471371
0.0376171768929967
0.049274926244107
0.0518636495056108
0.048093768989176
0.0459021892330047
0.0550044806068735
0.0317325653819661
0.0580358201464095
0.0459275250288367
0.0605666398466487
0.0392498704915554
0.0540689140398369
0.0350666760667322
0.0460314718501807
0.043801956311703
0.0621309577706485
0.0271955213940395
0.0442863995046432
0.0578675866142541
0.0536108443200835
0.0495403726469401
0.0344303748784957
0.0600967992066588
0.0493455032775396
0.0498004989035551
0.0410400683646961
0.0540719209652296
0.0369761186277911
0.0413607232684743
0.051705400568593
0.0504374140575997
0.0429948842928183
0.0475025585389928
0.0440783800972868
0.0581896672121875
0.0353758543581852
0.0367215141386981
0.0951168617312039
0.0269988555210473
0.0512866241628971
0.0714425435408714
0.05441258374808
0.062065415881991
0.0339466788187858
0.0181970219755922
0.0984626036015771
0.0658325878349531
0.0503236037405371
0.0469644163432526
0.0642838148097301
0.0395712454812409
0.0573638938929519
0.0280856387726763
0.0623551990596678
0.0450238191970029
0.0909174132800255
0.0550853007562601
0.0381949766282167
0.0698804226113499
0.0601842907149818
0.055793932038842
0.0520357455499718
0.0522892170223075
0.0489310383011406
0.0625399396949109
0.050931131892743
0.0619240016198957
0.0444308493824266
0.0563438214915177
0.0693928672196145
0.0596301642167183
0.048070187368393
0.0600203830286838
0.0604045601699205
0.0468523691021936
0.0621404086586089
0.0451860102132706
0.0664598485874331
0.034682692720426
0.0513659677995844
0.0816491280624517
0.054418238415872
0.0580900195817179
0.0738688548081989
0.0580724617856958
0.0605935534315247
0.0586330410981945
0.0614397502582892
0.0560734568508532
0.0531899692108325
0.0543129911897945
0.0790146349140305
0.0531267841209171
0.0660069286373953
0.0554518744996741
0.0635006034817778
0.0528122887526786
0.0710526432958919
0.0557609016799262
0.0738796063585034
0.0552262401468062
0.0562201596518435
0.0711231302385045
0.0827278813579048
0.043824453468204
0.107417222871724
0.0689793265802851
0.0794952093630339
0.0629256066513414
0.0767164638514234
0.0658521330947077
0.0717731159494904
0.0670066805722349
0.079568278769236
0.0687772435348429
0.0976093729612851
0.072279714677159
0.0676618697973142
0.0648584128133301
0.123364794487768
0.0902642660857223
0.0914262854256233
0.084780549316498
0.0624677207645907
0.10595645784124
0.0777832132928058
0.103164400455173
0.096555075746449
0.0904083262775973
0.0948949187785472
0.0870878577436954
0.108683082416974
0.0920321264696651
0.106749835754303
0.0895973835802771
0.106978654631071
0.0959058307874154
0.116369157772696
0.0902657207534681
0.114531647712935
0.122923139176297
0.121267908324891
0.108149402954619
0.119873786727088
0.0859514395725613
0.139870374106236
0.106311581797615
0.167886660897206
0.110056680598862
0.154886797310876
0.130051878300065
0.145696580964879
0.131452821625927
0.140517075844211
0.137399463673297
0.151306639584132
0.138156925840947
0.152412604148928
0.140930282785525
0.15753188107315
0.148822710827245
0.171315636293743
0.148662840122237
0.171460279834362
0.174041514923983
0.167826093222401
0.161133872231891
0.162670956377446
0.170641827462945
0.182558089368511
0.204640590679829
0.177652785872575
0.189810877673537
0.181066237312873
0.182929678369601
0.185360454591792
0.195284802823998
0.194340995270639
0.188074290022284
0.235181416912538
0.19487485055018
0.2319408333741
0.202874630353532
0.202634553908379
0.218345725552339
0.215586756642127
0.214164951139153
0.249861395572758
0.229889332866347
0.227074530542151
0.253820613558697
0.240692844139863
0.23231209153761
0.250712500864765
0.240319905694209
0.261301802857251
0.245137157937175
0.259976033302697
0.252846721639868
0.275046010223738
0.262522220309652
0.274844302957017
0.27406062925385
0.286223666515335
0.266632454347861
0.312321141655622
0.278848566514075
0.310212617728568
0.290025145769037
0.305645038075644
0.297942845431798
0.305986811071903
0.321772679196949
0.315508364864593
0.316113082827921
0.330759987672033
0.297170279244924
0.335424606801277
0.311321185869508
0.348402595305659
0.318606429373441
0.342625596031707
0.319934203835472
0.366122551822245
0.329226146929606
0.371242191598641
0.359305007441129
0.365040074952938
0.368255868845386
0.379771178106775
0.37053393100856
0.38107619967215
0.383309580111153
0.389220013000444
0.407639525291456
0.443219103001178
0.399744823630335
0.40785294810419
0.389631344761507
0.419372042098276
0.403767089550229
0.45095094416312
0.410397931786147
0.453071320429714
0.430394637927864
0.46008937980216
0.430456552237672
0.461929698221894
0.437132938056514
0.471662422579983
0.436762056297029
0.477293944151316
0.441552023621948
0.510261463040128
0.436011785234294
0.501402703540246
0.467258215912766
0.516287877225653
0.499507237333274
0.536465715036247
0.52274393229458
0.516564768820915
0.492058444432467
0.540194392877419
0.535122536482317
0.563600267590173
0.498976717262443
0.567792057737193
0.530095604431001
0.530659418246623
0.544052066943186
0.591298470774877
0.524565894021545
0.607518966895804
0.525214870603619
0.618238873496279
0.563183933204388
0.592478883336146
0.578447403201416
0.599947289010794
0.548175175526249
0.624993264623737
0.563182300798294
0.624182830714471
0.58804667820478
0.665305856492712
0.579278545531905
0.679900491343146
0.617552671463862
0.65096484399239
0.605824894448254
0.676080879856062
0.609797660932979
0.667851054923336
0.638832916911518
0.65122292654084
0.686095505430682
0.69109875603531
0.712662548307904
0.743775725719245
0.694898570385298
0.768075335300674
0.682282343389314
0.718830541336469
0.666075781376449
0.695328023783507
0.671151330483632
0.751166128784629
0.692739303699616
0.759529902339844
0.704531582756113
0.791078483534229
0.73579823099719
0.814024503445953
0.753992342685775
0.810907683289889
0.759373158701768
0.840945290773033
0.767958251232181
0.799197841804486
0.794482205992492
0.837896127344096
0.745881479345104
0.874511366321771
0.763127034919244
0.859357151998839
0.810032989969027
0.881362625239312
0.809004445669228
0.853227046046996
0.830278819445756
0.879157625100451
0.826281722321096
0.912211803307931
0.803438609660336
0.897672448540992
0.883857513177691
0.920506912477587
0.815338695374568
0.871377443198199
0.804198727729987
0.920607497610906
0.885646893658475
0.923630191908405
0.869711894141697
0.973810194247268
0.894845447995341
0.98316625557948
0.8609784496092
1.02857351353127
0.903831039025201
0.996184534658992
0.906138684638451
1.04407923074681
0.903376360866087
0.979560132155536
0.958062343815142
1.03720440027922
0.943935663106625
1.01178733976548
0.970229509625124
1.01599497477555
1.00046608864538
0.992343475795166
0.935591483718506
1.13319871973636
0.959653666862986
1.05184940214146
0.931665250331443
1.14776730600958
0.999844417027715
1.01042029306274
0.964847754427054
1.03831363755805
0.978386206577504
1.06242918385896
1.06985119405088
1.09576334288908
0.980193307220128
1.19800869624078
1.01756339128914
1.19596637513514
1.0228750378176
1.19934296597483
0.998878414640247
1.2106239170283
1.02774275505968
1.18760831869904
1.06887415235472
1.16420559972094
1.10591959149858
1.21464638393335
1.10972444849478
1.27174533502705
1.07506171680402
1.13238539835503
1.21399012281625
1.28209063232307
1.10902913091386
1.24946526383434
1.12141317972526
1.1818231244437
1.13498055185644
1.17307540033393
1.08524480725084
1.23154970274668
1.10530009455956
1.1909282968149
1.20430459212162
1.23947357007398
1.13382659500674
1.33651307754124
1.16151965352231
1.26921765902569
1.14683978651384
1.21010815219767
1.16934858731434
1.34439476719582
1.27307162817924
1.32804954082291
1.1899992675832
1.25824866491513
1.1606315800939
1.25528209999573
1.19490868588807
1.4476442149664
1.28885723871717
1.34916711265135
1.20159135693853
1.36553293806804
1.24400701778442
1.36569451814204
1.24516801340275
1.33302614084752
1.22737989080917
1.34796001230429
1.32429626668357
1.33726870905778
1.25972408503178
1.39101573683338
1.22783847874844
1.5331931342349
1.22679250911695
1.50046909935178
1.23909160945252
1.47547243694443
1.29387540108775
1.2652218899526
1.36505863360277
1.50583690966978
1.2645027854955
1.45397374879775
1.40289067871462
1.37765422265231
1.29486857131804
1.39937484719573
1.27725807131267
1.34457431515537
1.24677588500981
1.57207306562631
1.39177382797111
1.455375197692
1.22420333791445
1.39930513826833
1.27553424727337
1.49257588123946
1.3000477680513
1.4445612318969
1.26288807132342
1.44779857142374
1.36702711469113
1.61020907951408
1.45483913019735
1.4178155933671
1.37112274957853
1.50271560494787
1.32780738649454
1.49683693771416
1.34364724559903
1.44541031058153
1.28586884341084
1.46707866999633
1.36691316276057
1.71065104119269
1.29478693588911
1.66514626444891
1.41099042048885
1.4829788494861
1.32819312392137
1.4968085730649
1.36494241939819
1.58844918621159
1.40667772875696
1.68689690367449
1.3800002558608
1.42787803805655
1.49861161057062
1.44651787679619
1.33251482642294
1.43619554397305
1.36849088791683
1.50047117850575
1.35978932491036
1.50646273498972
1.33857126463601
1.47483010271168
1.39403822013317
1.46024149452907
1.30279679970553
1.38512333649638
1.43527244879408
1.65307137216863
1.40567535237055
1.58064739447187
1.26557755933897
1.4158663611172
1.38452879543261
1.37162467911742
1.3834339983003
1.61825323302887
1.47152742962701
1.5314021421587
1.3688606800863
1.43259200686868
1.29656633448489
1.59825671450864
1.29877691098821
1.61932787415403
1.46270961331538
1.64858532684558
1.42485378134396
1.45350026233823
1.3696663873622
1.40776594001987
1.36161732028243
1.47856498344467
1.38131235023364
1.50370648913663
1.40915378645453
1.57122332831509
1.46188282894127
1.50048889337369
1.30025761320556
1.49528584780036
1.48324637381858
1.69469864650386
1.31688929784233
1.54366011079657
1.33544206065535
1.55388746870251
1.59806512394106
1.52071112043158
1.44608892156211
1.56093614707518
1.3477956690821
1.50403800276042
1.45160192181953
1.43205643911217
1.39913407170936
1.65150619951678
1.43330154548112
1.49901429528236
1.43938320641412
1.46726500531666
1.36605406538846
1.52325827708589
1.46414530329361
1.42698398377039
1.33970586800942
1.55564775172402
1.38106190945655
1.4968329739289
1.47241652367331
1.50080842479856
1.45238249094265
1.5212060884036
1.38873211596536
1.42214516996763
1.38996125509024
1.40086956625364
1.51258014372446
1.46695241992348
1.42855504819436
1.49725963858364
1.37295323822076
1.43509048170617
1.37408718301543
1.51444724891269
1.33256383294556
1.44938645079608
1.33048050473606
1.47972069254972
1.35471577114176
1.4014963500305
1.3166990011499
1.42514567403866
1.37172630820986
1.43177520471339
1.28811062542983
1.35217721727908
1.327841116966
1.42477709516255
1.2832072688293
1.4922451788661
1.32252959340771
1.41626330151134
1.32691365911499
1.40439903077159
1.27198408845124
1.43737915038513
1.297559544915
1.41995648502476
1.28534670903303
1.4503592862957
1.26356586768936
1.42998251917879
1.30219760678547
1.38211233538309
1.29031219038465
1.41889446619227
1.36462029816975
1.4013946702529
1.26794864656832
1.32514876543597
1.28679101267399
1.28366631322767
1.22714804231893
1.37094215384422
1.2590248293682
1.31031867407483
1.21893107195809
1.33170507532074
1.17684203490626
1.28199660559559
1.21316980662813
1.32999252869532
1.30287592817357
1.27261855423785
1.21301595881833
1.3219559125279
1.2314805679485
1.27360292853462
1.20612221111584
1.28355153313242
1.20043161509529
1.24482274894571
1.20018314327556
1.25499881634663
1.17869365679049
1.2304702139912
1.1354760302879
1.23729844514853
1.19217516910384
1.20730188533775
1.2135238896452
1.23511074293808
1.10114762861449
1.13951797886735
1.06566211160974
1.2259466456662
1.14006712258188
1.20577035679058
1.13853791070562
1.26549434729247
1.13145623873023
1.1461563601996
1.10347480022835
1.15760390305207
1.09570583258016
1.16854353597585
1.10866658696749
1.10647769690668
1.09240832047461
1.18785076505909
1.05228677509973
1.12156471293391
1.10907175460918
1.10058628738817
1.01012489252593
1.07563239204164
1.0327430562862
1.0917988084305
1.0469746049198
1.07450329683345
1.04498179685801
1.07315438378327
1.03665057274106
1.05498516955102
0.999524088508812
1.07425947575258
0.966376572168595
1.01713303714265
1.01209862921972
0.997649624535445
0.964711471821995
1.0567832352511
0.988370842786486
1.01195076963568
0.968591723865145
0.99100519569598
0.983921436884005
0.993493757575671
0.972039282932381
0.961899854184842
0.948228358899191
0.95960095506463
0.945498113023077
0.972001451910949
0.907869743136194
0.910652120781005
0.900062111828897
0.954277520969718
0.890872147931242
0.925025338755974
0.892915628070244
0.919241787598745
0.865446910159386
0.916224547976915
0.880184612754941
0.901639475057906
0.871453037401908
0.879702375322838
0.856897629902348
0.896256016914154
0.870074496613096
0.872711253766281
0.850060003537031
0.855523499529235
0.822667471804547
0.868417116311759
0.831700149095185
0.862892092677859
0.827713185516774
0.835755746337776
0.821228905270426
0.838148786334723
0.780247840682788
0.794605882707855
0.803694715880804
0.810699112195017
0.794581580099895
0.804548142213776
0.797295590012183
0.788302800778111
0.760764271285236
0.793443046083671
0.772197914877807
0.772858712710978
0.760500086253676
0.776234642749722
0.741865131808972
0.781083457586761
0.751469038430202
0.736927280655014
0.734579366584972
0.757348703774769
0.723961756302423
0.740654753281023
0.712652153446749
0.7505178969905
0.719627592212305
0.727839142039952
0.716496166239349
0.723536022856908
0.701643213954129
0.715447409885251
0.683151983716723
0.715383049090648
0.68450494638488
0.707014908391488
0.661131480699397
0.68775281735931
0.680467919570193
0.678697441176513
0.654491403794033
0.677389696763233
0.652398856560137
0.676229645833322
0.646021351858109
0.657500633213748
0.646928197193897
0.674744450892543
0.64193090472782
0.645797768496872
0.635323820850514
0.64473349362288
0.624732599004502
0.644316713688271
0.604342632561846
0.625706692452279
0.601725200924268
0.63658293892043
0.604162874389916
0.618957547271563
0.601607823287147
0.615174926167526
0.592895113334613
0.605964140202522
0.595250716874609
0.595715462908619
0.573176695172741
0.59040906560965
0.58363556999678
0.597513963244349
0.566831099159704
0.585028242681667
0.571627356503802
0.574218786952908
0.555388322927274
0.561368041861508
0.553698248743353
0.568795444448543
0.547184589621442
0.553495053774745
0.538368449851471
0.548554410603487
0.525819289892649
0.546339162754591
0.515691905435539
0.543360570443672
0.5211528670626
0.534673661113595
0.515498348758834
0.524978704195784
0.509236713974658
0.53084971317024
0.512332156949109
0.514469580387004
0.512606115078817
0.510617007989948
0.498426168246823
0.511304936132637
0.497701661725639
0.509009519589942
0.494032005039795
0.513513671079176
0.488098248136797
0.505697628458387
0.479631526130012
0.499954425118552
0.481321180582717
0.495623712888851
0.478979478566063
0.488810275491034
0.480069988733166
0.491428184019802
0.481093273114004
0.486584338512032
0.478235781358047
0.483345491706339
0.471773465529605
0.480101169008457
0.469849051706019
0.497619622813883
0.470713376065206
0.485445869337235
0.464236277613468
0.483140349649531
0.464999892564235
0.486224870093599
0.463889122889767
0.478183892377003
0.467606846652831
0.495201468796477
0.480839174662602
0.49551143657329
0.488595013174596
0.484789864922929
0.474835308544926
0.495674878187435
0.478762235061602
0.50142166693348
0.486050472393672
0.494494243544177
0.485758620471806
0.499639968751081
0.481887223928315
0.51248627775145
0.487492564654907
0.4938667680623
0.494450512700959
0.509031260417251
0.509915774648967
0.507840580555404
0.503187506496536
0.516600992130615
0.508146939350332
0.519979894446417
0.518184036135761
0.534905030055123
0.520335702053226
0.528130961270922
0.523859198683286
0.5435819853296
0.516277622082513
0.529339811813572
0.528112217565812
0.541864110940112
0.533272966050705
0.558833287805256
0.550595932399993
0.575574617897258
0.558582529420197
0.569414533473694
0.552123544743034
0.57080679567074
0.565036051343305
0.591429919028176
0.578321848029398
0.59013508802398
0.582714384984024
0.602300213158667
0.573693141169908
0.594863132641903
0.594043037309139
0.600344073070075
0.587729839994444
0.607365654898315
0.607229363986897
0.621468055802253
0.606644979026233
0.625489269890895
0.602913804901431
0.624287497718048
0.619050930323116
0.614171038596663
0.623907173754226
0.617837490310004
0.605419289265731
0.614529010279314
0.604493026134703
0.615738609808717
0.601916399538048
0.6282312219862
0.601283597238959
0.616238018936951
0.598457195232129
0.609817496742428
0.596129564579758
0.605320677408103
0.601351913881824
0.618397166142564
0.609445925582395
0.620495218001556
0.602922596873891
0.614038084342486
0.603470109328987
0.622095336393455
0.621442923596958
0.609502114991274
0.596066031887983
0.621600847691756
0.602324405755773
0.631074269350769
0.596314796902074
0.625461392365106
0.602389516968709
0.613943278763325
0.604528919754308
0.621963311872332
0.611466998987617
0.625627806487668
0.600379083707753
0.622389019479049
0.60895440029212
0.61967204564248
0.605436659277276
0.625682765178288
0.610145050038542
0.618573833269315
0.605033029590854
0.62229384003559
0.603067931763416
0.618900580436091
0.605453649621377
0.62208091494378
0.596478063517294
0.623931051100241
0.605441570616731
0.599656278988495
0.581659484587536
0.597476690010953
0.585238472684436
0.605650028719846
0.586387193689549
0.59383679695822
0.5761505035046
0.583331569264185
0.568863876339627
0.571108117282446
0.568099246127855
0.569326803805049
0.557763450454766
0.554440368412561
0.553723828529778
0.56202918777628
0.541933854286304
0.554507362466276
0.536341260013932
0.556486567757396
0.535633525462091
0.522687166461031
0.524804368023938
0.524775694955758
0.508003960970122
0.51733811161728
0.499988650451299
0.515844172445726
0.500166016267983
0.506749753019235
0.498187344195482
0.512489594452795
0.482128193062627
0.492474246858558
0.475165451481693
0.48178239906832
0.480307104833673
0.489227694043001
0.466133750272034
0.475793057055026
0.46038354699131
0.467500926326552
0.455427619145502
0.469735603938389
0.450898039301911
0.464757122260609
0.455547684527316
0.452525040726275
0.443497404319267
0.448299158398089
0.437493434021811
0.444468723684852
0.427609841622922
0.439811937765159
0.430500727733926
0.443257055589248
0.433351046231042
0.42969972774093
0.432217938874083
0.432778677914908
0.416251300549153
0.431747552583
0.416882671324275
0.424513491881153
0.414778627124221
0.4141499517549
0.409037098800015
0.419384637018448
0.409940963193412
0.411143935533279
0.40320411230709
0.402191718810601
0.398892480123884
0.408779931086565
0.39354229199869
0.404590548151584
0.393090015247595
0.400122748315727
0.39251538899862
0.397998205142297
0.390460997752923
0.390503032037434
0.386082759634199
0.390458063122843
0.383492170241789
0.38139739771919
0.375316066665533
0.386329344336102
0.379786685918554
0.386485617864688
0.373151717998042
0.379949476422423
0.378606096453595
0.386114464426648
0.374251507978929
0.378095125532873
0.368214812132305
0.376307599973548
0.367681937914435
0.366632823903386
0.3646739044081
0.383101992385293
0.364406391178511
0.367813723612117
0.356913111814738
0.363937875826207
0.358290383254326
0.364849116708805
0.353272795553987
0.365946515782633
0.364156089186827
0.361448417229083
0.353770067298116
0.360875199316947
0.354237962340568
0.354714970290528
0.350280312310549
0.359094065581092
0.346880236810604
0.356772336582328
0.352656264829795
0.352100620407597
0.343400329492725
0.349066239647995
0.33919648260022
0.352474810479761
0.343740809625215
0.33723932803699
0.336550912766925
0.339378049836049
0.330895656939336
0.346538931121525
0.332860334464603
0.344417762101537
0.337644894585961
0.345258361721824
0.333211513449089
0.338843510693792
0.33282711460158
0.33864090988455
0.333980955689785
0.339977688767433
0.330141734618731
0.332918656288841
0.330632949521106
0.339017585535353
0.328823688503308
0.338237320252089
0.328632391467222
0.332388599187189
0.327370511204721
0.329624836480732
0.325658560579614
0.335763550478803
0.328371945582634
0.333454635172849
0.327964381767813
0.330139816401916
0.321412414496192
0.329221714009282
0.325772660223204
0.326195616612695
0.317361102548707
0.332908126292841
0.319493688055418
0.320772982497581
0.323549500807769
0.323217996369146
0.319932889004762
0.323532570984211
0.31532418425757
0.323771407532869
0.318607600684703
0.32699000118942
0.311972550887539
0.319580729091978
0.31263570208915
0.324372701039937
0.312729082106105
0.313571531665998
0.308761220002734
0.316270360221333
0.30660582989824
0.315138064326298
0.308072500593272
0.311921193419436
0.305711064505169
0.316412205462398
0.310568148744098
0.312840557775992
0.302513401695635
0.307083440712199
0.299584146263311
0.305544444119371
0.296229018384177
0.304185094929652
0.292776117817968
0.301369974444546
0.301437272091701
0.30580858906436
0.295684841669729
0.301572129291959
0.292559061491541
0.297345207984828
0.288924948001341
0.29918109207146
0.290710898969639
0.295418526716045
0.291146025344793
0.294034025931143
0.288511067301891
0.294259365867349
0.282492345818767
0.291168357950264
0.282070589795857
0.291171531528216
0.283541637926808
0.282903902844415
0.281977017131983
0.288390409120338
0.280761999257069
0.279181385715009
0.275494071645691
0.286470345975041
0.274278825651584
0.28167071759916
0.273727666249234
0.275652287445586
0.275545625790121
0.278648812676275
0.271309666709273
0.275558072613266
0.267881909875639
0.273363783400648
0.265335591514607
0.272606287194013
0.2642805399681
0.266969910667077
0.261582520384056
0.263732234087169
0.258308962181671
0.268277461895003
0.255670218187324
0.259215635868148
0.251237602807324
0.254634447188362
0.257252101990878
0.255614814729542
0.251214984112097
0.251123735045642
0.24605865535308
0.25615533677292
0.249565865527423
0.254344023854829
0.24283885346157
0.25072394401961
0.243889505152632
0.251071678501289
0.240137817800559
0.244703408156688
0.241545611080497
0.24338711492181
0.240159112210404
0.241212147352223
0.230033985277458
0.241373502757753
0.237261438586152
0.242601202023382
0.233275932461262
0.24223895751292
0.229037828766916
0.2380123294523
0.235709677471023
0.233587945151296
0.231505815980516
0.234924382350065
0.223964029840897
0.236544759832718
0.224573673507957
0.231788035483734
0.222836441342733
0.229734660073258
0.222405258522933
0.228334516602747
0.224013864332524
0.224739652555024
0.215858685840133
0.222753479217891
0.214870490270652
0.224399744910469
0.217398079457435
0.224508863190434
0.217064951801746
0.221246122082409
0.212644117616064
0.21658191520315
0.210054189300438
0.218707122708109
0.210262291443843
0.213931459854014
0.208196093957132
0.215602306093959
0.210264326074083
0.211382638754779
0.207042490082087
0.216060837038899
0.201643921007792
0.208555955358955
0.203911799706337
0.206205135199726
0.205433293191786
0.213798371787082
0.201519701553909
0.204027269771246
0.203020248503002
0.207278840584116
0.20283679798762
0.208538379177363
0.198629958103814
0.20826969219764
0.20360591256039
0.205150746533017
0.198721053840494
0.205912687916226
0.19801335629142
0.200593618703684
0.199569848025698
0.199866972587506
0.194170205186213
0.202067909249255
0.195235038565176
0.197423479378573
0.194101050975388
0.196969072594625
0.1920822939274
0.195820805231338
0.192839782152906
0.199685796307043
0.190225058889819
0.197441837179551
0.192531503242771
0.196085237479804
0.187880405048716
0.19668366550471
0.190227542656556
0.194795504094729
0.187446189890043
0.192483757838019
0.190143037731976
0.193886617846534
0.186982907716048
0.190845085341887
0.18567083811637
0.193186554274406
0.184857340350139
0.192366968983397
0.183662963936181
0.187403652669883
0.183422236306111
0.189481278137476
0.18539468567866
0.191657022450536
0.18568583253761
0.185881874710506
0.18365063577535
0.187456789843135
0.182097456643621
0.187130008713811
0.181584975749212
0.188008886152253
0.181281800253307
0.183810975561198
0.178882170999353
0.18099340979222
0.175780115558423
0.185138931082061
0.174975738416505
0.178796662378214
0.171592414154548
0.181415502012708
0.175336264075658
0.178008582742841
0.17280931240555
0.179316936381024
0.173461289720092
0.179548882010874
0.173056551054128
0.176972971162519
0.175372289857813
0.175420987629624
0.170413460088474
0.174616291680806
0.171857555091463
0.178708345524035
0.170129336102009
0.173101748908307
0.170002500314668
0.175611548539818
0.170805431199729
0.177116459208877
0.16917917244089
0.174882529778804
0.166474380746382
0.168559356582805
0.16575806084839
0.1727857022615
0.168388599271185
0.17032952396345
0.168160936568633
0.169247254173899
0.162260050026503
0.168201977110721
0.164459634562957
0.168971061163972
0.160493136525187
0.169288001525591
0.164741144233914
0.167856414568548
0.159937450258531
0.162991903906856
0.159434697588067
0.165400789962001
0.158562751795147
0.161124547234667
0.158076384503278
0.1629002519488
0.157117519997325
0.16327120798311
0.153964799011995
0.159315360399874
0.156951117399139
0.159473359018224
0.152995620108732
0.159171283712944
0.153312029710238
0.154737272369726
0.15026289479014
0.155496755281929
0.149382190867171
0.155851017967347
0.148887589615217
0.151779137219538
0.146239312250961
0.155104513556951
0.145528924313563
0.15068988858378
0.148215402893742
0.150997895183478
0.144027303889271
0.149983992896928
0.141226367403467
0.14743058203889
0.141736539095625
0.147228172740931
0.139680378750834
0.142069707793138
0.140548788781493
0.144826722649753
0.140244484925698
0.140423418569112
0.135863225415691
0.144403031563936
0.136824692432831
0.141815125265299
0.137900957784596
0.142400123853989
0.134638446150366
0.137885861057137
0.134323298760331
0.141813922869016
0.133724239280617
0.134110487175364
0.131690484854879
0.140473986732514
0.131836529191457
0.138852345007063
0.132204350762908
0.136225259133557
0.128903899318613
0.135628055826147
0.12860618717812
0.132100314172803
0.12609265786216
0.132838050302511
0.129492642592853
0.131679556673206
0.1259096467804
0.128543872955266
0.125758453486049
0.130484368199582
0.123345632926328
0.128071206350593
0.126767622468682
0.12928656047653
0.120417664287325
0.131935498680768
0.124005299482446
0.126577147215521
0.119814284100525
0.125578412184911
0.121607165683078
0.123844632220233
0.119528146993121
0.124009593518299
0.113406523467307
0.123392200504725
0.116503365922142
0.122175022726476
0.117302888223422
0.123426354480861
0.121188244618003
0.122901349679888
0.118136600169653
0.121390688099214
0.116230488291661
0.122989555462086
0.116203343613076
0.12292338555694
0.11471385367615
0.123259799825908
0.114763618873289
0.120103479752475
0.114611284541956
0.12187497236641
0.112277895943099
0.122272576423922
0.113546178634605
0.120293309709609
0.112832883045734
0.117715582840063
0.111089545073699
0.121872671424116
0.115234200839451
0.121019773353707
0.114143432319165
0.119355748641838
0.105109384053723
0.117513094456497
0.109637122271816
0.122195401924464
0.111430696141121
0.116579689122877
0.106467890849994
0.117365911371799
0.100745392626642
0.120018216139885
0.102397157929672
0.120822365431452
0.104867891809672
0.11766687431039
0.103515703625305
0.121179225776282
0.0998992641789162
0.116038344811663
0.102936519350825
0.116068168793479
0.0987592848556098
0.118321696003948
0.0997430985270978
0.123702832120667
0.0988499168038654
0.115871550239754
0.102101866723683
0.118001856871164
0.0926423528997445
0.120164672498947
0.0927544448361934
0.116763401696634
0.0933432387664914
0.117574466533176
0.0891969597630445
0.109553838945696
0.0880982729366052
0.1258145849738
0.0939004144996713
0.123200591805713
0.0949712169136382
0.125162683373081
0.0943368476414752
0.117453601217134
0.0916890065511271
0.114267750285444
0.0944242620320648
0.117492859780158
0.0950890351573274
0.120413462884951
0.0986432053422187
0.109314277786414
0.10253993471476
0.112084066483058
0.108999957367901
0.0925631566450038
0.117682894290401
0.0901727879152022
0.125765973358972
0.0748446328647059
0.130306633740725
0.0810444457121582
0.136673223100157
0.0746147330060456
0.140538500003458
0.083335032568687
0.128104473495426
0.0895790132641927
0.117698214185134
0.100223709917784
0.112581746720753
0.104108264167505
0.101139306622262
0.109830179871536
0.102043846216071
0.104967195540166
0.103841525301366
0.104068672761388
0.110826310028396
0.0965984530641368
0.107911763683782
0.0995854096284679
0.106805044522564
0.10205045146022
0.104899198692804
0.103740807126618
0.107792186003951
0.1026930374724
0.104238534569844
0.101195326560768
0.105066388844654
0.0999889503327751
0.102305217663416
0.105317735614175
0.107215786751664
0.103617992551182
0.104259599580142
0.101795773963523
0.106654794204186
0.104258264382717
0.106612339268726
0.10397375285755
0.103069684946412
0.106229703864694
0.104380259979398
0.103689096584135
0.104684274752018
0.105394765156118
0.10703068375361
0.10623611766359
0.106418186981651
0.102967205865549
0.105824546729561
0.104389614109711
0.108045728298987
0.105174987522499
0.104304767838346
0.102635894197599
0.106023430318486
0.104321725453015
0.104636727968755
0.106020427993245
0.107616611583352
0.102754401758234
0.107492600989078
0.107162730263827
0.106084206974777
0.105596870404649
0.10589397902436
0.104020274716846
0.105979828358582
0.104651632164511
0.104443161364399
0.104022047656032
0.106452612493152
0.103703355436206
0.102697652222334
0.103785927023821
0.106200381947872
0.106194262511111
0.109471130458391
0.107810014989811
0.106552864606214
0.109794500091943
0.1062645555211
0.106902083958818
0.107162839303267
0.109563505134832
0.108540997788157
0.106325970269743
0.107194564676705
0.106485650617249
0.108487131991822
0.11158153624161
0.105092690580115
0.106983708947103
0.110144440452074
0.109078463034798
0.109075959730696
0.108953188793835
0.107072677537248
0.107049639153393
0.106980729312591
0.109168656664644
0.105534552922521
0.106808984314244
0.111641651802876
0.10971461402551
0.109587345748201
0.112221521658082
0.109499161994637
0.108956620589468
0.111761825512166
0.109533302157134
0.107235055001179
0.110109061467468
0.110447905094725
0.111718412714482
0.110940093105545
0.110792187568036
0.111143207014755
0.111709510871608
0.111737997303148
0.113394794375269
0.114328301616126
0.114334176777548
0.112550253330693
0.113191335835451
0.111343168012517
0.114945180713651
0.110651907147448
0.111202138942425
0.110553756154772
0.109870439224833
0.112073858073055
0.112068254356677
0.111365520439836
0.114765128510802
0.115190582554795
0.115093003129124
0.11202222086721
0.113367703517367
0.111221369555542
0.1153586172141
0.112872308100054
0.115795068388567
0.115265917990413
0.115758390972507
0.113496360740015
0.114082237181278
0.116456058602671
0.114854703191
0.113049872658124
0.116734297259339
0.113261975611565
0.114231037393593
0.113556000079274
0.115063333341781
0.11439238277905
0.117392523244683
0.116121113245728
0.119657912855113
0.11916180541315
0.116805587026266
0.115510686388842
0.116595846059341
0.115457623121738
0.118138436836673
0.118499314142245
0.119164748036672
0.116013606491243
0.11824024130094
0.119205754004
0.117385173361945
0.118257332530833
0.120945405698287
0.116039845718058
0.118554603520924
0.118478123421567
0.119049883692519
0.119299040101385
0.11845420455912
0.115907656366701
0.120531219938942
0.116488216723826
0.119315837445179
0.118789739294322
0.119390036587368
0.116227253708526
0.117136594289411
0.11969507059127
0.117416344422308
0.115245156628903
0.117163063051653
0.117367786220208
0.121900943822674
0.117380278855402
0.117525990753214
0.116782552477363
0.117680041667959
0.114984982291243
0.115690734827021
0.117121899701952
0.118524985417104
0.116218509131246
0.115960224521864
0.113014831852721
0.115215197657544
0.112074039577233
0.114954187140448
0.11507518851797
0.117596383445249
0.11495735944778
0.115076014044843
0.113602584167794
0.113654544145979
0.115191809290899
0.114234345603148
0.111171619810148
0.114944817545114
0.112462725701653
0.114605938052792
0.112525637016623
0.11408050591636
0.113348165298776
0.113223178487292
0.113852007046724
0.116574851764052
0.114174578511552
0.112246973367719
0.112489806223005
0.114312346858508
0.109727419272776
0.11430403842324
0.109418880495702
0.114323097264713
0.111384438633692
0.111420388739494
0.110408241424984
0.110885105596709
0.109515331261372
0.112725509785636
0.109816888961908
0.112246633193289
0.110482120311717
0.112155218399603
0.111951533354898
0.110848533460327
0.108653895514136
0.11171549877174
0.110644997008204
0.11149682129024
0.107926856312103
0.110953852496393
0.108176693065777
0.10909048158464
0.110924452509599
0.109767225406251
0.107980001585783
0.109589455374256
0.105894305338709
0.107914626411638
0.107607442848542
0.109898490915872
0.108031717070275
0.11039357378544
0.108050838286577
0.110926903182564
0.106083873611381
0.107662160067594
0.10753862816018
0.107826766843213
0.106376260911292
0.111270752559676
0.107300375998624
0.108864721185268
0.108429746673869
0.108483644952441
0.107496850503487
0.10670551382686
0.10692624868418
0.108831194354288
0.107636451647014
0.107293224427939
0.104823600382936
0.109853567696153
0.105162799655125
0.102853240551544
0.102299475671956
0.107277213659329
0.106293055540594
0.105078031039869
0.10482070203739
0.109486769532918
0.105547494510548
0.103984234262781
0.103345283251711
0.103510042875238
0.105071188633996
0.105547347223115
0.102192467659122
0.103595642615257
0.104567207542258
0.102578394851757
0.0989236395177843
0.103580066724099
0.102448183038673
0.101665046810677
0.101119439516484
0.100905442329081
0.101194001158969
0.104273106219626
0.100244287659119
0.100304280227768
0.0973232916584251
0.0974895382054215
0.0974628451041076
0.097675322641457
0.0969806267050533
0.101122875725406
0.0960553043952633
0.0954068763411191
0.0946673734998093
0.0960531085814228
0.097347618424158
0.100740704348346
0.0966999063965881
0.0990251377529231
0.0923646086674757
0.0940511948617047
0.0922192355865575
0.0960114104717871
0.0921640544745103
0.0966209974811246
0.0926092334849641
0.0932554038469512
0.0894010836419748
0.091308734019448
0.0903742494535995
0.0938846347432154
0.0932633723471965
0.0938458093910156
0.0878015083376388
0.0922156263710717
0.0891458442936679
0.0894080736414202
0.0861416511012313
0.0900477390098651
0.0884546272207307
0.0911425611298602
0.0840250330379386
0.0946580820130135
0.0907334348768685
0.0911768890958283
0.0879709153028011
0.0892900031860433
0.0873025649036743
0.0920356828747378
0.086549741444735
0.0874361177533206
0.0868802218910718
0.0889600966599745
0.0878566763358694
0.0909795888374965
0.0862681479667401
0.0867589602696763
0.0884180962675706
0.0890243470493557
0.0870389324457223
0.0874634313615873
0.0857497024027263
0.0854468059107547
0.0851222095489421
0.0886432520831972
0.086153870295263
0.0881510868524669
0.0838508957323066
0.0872725085065097
0.0852911302694183
0.0838029871320016
0.0843253238956213
0.0854983836187932
0.0840146930092895
0.0828332614122077
0.0854106957942064
0.0830328452116592
0.0830352090281367
0.0847778663882474
0.0809510775595026
0.083749118036056
0.0832302465367568
0.0848875060882126
0.082165236353459
0.0838655085081507
0.0837498746301122
0.0828408102490962
0.082028677496663
0.0830911022208642
0.0828759838465543
0.0812419073496979
0.0789567166456879
0.0804230210359609
0.0822467532479798
0.0746142753238132
0.0879133875166445
0.0833247273959538
0.0813859644401242
0.0814216119376489
0.078522609901281
0.0818052255847001
0.0779260458450031
0.0788994160142646
0.0789308144720867
0.0807907428096439
0.0781904969401862
0.0796701089883836
0.0795088689611966
0.0794038346620168
0.0785442990088979
0.0805985591800867
0.0807413411041063
0.0831332791332993
0.0806135856518927
0.0801923736743832
0.0773069463410585
0.0817771238341077
0.0842365341152244
0.0782172390314409
0.0818613504072714
0.0775559796982805
0.0765049174892745
0.0890177888530632
0.0709943242481484
0.0829820953314269
0.0741469536811254
0.0808449737809549
0.0753593960355303
0.0834083281922568
0.0736953460432715
0.0856905211830228
0.0778481185151824
0.0811946765293666
0.0800702679298924
0.0812055020986274
0.0755019756218777
0.0816101369020641
0.0788312374041845
0.0811641362527257
0.0788865431765893
0.0787116666974245
0.0749711702881175
0.0778767598833086
0.0766753155826478
0.0799564712915277
0.0735530956432577
0.0850263506570735
0.0790194984865709
0.0824632665890603
0.0754404683877955
0.0816456409033934
0.0742078181768225
0.090019337115119
0.076345913964492
0.0775277343473054
0.0772123056403049
0.076829548920425
0.0756191973200279
0.0788253828603428
0.0810238956932984
0.0787007273038084
0.0768039053145871
0.078306326157261
0.0769429304598643
0.0764895372296977
0.0761146843099386
0.0798847641335863
0.0781119519982258
0.0768591593070051
0.080521320897505
0.0778547627879552
0.0744383124945563
0.0773245265969483
0.0760169360260853
0.0930861014511717
0.0748209729613575
0.0854573154609024
0.0763772900782138
0.0828056342143629
0.0742430099735389
0.0796198363083436
0.0723995669176026
0.0794268290588062
0.0750502283224332
0.0818600456261496
0.0771981266907116
0.0823042478094105
0.0775873571264056
0.0789134878767916
0.0734459450794869
0.0811839670821721
0.0773634211357736
0.079974632360743
0.0749543027620835
0.079596786450786
0.0768059726906325
0.0803185253791983
0.0798430394613082
0.0805149252335013
0.0756821177426206
0.0703843403055882
0.101966783362713
0.0717223232802186
0.086193831919588
0.0781102955528224
0.0787048321625165
0.0781358358303044
0.0780807395658037
0.0820394098214498
0.0809283524028233
0.0787149503209287
0.083328369761279
0.079000784540482
0.0809436094077801
0.0790308779591676
0.0741027723708226
0.0899689164691386
0.0840127628263684
0.0804661849060956
0.087508242083108
0.0679299871817624
0.0887045833875656
0.0842231262240674
0.0776327708650813
0.0872294134942935
0.0787474598588362
0.0833371994714307
0.0804136712705816
0.081851762026672
0.0785672168528834
0.0861465646787103
0.0779681831201406
0.0834344707836466
0.0773135119610839
0.0817544789884628
0.0835707385150578
0.0856726692074693
0.0880222045461736
0.0844883610642448
0.0805022025393749
0.0874044989676031
0.0784681756886955
0.0862995690815654
0.0845031494345625
0.0897749295861852
0.0816722414520056
0.0927576198861281
0.0835815422200569
0.087615853340438
0.0915577559850149
0.0857389619323003
0.0870070064991483
0.0930606868544869
0.0837539937968039
0.0936559789047609
0.0665661238835066
0.1061234237442
0.0832957089842599
0.0985355955857514
0.0874424155514045
0.0911689150664202
0.089341358077405
0.0923746550332475
0.0856130959380758
0.0912982428945212
0.100591086745249
0.083110245004751
0.0957197418807596
0.0877534096466745
0.100667947657857
0.0882497699609715
0.0964632529439342
0.0932576901293015
0.0975708303784755
0.087158521719514
0.102412287653207
0.0820458142447571
0.101308692216877
0.107537456129722
0.0916331427944523
0.106343238959463
0.082786275721274
0.109981272706582
0.105379422859089
0.0961625573116207
0.102215651360129
0.096032278641993
0.105912552982094
0.0855401859097843
0.106807157401928
0.109522085272158
0.0922953673178938
0.105923762728789
0.0958883738845921
0.108627444148121
0.114192494346079
0.100747282905748
0.105554355435027
0.107610357662721
0.102547248718903
0.0974341678810513
0.130806341117665
0.0916536465773221
0.128574645287953
0.109537504685475
0.121647409021704
0.112522045491574
0.117226264589333
0.110650676920856
0.127828160403245
0.119598143755611
0.117086322521777
0.109153894595313
0.139616542085139
0.119759510631355
0.1228852333659
0.126107749518446
0.113305839849846
0.128948743187369
0.155212552731724
0.140334205903453
0.136676160943193
0.128112073393474
0.143191032198227
0.142353882143462
0.136841642194558
0.143199020108292
0.141051450105189
0.14409592902501
0.144798570662465
0.148368491894101
0.153978118550152
0.147509841943271
0.153802419122658
0.141764611370863
0.159428299068622
0.157157830180367
0.177657022985031
0.161659881053731
0.167533967202593
0.176398084722328
0.162873849165828
0.173519862527351
0.167986130024092
0.178029614332705
0.175860402118337
0.178917054475227
0.176546967158311
0.181707798921234
0.196733888483263
0.171789991811201
0.207436064969467
0.19143326757437
0.19454948163979
0.165842671264192
0.246361583857758
0.244782289642737
0.202213423820022
0.235251696933066
0.180355017150393
0.275371755579661
0.238674850817486
0.241525575877965
0.244722698593758
0.254973293850723
0.251159339140442
0.268561359502055
0.266719726060702
0.279635174795439
0.286412689988978
0.289235485563787
0.26787440076874
0.338225375508172
0.318678509002784
0.340368191562285
0.31898983642389
0.342141252063656
0.344128610820852
0.358062857293225
0.351057450175172
0.375803814270784
0.341985517950471
0.431603909775316
0.399029484496774
0.405087644429623
0.404141039638249
0.428118817903899
0.422068001133385
0.431899292942069
0.474020323753376
0.43815677141253
0.467579279933593
0.454618297725137
0.482870872764286
0.464920190755978
0.496682728198377
0.515911609310197
0.503954294502922
0.51858104856062
0.513126890445589
0.526446627865202
0.521124478232132
0.540321690255152
0.530635217454599
0.538314546053424
0.545211250462245
0.619130041876027
0.588364218247592
0.541668028950294
0.576276713698556
0.547659768225207
0.579817017470885
0.583835014684288
0.568199919861256
0.600651639053832
0.563288742301044
0.585373550666229
0.578827455971186
0.571937391672544
0.579060364463086
0.590512238468402
0.578058822136635
0.575434253204622
0.583028425469393
0.553082947883679
0.654428572439262
0.582712580081788
0.587508176010943
0.57816792903451
0.589041271980856
0.587237406107786
0.582311118011737
0.557425613430993
0.598269232860581
0.575550868455416
0.570661916474933
0.555873765482902
0.552048600603996
0.579209282118886
0.546651407586654
0.551955567169486
0.540686491492326
0.531738576472969
0.530136138818724
0.507650551876315
0.587692802929787
0.535501680001692
0.510462373092649
0.51803831343011
0.510824094496557
0.518298434222995
0.517260736223057
0.505039160580336
0.498798133070921
0.500303137447394
0.499133152162396
0.493436239639698
0.485241594688676
0.500261732166651
0.493978332186294
0.491927621712662
0.479933597627433
0.485272067123926
0.487622451727361
0.486225680487256
0.474017989271064
0.47918509650182
0.482570391075777
0.484857321109347
0.478006992559647
0.471965099832648
0.473969455028925
0.483890449364071
0.475656171108994
0.48153104712457
0.478302476639264
0.476277310996942
0.469342797420494
0.474767647994176
0.468970010088023
0.469989092070582
0.468752352537861
0.469277398906624
0.452377802490283
0.462669423759586
0.455243349233722
0.460214946791343
0.442925223803395
0.462568472311665
0.494951005206578
0.440352824099266
0.455760896769324
0.44401559726307
0.449689577981017
0.425885498448935
0.440754876176265
0.466255786296123
0.435721360553606
0.432861276694532
0.421658552028448
0.421225591671159
0.429566163824424
0.423683645223593
0.416617095194284
0.403337384425029
0.382730949841683
0.467375945451454
0.362636825650056
0.463813286610809
0.417196714661261
0.403510444994834
0.380562630893077
0.433808272046099
0.395228109131419
0.39151934127728
0.394964821504052
0.38854461296616
0.399949250510736
0.382217286585574
0.382825129179885
0.368890253387555
0.373647435192553
0.389376250141645
0.370490302634762
0.35461783520726
0.395053863168809
0.367200004032044
0.358993018285499
0.396289005530047
0.373037288516996
0.350529026287463
0.345401183092674
0.344927707253552
0.333282701925084
0.370404794389321
0.351091982731572
0.340838497988777
0.34268848281273
0.324130064193356
0.335843619761392
0.327462005588721
0.338514343123321
0.307525620722035
0.337168018216294
0.324774778204037
0.306422057895065
0.335331959754199
0.305642648609019
0.3505949817404
0.31339969157024
0.307908110505693
0.296573072362937
0.338658722842815
0.305759434703243
0.310178309749868
0.309946945955007
0.29182389128761
0.303957456623873
0.305146668187815
0.288330035067265
0.306229195590625
0.286673139853437
0.30990134565079
0.307571943971978
0.317884696323201
0.302754574289769
0.287661453971383
0.292001925272243
0.292984722499821
0.290246996851229
0.290139387575579
0.273786557716286
0.314309721818152
0.275416140028524
0.320224372591898
0.307019946381807
0.298134616490762
0.307473701730293
0.306775686320454
0.297259453546591
0.320966012844819
0.319201479673397
0.334040503475244
0.305989607774999
0.334312339687799
0.325167759752563
0.335312001429061
0.333560802370452
0.343170484424906
0.343665076334318
0.353193503516226
0.358957316996075
0.36495773240205
0.364673506854642
0.379363656739565
0.367533609535593
0.416719119392209
0.39069284481115
0.400453251684911
0.422807087792306
0.42693426303161
0.444870732228219
0.42898324947615
0.446463140728961
0.445147489999773
0.455119382199282
0.461322898426669
0.439078137595921
0.487251680887331
0.478682644712109
0.479383350440209
0.490164066399682
0.491643883375543
0.49422808209646
0.498572734317976
0.520253732704483
0.501375146872957
0.559164579233946
0.505583446362222
0.528966797786332
0.519277860814967
0.520369199789324
0.531227431720108
0.528738913983695
0.534148177649913
0.521376201445137
0.539658702759398
0.544223656926244
0.540003536878409
0.548712193348174
0.546068501260756
0.546525982565026
0.556557269534205
0.558722974129555
0.549918815786673
0.554009611625967
0.577465277306289
0.556248646105182
0.585932626841409
0.603871294280984
0.570327701886224
0.591501185118642
0.58987466288672
0.598527859029085
0.583584350346669
0.596324561583075
0.61663954983155
0.60760579611321
0.614890361612096
0.614002075371157
0.617956072339474
0.619581512459397
0.633295852038164
0.637159623085192
0.63742840900045
0.636507942834289
0.606245995434431
0.696652323203467
0.639281281067671
0.651935519737948
0.65520106016488
0.661504161739522
0.662456246901459
0.657354889583735
0.652058310571396
0.664307789796898
0.666903354885971
0.665685871653591
0.668083461299271
0.666534317304897
0.666030241730583
0.656306352818016
0.672068015677169
0.675975084903625
0.662885204243683
0.671548373581272
0.666886052743567
0.655919260710267
0.664940296373918
0.681201838971512
0.656751264153982
0.663060409330819
0.650771676169462
0.671646435726975
0.677378048755464
0.663658207993519
0.664876328621268
0.668229757756837
0.654777175045521
0.665197915169258
0.653311658399368
0.688354723109587
0.675700313592843
0.676355357780737
0.680124251888551
0.675609389973329
0.685507649160349
0.694454131762966
0.688582268724044
0.697650013234511
0.699849893069575
0.706625686305552
0.70639428288071
0.703838167533805
0.710212432456795
0.706407639352943
0.716851927403318
0.715327459039598
0.704754563737819
0.707380251993369
0.700597523164004
0.710973988167917
0.702423529100352
0.698418792620493
0.690943402733115
0.686999268109125
0.671373380629332
0.681110790902969
0.671326673031556
0.655171681626964
0.669744728170505
0.652140147906031
0.658357365131633
0.653241228798853
0.657203862983958
0.639844966280731
0.643642785789938
0.634052457797856
0.625363054065097
0.62910235344004
0.626754286422164
0.617980428065377
0.625903784095747
0.626637766730721
0.615052692184039
0.620337927514826
0.620196435100997
0.624393434313199
0.623753362170792
0.626698111790764
0.622355146171105
0.615525090233709
0.627601854721308
0.618823320424387
0.620250680721092
0.614041722997801
0.619914465914358
0.61317074585965
0.615749084408478
0.610949953767138
0.617659838802853
0.617311342884844
0.61346323525811
0.619839540981044
0.616283377898757
0.612490856197957
0.614245768663048
0.611824180829184
0.610398965875664
0.610587254059833
0.608727795292899
0.604927490340958
0.603002033943561
0.606653928847189
0.608555223808762
0.610016013356666
0.606363520210455
0.612238674816105
0.610299932120555
0.605672476559826
0.608988430112813
0.609153901035764
0.613724898574392
0.602576438182538
0.604595992708836
0.610433087577017
0.613908646230254
0.606070509855589
0.600493986128995
0.602747160842807
0.603769072553326
0.603913515323583
0.600406125391333
0.594224082677883
0.593707889230669
0.583824990341282
0.579942158269219
0.579886884756435
0.571057813036096
0.575167605225654
0.565443965356992
0.559410479501335
0.5561355118618
0.55185740258551
0.549762546321794
0.545663103735245
0.549348072151456
0.5419653427464
0.53945155446274
0.535480423029183
0.538223212805097
0.533862782147262
0.533727027120335
0.534407378352354
0.529561051393835
0.527911929977669
0.528974183790071
0.533372033800354
0.535966448245005
0.535597516355462
0.530226588091024
0.532556529806365
0.542581421606801
0.537682069355517
0.534524504123232
0.536575599115383
0.540537746088945
0.543422409989516
0.54533685892552
0.548474962535665
0.553282246852216
0.553324232629005
0.553431872063089
0.552440663492849
0.561173140267665
0.559833872986389
0.562187011508228
0.569207513615612
0.565255822400913
0.559278209493207
0.564702456270309
0.562977893476589
0.563641231020724
0.560725212676484
0.562482694893878
0.559362776690925
0.561065291070672
0.553335795873825
0.557530484236959
0.557720668641071
0.554074894927969
0.551106534321834
0.551036940076712
0.551183139324816
0.54966110764185
0.545331751588137
0.544931443477405
0.53931299975876
0.538824165196697
0.537770933147835
0.535239682067839
0.532928273466074
0.531020349979109
0.531528958264605
0.528968283191593
0.524204742276753
0.527041567976267
0.523292483983851
0.521758566457037
0.521602525657754
0.515372386077774
0.514336639922208
0.518913278221513
0.516725754086555
0.515119752993049
0.509548569916781
0.511157389073033
0.512793145818644
0.510981645122447
0.504616965108397
0.499975307357129
0.49630887366393
0.498229933118228
0.495747397319173
0.496324674830877
0.49237774946291
0.483873229389752
0.480976860280718
0.477288517880228
0.473617304845629
0.467241966440839
0.467700818471032
0.46487388540681
0.462088199253839
0.460048686418193
0.453459291368624
0.4558053194198
0.454380389736881
0.453379897538124
0.457552534630688
0.45603315223714
0.448970776236477
0.451582993270858
0.447607747430345
0.445793112520142
0.441668190602624
0.439617384622635
0.438111724733165
0.429727634771172
0.424344477909515
0.42239471123703
0.413048197593845
0.407950585903564
0.402244466220749
0.399270744233439
0.394912668925842
0.396934857518308
0.393456986906345
0.391147897767505
0.394595888685403
0.397085445187832
0.406011610706282
0.411735011463154
0.41953542168452
0.433186957820261
0.444725650317886
0.456787194583133
0.46864136579708
0.485860456897737
0.503096687418247
0.522978423317649
0.539455204536845
0.559511727385679
0.574133714390517
0.593243530813027
0.61142385094344
0.629236682037252
0.647638003601434
0.663252819807842
0.684807363535039
0.695691051990631
0.714267328851529
0.735373740984007
0.746773866620568
0.758204262268331
0.770396954343649
0.780270503237239
0.795757711574436
0.809644463396302
0.817150260332677
0.824668246106103
0.831713796429221
0.846829138351772
0.850149862538994
0.855332319862917
0.849865209026141
0.854803342253474
0.858954142984941
0.868222746097054
0.867781399740452
0.861357534331263
0.869132219635578
0.874066954166429
0.871821772185417
0.863314255824829
0.869142115945376
0.873896000010123
0.869027631528839
0.871015713274055
0.883850749088016
0.887126944865817
0.889194038381521
0.904360364179232
0.906235471244457
0.911698278852885
0.918388445038311
0.92053864736747
0.914633340168283
0.935558127175808
0.944904073320221
0.964193818690003
0.972136549162984
0.986306823844231
0.999583313127792
1.01106815215762
1.0338141449319
1.04429984864953
1.04586718877422
1.05578761289501
1.06701192044709
1.0639919448944
1.08975716826344
1.1004111712485
1.08771291166787
1.09244443684208
1.07984348496903
1.08823038836955
1.10081396371586
1.09029328812446
1.07516984467498
1.08039338127186
1.05997890048852
1.05275304627867
1.05872802602139
1.0904569792724
1.0824353917103
1.10347363768173
1.09727442918024
1.08396670634035
1.11972121477197
1.12875059055324
1.15860419097769
1.1646973636286
1.17846760122579
1.19564946606391
1.19199751383283
1.24042243880917
1.24337484103393
1.26432819515909
1.2972661746298
1.29247903753925
1.29373195784052
1.34650322043985
1.33943266479932
1.3459073026226
1.35778168286104
1.37578019886852
1.43035110428711
1.46110004095946
1.50161543313466
1.5449423175991
1.52793809412988
1.54833164197143
1.54044348033136
1.57865468633449
1.58442327556661
1.61176824087581
1.62863149867442
1.70104376502848
1.65463199552283
1.85406839413182
1.72490409767045
1.69699856465686
1.68918625299828
1.81891987989946
1.76374257284493
1.82913060089813
1.77689303824331
1.75374266118412
1.7179540035631
1.73778901649423
1.70707210425677
1.68996206251862
1.73620176371725
1.80841759796363
1.69762056460899
1.71153273908831
1.67843182283829
1.76806785584584
1.72361249147883
1.80014072259604
1.76329970440799
1.91258129054128
1.71791038330896
1.85727210886219
1.84343968387104
1.90269315287318
1.81563097963225
1.8283920093314
1.8167125978434
1.9491846924633
2.02758690442327
1.92865966881715
1.92243180927768
1.96415346279242
1.94298338536655
1.87502443064826
1.92686425053991
2.20065752704524
1.9447552870872
2.12297901242632
2.05894377123184
2.16780334918852
2.07383534255877
2.10953249620396
1.98798694892186
2.30286600565087
2.07304426991741
2.15923723258298
2.08094135979873
2.33365133360826
2.14628990992631
2.26034063913845
1.99617620058766
2.07263768796734
2.0834982278253
2.13644203952224
2.0535496063181
2.28819740270119
2.02042092037165
2.44001104708138
2.03152280425639
2.14611514594542
1.95016858341625
2.11446234450067
1.96220832319725
1.93612909584827
1.7789879755835
1.83323515785863
1.74341307184148
1.68740436136993
1.72154582819863
1.69295795610956
1.62459405471731
1.60002784845952
1.55820109115037
1.56254787481883
1.54390353952698
1.5344958057476
1.47996808642108
1.50565603937365
1.47046706991897
1.47403580668829
1.4374495021457
1.46362756225546
1.47151867270238
1.46286807900901
1.39809704737227
1.39832411608074
1.38203101939637
1.41962970390766
1.33006237390451
1.33431486010797
1.34244255027818
1.27434114255051
1.24322168992663
1.24263561952645
1.17493503969229
1.16361885529412
1.08020080675777
1.09242201211961
1.02156808559877
1.01093820689939
0.967788478877861
0.921687544952881
0.872165371722297
0.855508256848482
0.822238990926326
0.777825105256696
0.756079746706967
0.729869410197366
0.696737863679293
0.692486273583805
0.656624420009518
0.640613052699753
0.623923752550855
0.614077931949766
0.602915388468169
0.583817921531331
0.583807224154123
0.576443502467096
0.574343775710355
0.567944866520889
0.554655724531989
0.550350260270304
0.556911898697076
0.557449771269104
0.549333791639417
0.564993755511156
0.55525432545745
0.555340502516093
0.567068084088349
0.561869938607727
0.561679408459568
0.574254194681545
0.565979037151802
0.565419075597177
0.55390395668538
0.561380693088973
0.557592126526431
0.546986187589887
0.545707914541801
0.543449040583191
0.536817940473651
0.534756526103017
0.527381337398405
0.530864956492701
0.526065596458213
0.521914730126372
0.52043705777122
0.5248052263096
0.52151525684894
0.526100648070531
0.531443922512913
0.533232105360174
0.53269463071624
0.537255085077379
0.546121936909822
0.549422690229767
0.545151547665638
0.541315684086875
0.546115199213291
0.564036079859919
0.559322367469137
0.567964081991376
0.571366875566633
0.572895214028107
0.575456915667804
0.576317435977881
0.574861666526965
0.574318733762121
0.562986792802748
0.5718118771651
0.576592366521158
0.57460335832725
0.572490579744567
0.584686163751576
0.595457863448762
0.602475116865947
0.604394461212823
0.616606401590792
0.617961754679362
0.63577128443812
0.664133045759163
0.665720221406467
0.67424656072396
0.707686765234207
0.725390120998001
0.750080070638279
0.740325539797499
0.756686015718583
0.753997005141948
0.778669432080289
0.751027925514758
0.755657725426547
0.751289491207213
0.759044935409595
0.74363264199774
0.72137429771367
0.708806223495413
0.71877543312163
0.695115232887448
0.706731961276277
0.71020902983895
0.715377835839713
0.691008511085247
0.695367678449917
0.678492023541415
0.712259407820181
0.692425073670755
0.698488160989115
0.688335257062815
0.697755724611642
0.690224831658846
0.682074008060182
0.676360773847553
0.667548134620293
0.655088416463195
0.649912106041141
0.651320477950167
0.658867014436596
0.637374426378472
0.656313236761076
0.63244031478065
0.630501521773514
0.634085353320169
0.627921953423563
0.627344704303944
0.644126124368383
0.628168967277296
0.621289091814597
0.611274736078856
0.628110402811564
0.612548684879023
0.624403171658403
0.616355312509044
0.626803579904405
0.595520170975546
0.594420118350549
0.599225891348237
0.596738104534288
0.600015197665271
0.590625987708889
0.576921579027394
0.595301262444624
0.592812729754742
0.60017728295202
0.576045748471786
0.571956060706054
0.571687214169521
0.591419830368495
0.587322850783172
0.591006798307372
0.563596138631094
0.597618832669389
0.583493681047202
0.571180782030371
0.56590672966815
0.555373281274571
0.563659228833067
0.57135652331195
0.56379376631666
0.582556410570679
0.584156788916762
0.584896720614352
0.579347826586504
0.584147323521315
0.575189151627695
0.567720759767127
0.576165839859089
0.59375211050103
0.572609119019424
0.619742610968301
0.588449731794579
0.606455550562434
0.603340388345247
0.607731477304974
0.608181369393624
0.603916679313173
0.614200006240727
0.609771568446235
0.621372835296331
0.640242232596143
0.615362641415239
0.663601331381857
0.639471773736744
0.655983831097984
0.669100913971093
0.690227277363811
0.65559469538403
0.680285946450586
0.667732894104064
0.704587362230959
0.700149549559543
0.729052635782575
0.794522426636336
0.753943579536691
0.752653504484027
0.824116468613544
0.78956584750661
0.833066805305269
0.835297510665942
0.874642195860752
0.833568754816532
0.897896895498131
0.917582615946016
0.942648899051962
0.889206009363373
0.935700992477838
0.977300957673885
0.944197165324829
0.931455989417217
0.943084180606572
0.933703992323217
0.995140939849134
0.863058301545237
0.953767467095834
0.895251882039952
0.985020054423537
0.957503313038037
0.964197695595978
0.894283628326842
0.975219721686028
0.937248949958063
0.984577549850862
0.984118902865225
0.946366065215907
0.925776351053497
0.964992245292683
0.899962569099557
0.907428081296334
0.848499335669279
0.932792598951183
0.911185770197163
0.872711524314665
0.840596937822224
0.827101383936555
0.809575017570712
0.960109995907094
0.806222139578659
0.825011894659882
0.80324959015341
0.900423474854215
0.859488492537956
0.910181913122507
0.813901457301991
0.944955659813188
0.861730968848593
0.908606168544429
0.905297329822445
0.888266206988324
0.839510771686362
0.908798959686687
0.914479602754958
0.882533952441179
0.892159376570958
0.902071401420479
0.867677883825516
0.986020575053221
0.854243410886436
0.913668309592601
0.852348882802576
0.827323723752124
0.850114575239172
1.01903713723194
0.930812424772913
0.910774904116297
0.835787164885772
0.918562965928303
0.881565843962802
1.00641083743043
0.909029587435362
0.91681775587212
0.924566041145672
1.03323777168874
0.85128721666177
0.978996757760623
0.898770373189346
0.927962523328464
0.987002173712753
1.2004711338229
0.929046747811477
1.02760439128904
0.936764263133906
1.04425767060204
1.01749259159667
1.35753791589674
0.977050337025209
1.25277652571573
1.07553642527739
1.28524716804929
1.01933036657775
1.25334116696873
1.190430994413
1.20221300736486
1.07509981069163
1.40602346045059
1.1490033886453
1.36083538841563
0.983212521906171
1.08580070971118
1.30201412992625
1.3482530678105
1.09008505425986
1.15991047068888
1.06752516884197
1.28943225711066
1.1480179818887
1.27292549735006
0.739443518675448
1.62737545507493
1.0917548702571
1.33770138089311
0.930284046244824
1.29282275137664
1.22581507544204
1.13482914684019
1.41098356510209
1.21931070003752
1.34889613845881
0.866991647693573
0.939516490501822
5
1.95727857212608
1.10672315404608
1.21043967846916
1.04824439684032
0.779841317945961
1.02908400162416
1.10977550702514
1.24405440003297
1.23440240007023
1.76801852918666
0.718987164247158
1.52168799156201
2.32964537913911
1.49744823656165
0.701166249687927
1.30565751928856
1.0640242521254
1.07118105068919
1.16566036674689
5
0.82423680693654
5
0.999341651197003
1.37715121216664
1.36705470074566
0.775288971236591
0.49994334754078
1.2804563984099
0.797957546347084
5
