3596
4000.36533379555
650.420452594757
1
2
2
0.0490084176379963
0.0546278419328137
0.0495087876005319
0.0575362267591589
0.0525023541483959
0.0607802169424703
0.0532445713193236
0.0532977128875444
0.0478486958759483
0.0631184368532354
0.0545147921437978
0.062123609235202
0.0526132271822939
0.0555638216583834
0.0528441101305855
0.052371580270821
0.0448514826486415
0.0545020998723928
0.0554584429922896
0.0544371414370468
0.0519769334540771
0.0490360887694838
0.0507148187680238
0.0553299686621479
0.0494823870379245
0.0549616540333191
0.0424826515216479
0.0595019310946467
0.050070793186685
0.0529727694590197
0.0507356587786733
0.0560828722310038
0.0477088250337385
0.0491362164346233
0.0491449006412686
0.060156871126169
0.0490443342960095
0.0603299064469107
0.0447877473183055
0.0568093854071258
0.0497533538352028
0.0533672832887282
0.0516859577246792
0.0568248912735716
0.0504203167108527
0.0594756290835039
0.0478133920735384
0.0568647599458461
0.0539972119304221
0.0519382403828937
0.054418577903649
0.0493311289639981
0.0514629604112075
0.0565610465986438
0.0478717938571247
0.0625883988300299
0.0532361052801012
0.0613896072533539
0.0517008960555084
0.0483077234014665
0.0579787803942971
0.0623314006546061
0.0458576915782404
0.0431762448497631
0.0368063371908979
0.0467991971307294
0.0466837563802543
0.0415340922106115
0.0517540105962259
0.0592856383315888
0.0390176967145421
0.0582410298319176
0.0511652713182826
0.0561876097570917
0.0543461105137393
0.0603976376804709
0.0456555877948464
0.049048554840037
0.0389664530321372
0.0554273166509041
0.0590689124803325
0.0586093639214172
0.0519729646625393
0.0490065753570874
0.0414045901761653
0.0594252314628878
0.0430259775842651
0.0473015237641562
0.0461522593800123
0.0565714817551189
0.0461856463374865
0.0511020623010809
0.0448995131088451
0.0468474216352811
0.0419046724411401
0.0498644545351096
0.0323954397394741
0.0538303225456077
0.0384224868407841
0.0582324928326695
0.0327722108846429
0.0628290100675003
0.0542520133156299
0.0541695395223708
0.0688028118927873
0.040991213340582
0.0372762105706643
0.0583326793165185
0.0527880724909128
0.0467939606083195
0.0449635435904031
0.0499976393409585
0.0480797551953059
0.0533009931022448
0.0368609644661312
0.0643928128764915
0.0521854167816631
0.0545112624066797
0.0475294612347788
0.0558342672487787
0.0190712603228663
0.0710891032920771
0.0533910838538976
0.0539577335848011
0.040961605881923
0.0464460459723721
0.0243934294830547
0.0694855204750923
0.0538616939344862
0.0448493359680436
0.037912214952414
0.0567952787648392
0.0283604214431722
0.0539099490873293
0.0639451126212836
0.0508629600554002
0.0403316673444059
0.0405988558518072
0.0499679154566321
0.0676374074311665
0.046062841422799
0.0478688410538112
0.0318718104948094
0.0494353780058082
0.0608883925485452
0.0528293414577258
0.0318452748045118
0.0605398660003126
0.0452584274005385
0.0536964502652014
0.0433035933599294
0.0437923049176536
0.0553031802576974
0.0445300778786964
-0.00358073735721406
0.0847622148078338
0.0437749700650305
0.0768180007126489
0.0622152980919981
0.055245030228606
0.0387355453757081
0.0512857353901295
0.0377896223521789
0.0491321145609621
0.0408986680900885
0.0335285568838687
0.0474758321690849
0.0582545671810292
0.0379362380921547
0.0421511831189427
0.0613324510266093
0.0473230234455608
0.0278685328939715
0.0889540005254046
0.0457942331184248
0.0471332992135883
0.0519277066614593
0.0625465948805473
0.0309323885862844
0.0635070203781221
0.0467691262035539
0.0558430793111138
0.0465543887497006
0.0391434046757646
0.0371276461684348
0.0592775183374123
0.0419335036649232
0.0559034188521783
0.0329025379006849
0.0307461329335281
0.0285028340187737
0.0806778735345151
0.0506188832283251
0.0591316800069494
0.0362233944222996
0.0318439521114949
0.0554236196762015
0.0645574371660637
0.04722187778558
0.0516011367969544
0.0376127172721144
0.051120979476045
0.040281051577211
0.051749557861501
0.0243500137191907
0.0229889420047271
0.059033069623196
0.0574136078009581
0.0407450343899705
0.0492016214357651
0.0372968208118585
0.0348836874631924
0.071550137129104
0.0620066362942405
0.0537696640405699
0.0404339542377256
0.0330347675721114
0.0570592772132999
0.0545702561027333
0.0491609249899678
0.0401320403252984
0.047858330314082
0.0419872502123003
0.0477751511625948
0.0436082138738705
0.0478875560001786
0.0443377222308139
0.0513900391202682
0.0366369931492821
0.0512974450657901
0.0515120896027746
0.0518456160197408
0.0441084615546297
0.0564020976959131
0.0392612587979085
0.0530372104865736
0.0448413119621581
0.0539234497251075
0.041807705014841
0.0468993489892853
0.0365910926651557
0.0479447490490523
0.0370582326722488
0.0514253760213567
0.0288508061684169
0.0487424272499157
0.0518744817212222
0.0538558483091201
0.0484147142805431
0.0409211736489914
0.0553974307939214
0.0525152473449113
0.0441470551377619
0.045321424949146
0.0484596209024962
0.037296752190112
0.0351752943362125
0.0588376355072356
0.0538587460126404
0.0449515074637881
0.0498704334559805
0.0476806177914339
0.0544904936914352
0.02775178616504
0.0361712489766319
0.0802232681791637
0.0391748249647866
0.0499766634220699
0.0684216148020501
0.0542511889608108
0.061303400154058
0.0308884028195409
0.0151359312780925
0.096834670468733
0.0713913812991085
0.0520548903030468
0.0476173831758847
0.0591738788694348
0.038838274633452
0.0562908327440974
0.0344705198121531
0.051770526393785
0.0376416016816241
0.103442197451986
0.0663810093815835
0.0339048957440085
0.0617085100642176
0.0608508974186232
0.051883533927881
0.0519614107082325
0.0494886727176837
0.0518575845668311
0.0588984480527184
0.0514202994171984
0.0634959741488295
0.0446875332535935
0.0572401747052929
0.0685774717396533
0.0526501794550546
0.0519471796919093
0.0608811152980658
0.0559151761716014
0.0461199752652858
0.0527247624222155
0.0501922784791404
0.0625942025550076
0.031609503353043
0.0377701579759937
0.0726639138647303
0.0561527257383173
0.0573887308178204
0.0634396212572128
0.054501661206727
0.059006880126385
0.0529132043361268
0.0510126370773531
0.0563000511993549
0.05057027654081
0.0521380318146969
0.079031035750185
0.0576662863403265
0.06526955242678
0.0570380804646871
0.0610920492915282
0.0509180510343876
0.0609935376288819
0.0511369455853866
0.0647727913823746
0.0558043661961015
0.0520218688828769
0.0754033323492411
0.0748292216034352
0.0384867951188196
0.0852502177797516
0.0645690048322337
0.0712400177781284
0.0582895315313887
0.0716010833475551
0.058449028333856
0.0702818795384671
0.0626692719908189
0.0676193451897745
0.0623525009951239
0.0837453059698547
0.0662592260701395
0.0686083947177122
0.0591224940978906
0.114454751119773
0.0930825126074397
0.0933726381131837
0.0687628042572922
0.0571971345172942
0.103062691661216
0.0772726414057417
0.0925856005879621
0.0917757721653497
0.0888857181420857
0.0863435941276185
0.0836111997280641
0.0978284788798356
0.0893670108188422
0.0949622504569752
0.0868612329417024
0.0937601507339034
0.0897117212313115
0.105286802100211
0.0817312660174165
0.099344009341392
0.120712536526296
0.113213418062958
0.103699234996865
0.101934437888499
0.0821445762119792
0.117306113596162
0.10035083302394
0.153195623336438
0.0986285784306479
0.135296952551414
0.118242462855825
0.135123093169105
0.116906344979181
0.126321419493476
0.128827783740542
0.134024233210837
0.122849580629278
0.138241641888587
0.133669243834942
0.140873293552475
0.131476827592411
0.152537435056933
0.13446234083027
0.147597782392746
0.147123889411025
0.160314024022848
0.148324444069428
0.147469541839667
0.141923064365396
0.186729966434547
0.18536328196872
0.162354927994124
0.167635407870268
0.162501014260097
0.166846860315561
0.172655423526961
0.169803325325634
0.179778054127372
0.171501714421687
0.201199099261659
0.18623651301602
0.195654399523055
0.190350495753501
0.18967030846132
0.205124310604826
0.195141298457937
0.190835508693361
0.225368699895228
0.20942935519834
0.207715347509261
0.243528796864508
0.237992821520877
0.222070494678065
0.231133889933527
0.222428123281084
0.235402858813899
0.229773946042919
0.250006357370373
0.235488466317871
0.259957294836198
0.254640980190393
0.263121408907211
0.253714496289802
0.252284594882217
0.253037244258002
0.290742822486119
0.263628172059842
0.276262249871367
0.27140256339807
0.294653898843412
0.275045427697305
0.275239053198161
0.286938886575131
0.294611725092592
0.281348244285305
0.31128810695389
0.282060116614594
0.301923353658343
0.301521596006163
0.318064073585086
0.309865472125647
0.336533998582102
0.326466203271428
0.349070378208836
0.319155614359029
0.340842187127128
0.328878261509031
0.346856993662457
0.345326469234911
0.361883252186459
0.34789155258088
0.370111676625691
0.353762794434741
0.365157852654606
0.37432500995507
0.387787090712564
0.373720402559691
0.426020500890408
0.370081071340037
0.40409249882992
0.376123059927718
0.408779560279742
0.40664180199704
0.428811813048802
0.401213281944203
0.441896041922604
0.40915992228181
0.444463240139141
0.43242786196854
0.451963471507129
0.426316934932298
0.465546032690374
0.443225317706868
0.452550622811597
0.44401455049385
0.468909298105687
0.440559457789999
0.491805968460045
0.470304068584734
0.502340239642224
0.493539541747865
0.51652841506358
0.502193674960381
0.51190809246436
0.508577239617246
0.519686569191276
0.489760739242058
0.52096265170864
0.504141550628685
0.539188474086041
0.54349209748835
0.552062070342231
0.516536035280785
0.539973878901937
0.54547797831105
0.557377255002131
0.536707923447286
0.594080302934132
0.56818105891805
0.585008576535144
0.581614063958329
0.579097194146766
0.593880627303504
0.632517113604729
0.617668859860608
0.628331973806985
0.600944774111656
0.634809571818151
0.60656474732074
0.639652824686574
0.640351462296191
0.677450049523395
0.636290790888707
0.689895327675797
0.609075975874407
0.681626162734613
0.661759244574437
0.686081445807194
0.631502340465321
0.748279615013359
0.648929520731851
0.736606624815787
0.677738585746452
0.715340414166976
0.682906504262246
0.766889191641944
0.691260458869689
0.74022154803525
0.707049095654621
0.756652729620692
0.676877811381738
0.809915827288243
0.717269078288325
0.773129358010642
0.730845533725785
0.812442357680044
0.770911713815392
0.858423672337863
0.732105864915805
0.798005927967525
0.757612777337151
0.826067677201644
0.779955568241447
0.833336597664063
0.726500308909755
0.895566400255288
0.857233287169923
0.84064336053007
0.803738370704288
0.88873545164755
0.808706000921845
0.906489168496338
0.867890882444359
0.895452874061302
0.839906225870888
0.987881593808683
0.837019119804279
0.868801483090576
0.842519406044068
0.934372780577986
0.831800268677534
0.909997705023124
0.913976743982683
0.952019693983915
0.952921852936117
1.04225598849374
0.935111369950051
0.933217784475568
0.959660988261758
0.978010361915617
0.881724913427122
1.00202484365607
0.937931322754972
1.09405259151693
0.882457888514969
1.01500928912712
0.933755909198475
1.04756964397213
0.990097443278629
1.03747524973937
0.959531728065422
1.08254796198839
1.06148644802358
1.08677009844149
0.935347554619579
1.09326893256763
1.01942169337355
1.15671628942878
1.0065103942599
1.1144224298119
1.01498954457346
1.07756931773016
0.994240844427745
1.08889683902085
1.09115127591151
1.14773052631474
1.01269109962921
1.20117655794051
1.07911068169594
1.18233078151886
1.05751560887257
1.11352261877131
1.06172975812059
1.10438731162262
1.03803919751066
1.19970781860952
1.23022475634148
1.31087761096461
1.15747172848064
1.27001692599807
1.05717598056781
1.23689551646729
1.04485935761613
1.26414788475087
1.12251947823908
1.22376162077716
1.17325671957492
1.2577309572171
1.14093767738373
1.26038357002697
1.13817735058593
1.23673071166713
1.0994623727781
1.32997548458622
1.16239349678773
1.24831808804371
1.15361073703206
1.23803758100613
1.22973849014829
1.24064696389778
1.13184495111156
1.29374099978987
1.18024198984577
1.34382012367808
1.17737844457429
1.20069913397698
1.30535235609148
1.33398481579687
1.38354588400069
1.32224840372271
1.20082339970483
1.47390737173567
1.22606322216878
1.269755143179
1.1156043357445
1.45050827406971
1.25301968889503
1.43245223282161
1.354551571673
1.29095784657835
1.2640888320443
1.47148944422086
1.27476534775517
1.38057896853036
1.20579845364227
1.43791941406545
1.46141422178142
1.40138279668392
1.4185050259698
1.56050276280745
1.38661169766025
1.37556415819378
1.289666590897
1.3593567368347
1.37062914592288
1.36908739882049
1.41287800279701
1.42580645346075
1.29583357592933
1.40098723981533
1.24599880889831
1.54092565661596
1.33358782215059
1.48171277796795
1.32540954747721
1.56399985369323
1.29112775863368
1.47588870563782
1.21272543405639
1.40575123031682
1.43828025355401
1.42747078515624
1.3722067053295
1.55506659618627
1.39035241750586
1.36159865594825
1.36772790740137
1.38727969561066
1.37772695719549
1.4810414784837
1.43744048726231
1.42836478806083
1.40611278470835
1.41466006351369
1.30862166088323
1.3730658465466
1.37291485886446
1.50472597805615
1.31457975382265
1.41022044369712
1.4082571271254
1.49892513276178
1.39487874101223
1.76132280985379
1.37335066266139
1.4368581228898
1.26863207423694
1.58226395207227
1.43196282133887
1.68653104205311
1.40877107217287
1.43262896767402
1.46887588014162
1.57623068522846
1.44713262894432
1.3701564363117
1.36185609744767
1.45737258927541
1.45483889142554
1.51456154978581
1.31957191268796
1.59005928554755
1.41286744299828
1.49449714633602
1.37834134270081
1.63541451991137
1.35536187141217
1.46243569175365
1.48363508052455
1.49066191627797
1.32713976550218
1.37411816020706
1.31102550950027
1.51162873404647
1.29378123969519
1.48386161594135
1.35887946940203
1.53715048827437
1.44357241459011
1.43356761455158
1.55813223013087
1.50985623268462
1.46025426813008
1.63586265510349
1.51358655388908
1.46364404764264
1.34304174360752
1.39222348413543
1.4909699062305
1.46827824731923
1.3901124711788
1.51533698584624
1.46684706045232
1.46544974599682
1.4908044752599
1.70701386950221
1.4014844115282
1.41551140487765
1.42330452706253
1.36557195381373
1.44605921963455
1.67530855072437
1.35633221274723
1.56624309889372
1.33629400541233
1.47287242246265
1.32795633281381
1.55657354115341
1.42791912532503
1.51554632382012
1.41845000039107
1.42705012334046
1.46143012051241
1.36844622078063
1.39563422972504
1.42865992981516
1.43598237486348
1.45480699527705
1.38821914678579
1.39300391505847
1.38867295911633
1.52626126068716
1.51110964411995
1.47562333367935
1.38994907494303
1.58973538878673
1.41346855311912
1.48536206540303
1.26535297584033
1.43634269315094
1.36681257365815
1.46328438735538
1.40530278423828
1.399194548704
1.37477078164336
1.35307540136321
1.35294384396218
1.5318172394143
1.34051252364833
1.47197498964637
1.50148627157833
1.34331698129892
1.450467427664
1.4959809639943
1.28171899672407
1.35939569257641
1.37093168473618
1.52855582475058
1.42020498412856
1.43231511100913
1.34870747704329
1.32872855505086
1.31977826048569
1.40363800188928
1.30081052433813
1.39087967846271
1.42758504031995
1.43949419710608
1.39122701927712
1.32996636048232
1.3290634961034
1.36194071151421
1.25664484907906
1.42590837063017
1.2727112205154
1.35275744795928
1.24946973928338
1.31848749823858
1.27704461531811
1.28516668000703
1.1836743944842
1.27460598645325
1.27543533949552
1.38506276118383
1.26423316996313
1.31581745484957
1.28199980786522
1.43389917724672
1.1903526437986
1.23542550305571
1.3264438117803
1.32373043705833
1.15179178472493
1.31695992529132
1.25762337644751
1.27460340288428
1.23038299164655
1.36473546342685
1.17746086909226
1.34677726268764
1.22022610707636
1.30289124426977
1.24504513960091
1.19472496145313
1.19258571737048
1.29647358507776
1.18453375130907
1.22511274122728
1.20191831649731
1.20165182120335
1.13222650029759
1.19335609889946
1.14257211326304
1.2205340470427
1.11491122449735
1.14119686569615
1.18606226383827
1.18662144017509
1.0795316932809
1.1707981974463
1.10594522101457
1.15711915979288
1.13425571733892
1.20360762126111
1.0638165888133
1.13656823557516
1.10512408681222
1.1701339873866
1.10257392495608
1.10737093939436
1.11227908565203
1.13041346221981
1.13110410514666
1.12418744854555
1.101261654928
1.06946515948727
1.03832448028493
1.10767792948686
1.07188393575111
1.09229197830548
1.06463797121839
1.06762217441834
1.05889992670403
1.03407837285819
1.03052464558014
1.10791535453049
0.997526479008271
1.00490317569589
1.04176540075437
1.00686204897619
0.980047076494845
1.03684741428074
0.978044847109846
1.0376767874075
0.974181392386872
1.01156948069162
0.947196775031444
1.03887159819017
0.960099427575778
0.985781370929869
0.940096307235364
0.992479383382204
0.915184046807358
0.959250617939109
0.952389848594415
0.956631916003536
0.950171218872791
0.946793127465276
0.913655430321163
0.95038619377844
0.928270885857725
0.929719852589673
0.909755984586015
0.929590508354256
0.897704419738412
0.914188090512233
0.856508370653887
0.895518782020952
0.905943456997707
0.921362642614969
0.860792847547544
0.915666585882897
0.890211515170766
0.877170922007785
0.852421861850652
0.858756937258988
0.836654800863485
0.861686815345455
0.859644210999715
0.866640861138864
0.853331007240746
0.860748739133109
0.840651596675155
0.840847766704602
0.816731186076138
0.849720963475684
0.790303622341386
0.80990147852333
0.78053269303053
0.827787484414886
0.779288122711594
0.822182092916829
0.786666958064609
0.792819798448292
0.757514376051785
0.829133578821073
0.776901503344348
0.791601345870507
0.769858072895583
0.776312067542084
0.759714335357286
0.774378645698004
0.758270926054308
0.767616671753091
0.741344672691744
0.749469077661227
0.725965436616602
0.73992204175354
0.711155909868282
0.728665915688102
0.714114878159285
0.734490950411961
0.714690686253159
0.715542994133189
0.702504817754401
0.734629683306162
0.700801261588293
0.697203743054727
0.682844172842206
0.705905124461574
0.69201958949125
0.684017704301184
0.665142706607381
0.676711020760212
0.688208150562886
0.69982697321879
0.662831922427035
0.680727555497267
0.660644718371792
0.664607755818044
0.655900879344962
0.668566807800147
0.634624797509684
0.646651802506248
0.620118742977506
0.643205149423071
0.631135124887991
0.64509032724859
0.613905724472456
0.636511947854687
0.612540929196161
0.654511467942892
0.602537908606078
0.616485489281331
0.603970411043823
0.628167609195752
0.609928621324153
0.613409974854281
0.58053136288674
0.619105000357538
0.570701864347197
0.608101856370764
0.577462095244525
0.591160931333942
0.582479643597281
0.580920136185771
0.573442480182505
0.584060692202164
0.575927057644187
0.580227443760912
0.561074570138992
0.573301415367239
0.551794884067881
0.562557939502986
0.540094135184762
0.551484983559422
0.552338268526828
0.534630917592184
0.540872670946764
0.532156526351603
0.535218408297119
0.55261914579326
0.532358903295696
0.530492057921436
0.520085162803846
0.526221178589354
0.512257991790393
0.530948805991654
0.501466257046551
0.526854688703826
0.499141441832669
0.523043782614702
0.499957546619754
0.517506358470461
0.482317926075538
0.502061867838196
0.48751476397874
0.503933782149253
0.487221570659598
0.496848872163754
0.48256894202587
0.499711270057947
0.477834688833397
0.487340285732789
0.477619448204489
0.487937032295064
0.475442407260786
0.483356002454129
0.474462795450406
0.477888554895671
0.463297080531661
0.477769904414091
0.462966228354229
0.479436218171635
0.462416054508923
0.476300377761327
0.464586082956119
0.478454393406015
0.459606459595221
0.471958622255352
0.454556932535018
0.475140669616867
0.453016396433634
0.471270765694351
0.463477193072972
0.468820823864715
0.455488128696912
0.476980219357909
0.451298438267158
0.473959037756465
0.468681927229367
0.471901605673011
0.458113727916981
0.477682552915797
0.463177723734151
0.474293607789075
0.472511084352186
0.476999157169266
0.465427416797505
0.485470063331592
0.473734060795875
0.484870997125684
0.477781302988815
0.490774966095639
0.482079573045424
0.487315303567464
0.48075915455696
0.512392626332963
0.488458405666608
0.502157368682917
0.484610043346133
0.506801319444794
0.508041503832275
0.506879791745018
0.488692945881267
0.512303604478145
0.503812961071283
0.507939872379066
0.514312840438272
0.522503876520047
0.517538603615272
0.525198291601259
0.516614460430494
0.530090593773021
0.522988042433219
0.553552672567459
0.528191879540438
0.544866555252173
0.527159195381601
0.547642714855719
0.529068160853537
0.564811209646581
0.555864382822922
0.564146616622864
0.557908328769397
0.573339162567507
0.565880672976482
0.589106254893079
0.57978859247093
0.600808410228117
0.575951308771996
0.590511783470375
0.597008974419796
0.600972155741307
0.588200680889556
0.609669721231571
0.586711806479283
0.618276067899197
0.616585865719263
0.623894066674543
0.605484604305002
0.629782812758691
0.609478624459568
0.620312534674601
0.609135642729054
0.623398328625552
0.60236138107797
0.625788519002904
0.602081343127843
0.619665985375913
0.60122284569314
0.628534538165017
0.607592505752783
0.620919189322333
0.615264426526831
0.620199613645292
0.615711125705373
0.624947297202571
0.601649814555302
0.62088755208728
0.608175930238894
0.622437122201624
0.607881797322987
0.634188185989877
0.602377239016338
0.619321878841848
0.600116761059601
0.628143953274252
0.598603785081415
0.615196865749961
0.610002276395374
0.620548206235475
0.615666662495857
0.627870357268228
0.609479223330947
0.616744769607867
0.616975536899645
0.612619674469637
0.608198834687725
0.626301100746349
0.606928598517361
0.630358834049169
0.62273810734258
0.633784595545704
0.623062481086926
0.631397929588414
0.615715518871915
0.629609013947675
0.603602299287837
0.613501193079791
0.604961839471171
0.623584903099257
0.615912727224295
0.60886905476006
0.601139848874591
0.614547573079754
0.600663074122969
0.618984711711891
0.610508248664275
0.618565222611387
0.598403396081936
0.605663799733036
0.600661073359958
0.611687730532942
0.574679550951015
0.603162028323311
0.57375128830683
0.588047649244444
0.567570452304299
0.578550827148527
0.560955484191072
0.571183656799977
0.551780074607499
0.573041717539236
0.562103982195245
0.561530275544155
0.556743065375864
0.546907335620807
0.52828809713595
0.557013259721981
0.526550924156546
0.531465790448931
0.526567783010619
0.529337782721359
0.507866683322712
0.520833472128256
0.500566766355625
0.520536581243402
0.497407478359922
0.504775292007859
0.491947488600256
0.502017576562984
0.483565852059555
0.483589107501995
0.484059736965415
0.482885681511775
0.469274147026372
0.47773928869987
0.46952927543999
0.479075461671446
0.459606655507658
0.466899923755297
0.454583453305184
0.469006789904842
0.451474856173976
0.458136729476588
0.438469079311327
0.464953481767717
0.437327192499898
0.456910911691392
0.441738053507568
0.449298805485036
0.432320555165953
0.438474574272742
0.436557069840364
0.432244829178796
0.4222004321619
0.434783586416903
0.419259340461514
0.427898741598186
0.419757916875743
0.421825400633166
0.415444540223305
0.422558770607969
0.414243447819891
0.417004496268505
0.401287930847294
0.415728333160108
0.403368753677902
0.418317322791189
0.403772058588872
0.408446684035039
0.395656583650792
0.399799670449089
0.393414407218631
0.393578690127818
0.398694571308355
0.404281079597829
0.38705051110467
0.398002278741135
0.380408316393932
0.388951156136533
0.387501277374487
0.390263554254109
0.381229020638425
0.385396376185235
0.375570104911101
0.386125020716064
0.377743469091551
0.380238650369312
0.378183556800223
0.37839981169248
0.371165392884483
0.378285518844989
0.375599478656881
0.378060906671538
0.365165027157007
0.374427090303014
0.35950276272444
0.369190184084763
0.36478444056107
0.373004639515447
0.360491789997783
0.36890005216266
0.35880215191721
0.36699894480135
0.360274695480016
0.360810066253024
0.350652734365871
0.362680997459354
0.353368271101046
0.359771349203812
0.34634094220364
0.353223282901126
0.343087834197064
0.355306043230784
0.349933617224432
0.35572752401663
0.345977005931989
0.35808219839529
0.350880747124148
0.355880412120974
0.34276732591943
0.344388987621792
0.339486752599875
0.350284598271503
0.336947806867844
0.340950291325088
0.336656987716222
0.34800909009432
0.329735258063193
0.341349940820122
0.325357185320183
0.34416911938494
0.329909447240757
0.342153168084471
0.329976954118235
0.335432716426941
0.334362224962592
0.335748018778657
0.327336746795096
0.339094671057143
0.322853169866491
0.338531328961865
0.326830417513223
0.334332693564301
0.32261347815742
0.337256017738186
0.32110421592666
0.333077535033631
0.324986372274761
0.329384722123769
0.324385673175905
0.329238777521385
0.320910695109144
0.324006258980635
0.323990122274677
0.327804784265518
0.316108022065625
0.335718760779841
0.319723745349301
0.332915269217896
0.317533155638828
0.323594185733196
0.312332273726735
0.323898980263002
0.315522367039397
0.319319803444782
0.319190051292662
0.323166228825675
0.317726760722423
0.319169476039311
0.313540272817406
0.316756578798812
0.31369578475601
0.319348984548714
0.310627796772894
0.319907780291048
0.311365004885727
0.31897419007328
0.303460149622512
0.307744911701603
0.308098357915258
0.317720701266956
0.303034937587885
0.314317003285989
0.309215558187164
0.310824450596086
0.307826680924956
0.313006728919055
0.295456084767838
0.307776725107155
0.298940856992133
0.306307851176767
0.298735962786574
0.303706858894296
0.299132958535245
0.301340239813339
0.298379526324729
0.300491765520407
0.289586602793717
0.30117864405345
0.286959024545209
0.293231236920487
0.281726307812652
0.297731171380702
0.293366821985636
0.296935326324336
0.283570452992128
0.291826931710856
0.285939400018749
0.289894975170275
0.282981448239029
0.290558188865619
0.282967861775483
0.292701245311318
0.280369152016302
0.285518236478942
0.277493431921426
0.287223704846337
0.283540453442572
0.280624291541087
0.275245639567541
0.28031507838226
0.275462205111858
0.281154822828299
0.273418384858468
0.27930519975981
0.270317232173082
0.274080574359125
0.268930843084822
0.274008978725105
0.263745801163411
0.267073025304533
0.263863857156167
0.268973962592507
0.256242895955828
0.268136735600095
0.264018987793725
0.261812765189781
0.25551523365089
0.266229063547422
0.257090106633954
0.261968901900843
0.254674244581444
0.261678734646514
0.253468829267685
0.25726538393496
0.249086366583185
0.250092255386258
0.245804788965095
0.252996369567482
0.246547271693786
0.2533159374687
0.238214898428804
0.249457989393532
0.241370875860351
0.246048454539977
0.241419847049507
0.24579786067811
0.238308657657533
0.244347878624458
0.232532379361457
0.237773724415311
0.228030824309184
0.243931499494333
0.233559350487151
0.236639469907859
0.232473367320089
0.241547175325737
0.232580906582962
0.231545975052646
0.22991465543971
0.235347939752249
0.225866594613493
0.232072398254784
0.225080283747022
0.232452856408674
0.22079351669656
0.232752571583914
0.222084815263116
0.222520065330791
0.215261838619763
0.224327842891798
0.219682764845264
0.224408506586358
0.214978963307298
0.222310019707596
0.209825900400654
0.22635528445152
0.216863706992539
0.221195531144569
0.212210271480416
0.221099813544914
0.210690751373916
0.215847248360597
0.206905179175784
0.214578526036009
0.208248343512101
0.215714518969626
0.208522098463153
0.215589792265631
0.210913871169114
0.207901272469292
0.205003155217814
0.209343222885178
0.201353297053317
0.21017198672344
0.202714250073071
0.206188440451626
0.201157731818394
0.207272425521938
0.199701539071781
0.208201460243347
0.196201097689217
0.205055304425954
0.200528892448135
0.204692631176364
0.200331580448884
0.206518359622193
0.195879951216403
0.198584238991419
0.194803914638586
0.205673464197014
0.193361762091206
0.199359731171857
0.192054045472611
0.199680428803963
0.195785753194666
0.202280587602644
0.188373678879792
0.194604075150157
0.191609427766491
0.191767922723172
0.18755964041737
0.195442568401196
0.188225291353885
0.194684228981893
0.188390719274919
0.19247673441169
0.188447703362542
0.192811051445459
0.188653383687131
0.196267081277048
0.188157197489817
0.194037194133145
0.18305472347736
0.188307155395637
0.189093283143564
0.18981794565032
0.179712793186751
0.189827421538546
0.184401635848113
0.187789359579154
0.185227297951766
0.186649503709538
0.178607417078413
0.186378754148964
0.17522961549219
0.186809504862262
0.177982028608448
0.186860726091462
0.178260034297784
0.186179990890551
0.17798083577946
0.183408505617608
0.177303124571188
0.181884758647626
0.179289920066816
0.180559413454411
0.175522281261849
0.177478519622994
0.176520042070506
0.178115241367783
0.172961299250393
0.181277089550677
0.170915796247595
0.178080148936653
0.173260440841301
0.177122634640047
0.172235703776805
0.176483318440287
0.169040117509386
0.175055875529253
0.165906636626255
0.170487095655294
0.169646158875895
0.173877770952736
0.167414231382542
0.176664742984467
0.167224412444721
0.172343872862761
0.166842529336028
0.174095723268911
0.1646598467733
0.171639163944317
0.162859372800921
0.1686015757592
0.162090661339523
0.172440707224748
0.163071112738439
0.172590493065352
0.162319304062535
0.166110459537407
0.16243509430993
0.169612549606487
0.156920886730129
0.166059083819951
0.159485127482672
0.163768012172002
0.156689645649948
0.164257111746646
0.161889317564304
0.160484802200408
0.158157748545962
0.162701145678371
0.153524137930093
0.161385852909864
0.154866942038218
0.157744339612611
0.154381081660262
0.163102770877444
0.151889426911218
0.159724587367564
0.152240295668515
0.156831000308633
0.149733535203517
0.151716699658768
0.150256331903347
0.155282158105443
0.149471836763825
0.154002606543101
0.146324879317828
0.149032784148444
0.146289428582436
0.150649842088994
0.143542003190459
0.148543078480427
0.140260660900267
0.146472899586512
0.142263075553327
0.147614505051798
0.143770087701917
0.145823139780935
0.138763798446015
0.145518974158462
0.142473256491005
0.143671176875632
0.134680176640778
0.141603519982463
0.136879316430447
0.13938681653206
0.133925952416679
0.142875581529762
0.132578037266592
0.136207379796338
0.131165296685688
0.138017696799903
0.133262421792265
0.135215704571381
0.128006438368316
0.137338423367969
0.130877644510218
0.134390886732921
0.128830211018308
0.134501826173994
0.126972972340581
0.131403646874339
0.128996577753951
0.13352474063762
0.125278615525568
0.131940148072404
0.12468128899295
0.129601433063415
0.121738227711423
0.134306092778298
0.123023012086124
0.127251092158298
0.120806015802498
0.127480057508113
0.119524523982098
0.124501988487897
0.11950627612626
0.126504976314266
0.118967317159254
0.125104559148224
0.116530694236794
0.122336013662111
0.11749337117577
0.122509240168647
0.116752703212661
0.121402502404629
0.115237636351774
0.117907725976045
0.111825914315938
0.122146347575477
0.114556091104641
0.119624264125351
0.113526246446279
0.117790494945525
0.107769577133973
0.119038059049201
0.108409483564699
0.116968719827688
0.110348431759443
0.114746983207627
0.107498327788257
0.113438472173112
0.10470146171759
0.110441830756039
0.108717471413463
0.113031740723838
0.107163424750911
0.111063154566605
0.104280689748195
0.111434370090363
0.106482643739603
0.113350127086761
0.102554846127732
0.111985106393724
0.103003046119539
0.112688445506601
0.100576446411594
0.109443853030547
0.104928177635285
0.108658009543928
0.099968473072244
0.108002728350486
0.10258442242256
0.10914487629487
0.0986072107409956
0.112886729324697
0.10318255034319
0.108049187471144
0.100408515773885
0.105272194317699
0.100098916294403
0.109049155746315
0.094203856329962
0.111965464975582
0.0944240213883227
0.104004360347272
0.0956340410982835
0.106327270386374
0.0886497148884941
0.105633144530831
0.0901530419762637
0.107740051507692
0.0892406163437321
0.106923603307083
0.0880235249899815
0.106262814181354
0.0869197174780692
0.0997165298761962
0.0897279230395213
0.109472009799518
0.0853582757631442
0.107861455700284
0.0881334340647808
0.113415532407044
0.0880777445330661
0.108186584058528
0.0921773116523743
0.108933310965273
0.0823003407912312
0.110223692480293
0.083608230256324
0.101006240593796
0.0773134639626974
0.107488431401037
0.0717667336326398
0.104855266802412
0.0764692908517559
0.116329949430495
0.0762190318491274
0.113134924198731
0.0770996342576252
0.112205099790221
0.0792078765099402
0.113015312000989
0.0699765449220185
0.108224331918434
0.0731871883334868
0.108861677935277
0.0782126137935037
0.113923009057528
0.0779235088038518
0.102478309185338
0.0807440607179299
0.108025717436841
0.0917849749384463
0.0870466500494596
0.0974249155364128
0.0864550521515124
0.109623440501317
0.065398934183313
0.114592693791388
0.0699886699996828
0.122558974725822
0.060713155990035
0.123911562826467
0.0628297569455415
0.118112044334002
0.0741322430392667
0.108139071970135
0.0793344056341519
0.099495944070568
0.0862647596757009
0.0893918721665532
0.0946464295081402
0.088199803196793
0.0945677249128016
0.0910825129530054
0.0912579469639772
0.0949377338292154
0.0851130262375374
0.0947411527078558
0.0868116749920328
0.097313891165248
0.0845304630009011
0.0926923815796882
0.0878900722433982
0.0907786708600221
0.0893235408759166
0.0905078999746536
0.0885612725434893
0.0892925379158483
0.0855667403328457
0.0907603880996215
0.0890602602935944
0.0915403027546321
0.0858965290472993
0.0905590380520736
0.0887057528498493
0.0888448100109336
0.0878882334865398
0.0895872317526011
0.0883206723158624
0.0881989221933094
0.0888816496212647
0.0883204512275294
0.0895430117434187
0.0897211947680208
0.0871271937217687
0.0906233789168115
0.0880519420166114
0.0902782144680122
0.0895618231537446
0.0895872574876404
0.091090972163531
0.0931728390036218
0.0891948352040781
0.0881734382948043
0.0893385752426864
0.0906824432117611
0.0895773521539701
0.090554015825287
0.0903832195673765
0.0903384302612844
0.0871724768195452
0.0895681421599693
0.0897632152543394
0.0906774588379811
0.0882804289546146
0.0900102260994507
0.0899454124363205
0.0888477541708925
0.0884494647502813
0.088348773148887
0.0878018950781058
0.0877262620950022
0.0882099412573439
0.0895521497833881
0.0890465210138574
0.0873327723384342
0.090595517344306
0.0902267174955156
0.0921796180297069
0.0909445428478999
0.0906871752511302
0.0923346548561843
0.0903566193263349
0.0891246545302627
0.0922800608145814
0.0909231139940839
0.0911421665848617
0.0902153972954159
0.0897255914801193
0.0918051281807654
0.0909663393410488
0.0877272226909595
0.0896021910379804
0.089294608386508
0.0899052445165129
0.0901306245091194
0.0918935844023634
0.091446044166484
0.0901597535388284
0.0898677034851391
0.0897886443539804
0.0882521441394511
0.0883396864345116
0.0912477672001465
0.0922097908220189
0.0899832843483781
0.0922849025983416
0.0896724661218649
0.0944010007720572
0.0913843975406219
0.0925465020627504
0.0927542615726374
0.0909464316555889
0.0898056097073501
0.0934260076043559
0.092505126016519
0.0913741855406268
0.0920665530382502
0.0931499128487268
0.0931313247379141
0.0941796934104408
0.0940529608087904
0.0944290938605489
0.0926148664413937
0.0949374202167901
0.092609035160626
0.0948921537268145
0.0927834795281821
0.0934932040503222
0.0934340564596964
0.0959176654439106
0.0941952461484115
0.093030411164288
0.092922774812034
0.0961915398876678
0.0969866870435563
0.0964414475861501
0.0906308870892486
0.0950780226505475
0.0954256218140381
0.0984397590135051
0.0955816360280844
0.0964880688665604
0.0927872780328298
0.0936061122913006
0.0950575151331449
0.0956361357411012
0.095371991317713
0.0954501668917954
0.0944408385390906
0.0969914053243265
0.0958698792667304
0.0976240832969704
0.0949227002266449
0.0956207173543405
0.0954660165401943
0.100067424919594
0.0957856501261124
0.0975767196190618
0.0972204633755494
0.0964688442893938
0.0956230549419552
0.0990726253477001
0.0946533319852504
0.0983287906733963
0.0995482992911615
0.101111716742073
0.0985577220598517
0.0991290805138701
0.0982308221586361
0.100289390837933
0.0988837850354316
0.101833718850621
0.0963745254903172
0.099441211884564
0.0991271174494232
0.0988892945999629
0.0991004150080734
0.0973253071227142
0.0973434161117292
0.099462160466647
0.0967120657465345
0.100296133171797
0.098106281007772
0.100860630708167
0.098478037501347
0.0988842343300402
0.0954800441242843
0.0974964805864495
0.0967198246289699
0.0977987439250977
0.097820864412292
0.100611256474707
0.0966327543892547
0.0985251203154325
0.0949973454247045
0.0948713996874778
0.0933631415430496
0.0990524490183565
0.0954983442578084
0.0968554715972915
0.0953208993677801
0.0944133201521971
0.0908101702701356
0.0935465948174146
0.092800709549035
0.0967118562789405
0.0945592729898862
0.0969522224609292
0.0930898846292781
0.0947695165278187
0.0941268578507837
0.0920108596189952
0.0915347704648347
0.094941355794186
0.0928874228226477
0.0941704402227071
0.0924797489419081
0.0950345581439531
0.0916836611628772
0.093541067658203
0.091716736995609
0.0931687931907303
0.0958710326129101
0.0948888518029357
0.0897111498323944
0.0925309043334353
0.0938259001601759
0.0930690168620683
0.0907555053158689
0.0927618546533067
0.0906909802092678
0.0949707314153107
0.0928753278404143
0.0935057178517367
0.0917817094261702
0.0934587396423904
0.0904834375902019
0.0933318071970139
0.0897090092121836
0.0910453197035738
0.0900393953984715
0.090805379848842
0.0891022123296086
0.0925336666932632
0.08811881502657
0.0899776902059486
0.0897045449143616
0.0916047875495175
0.0883382452112419
0.0902341380394302
0.088262661958433
0.0898812126853698
0.0890089207539133
0.088825553680639
0.0891522694083046
0.0928548589747064
0.0909733188573454
0.0917944088531476
0.0893449530318207
0.0901127127698075
0.0894579631671665
0.0906263874234734
0.0867756233223498
0.0903251408396687
0.0890564162972351
0.0894961784450281
0.0888978056297959
0.0865928671440037
0.0843893211359506
0.091296231861586
0.0875436882644882
0.0911546911185901
0.0882169997433163
0.0894447346233305
0.090010825335425
0.0896763377054566
0.0865907413872819
0.0882217512809787
0.0871997553046194
0.0887022904710777
0.0861915702444972
0.0903236049624913
0.0854520385472089
0.0873041278958577
0.085964946639215
0.0875902348581776
0.0867680265426033
0.0857306436904795
0.0822946800448346
0.0882671166880801
0.0844596482586214
0.0854277117291119
0.0856962956963183
0.0843525636133025
0.0883302672068149
0.0870978043129698
0.0838170381281852
0.0859941132507368
0.0861917450448488
0.0855799600725587
0.0833620944732467
0.0851751584020546
0.081740836051811
0.082675453710378
0.0821191379255378
0.0831855122053471
0.0831967664817526
0.0868058836199105
0.0813102860311497
0.0824957455234637
0.0794630218185464
0.0801304296383081
0.0799751474631373
0.0813273404666162
0.079858457870037
0.0823729979277905
0.0788325412555218
0.0798196427097641
0.0785690315259492
0.0770468020261701
0.079889520522297
0.0811958706949444
0.0775958459131625
0.0808496344557594
0.0735895475281051
0.0796628473284849
0.0737409648893998
0.0784110281611624
0.0766571002754428
0.0786111349402136
0.0749481929529508
0.0768456721903906
0.0741246719311213
0.0771183424338819
0.0729658937769343
0.0761575244065201
0.0737089277528641
0.0772780406477384
0.0719949389507386
0.074105676940233
0.0722852558819481
0.0753613244150114
0.0730886310573593
0.0733749085843363
0.0715235050124627
0.0728912018399996
0.066213807317952
0.078817742476408
0.0726634558043184
0.0735094233703601
0.0723850920803606
0.0760634866877869
0.0712042881779576
0.0732311921810947
0.0690976713027388
0.0718877975204443
0.0708388042232517
0.0740868549701002
0.0703266037000905
0.0731595929731115
0.0709484956220447
0.0718669389483644
0.0705146798648818
0.0727451964991766
0.0692852196942425
0.0687142840613296
0.0695682283970511
0.0714992087699043
0.0694167973061773
0.0716087721003244
0.0692121182938367
0.0722196496350289
0.0678291631177043
0.0737158816788816
0.0707457268784022
0.0707989084057113
0.0679668032511501
0.0680342773784089
0.0682798366229719
0.0679648049613285
0.0679476264887279
0.0694566445202852
0.0684815466886652
0.0700160421496804
0.0659251927935886
0.0684820237038544
0.0671496057627183
0.0691991847055849
0.0672947711369311
0.0691153549706694
0.0668774870209002
0.0655199577999749
0.0671626175623822
0.0688868013927568
0.0651773102942227
0.0649062520241842
0.0646718746679434
0.0678815044964017
0.0686839952212836
0.0619492409205599
0.0784387613866844
0.0696358627526797
0.0674404842891003
0.0661780352655888
0.0645322309604176
0.06748572753111
0.0656650995705504
0.0647782193413291
0.063344776916827
0.0673683900894683
0.0655193834462218
0.065681833430986
0.0643685896947423
0.0658116602625381
0.0620296223415133
0.064371144041573
0.0670231886388161
0.0663287222744945
0.0653995066190327
0.0664360594941436
0.0618509219035379
0.0667124292361795
0.0688766392638523
0.0628394131639985
0.0675685647863705
0.0601403272108073
0.0648031883460852
0.076388121113275
0.0589374440172155
0.0714168815460682
0.0600348352942733
0.0682341065804879
0.0625645242447427
0.0709123723373827
0.0594742672371157
0.0725029389930507
0.0621739456257197
0.0701669845272135
0.0648624908144202
0.0666169846721596
0.0630259738426282
0.068117028745996
0.0648742776227532
0.0654083127120463
0.0652125300682556
0.0658572955995768
0.0633987876657162
0.0673397915107637
0.0626505410646787
0.0691312690210831
0.060445024542462
0.0727620716076262
0.0616357937024144
0.0683497481620436
0.0632353505287299
0.0680780727349212
0.0580035401611304
0.0797285788809276
0.064860823268501
0.0660498023412878
0.0643837361059758
0.0678213560133309
0.0641351120617775
0.0655641955538197
0.0672922278974245
0.0675597214160144
0.0648749322275774
0.0658967708580168
0.0642643071667431
0.065609721457197
0.0632789221092614
0.0661890497566434
0.0652659952532935
0.0633493271552434
0.0672394145756342
0.0655394298798724
0.0647634743251671
0.0633316011000827
0.0592306328225895
0.0798915502272981
0.0604737221048502
0.0745483415512253
0.0637073538271522
0.071770815309357
0.0621782140687341
0.0696635965379224
0.0609256162619421
0.0709254709494576
0.0635634936929223
0.0693738927487979
0.0633639360044306
0.0701981293318599
0.0648695363824364
0.0697804920108046
0.0603393161007562
0.0672223218662559
0.0616697262783474
0.0690338584557479
0.0631878831765023
0.0691573142124358
0.0627326279653335
0.0684802742058905
0.06619449373318
0.0698617177599851
0.0631909445580239
0.0602173037619308
0.0919428634138
0.0596605154140001
0.076793417104851
0.0665866566538606
0.0669808030715389
0.0660720639960802
0.0659332496775328
0.0706707070725745
0.0725288312290909
0.067656461105593
0.0702929698853917
0.0670290165462619
0.0672898290566839
0.0670539019929479
0.0610769480940141
0.0776212055913628
0.0730136990550183
0.0665385782150011
0.0743735209391787
0.0574631496786742
0.0802478210640642
0.0720062906268451
0.0652977370928645
0.0757481964570837
0.0674379229184907
0.0718297037498023
0.0700909523120561
0.0720194032402254
0.0698519298251106
0.0756195075205441
0.06812109481362
0.0747731454825069
0.0665009759918194
0.0721235928446086
0.0717434036197467
0.0745542730193008
0.0778706017798069
0.073616838588831
0.0704171790503525
0.0789476119886893
0.068601034541174
0.0764068637377443
0.0731955277827086
0.0798026202081096
0.0711658129830049
0.0848544337950957
0.0715138447137869
0.0757416662878338
0.0823844987423862
0.0734102245307582
0.0721490800595271
0.0814995432254845
0.0737926411022569
0.0820058334646452
0.0525535641034516
0.102713722472724
0.0698999729504369
0.0906914779723844
0.0742085693699177
0.080960525526438
0.0750320575653981
0.0826648206218102
0.0756099430619372
0.0828602952830582
0.0872877112283941
0.0725755788339718
0.0844773195157242
0.0757865763154174
0.0898277984529182
0.0773917535381634
0.0852470601470449
0.080171121881335
0.0867824690721553
0.0779990190365809
0.0932184490636304
0.0704176084090978
0.0934029948411217
0.095383741399579
0.0790049234977878
0.0974529768150771
0.0690518347835116
0.101601320611783
0.0949681484546772
0.0867776063932092
0.0905512503455658
0.0829692671757345
0.0926889231981556
0.0726671558941886
0.0971995859802119
0.099913699953569
0.0815002507274963
0.0963347986213306
0.0833322320237798
0.0966163685963886
0.102794336049271
0.0906625765416954
0.0932271195320881
0.10048642213197
0.0888520689478702
0.0841033290504987
0.122906946877101
0.0808108996811917
0.121588025098778
0.0966970752369708
0.11138812890944
0.102280755248582
0.108854229539225
0.100474302367922
0.115566871194103
0.104835596263419
0.106475378736274
0.0926570859101879
0.127537145548031
0.108649537579616
0.113496042938001
0.113841538964262
0.0982149741602383
0.107641032291195
0.138375055830779
0.130361675992757
0.129542669046471
0.115724075804344
0.129081659333389
0.12956315994174
0.123258988168568
0.126906585219219
0.125771550213092
0.130771828078642
0.130497164556915
0.134069309143134
0.139558277405545
0.133970323497647
0.143725351876836
0.125863908126183
0.144316967736201
0.138560720962713
0.167980204207849
0.142706580053998
0.15495306116793
0.16465997367007
0.147747140397596
0.155702409230492
0.147631335409575
0.16309676040385
0.159708951071335
0.160278745952494
0.15903209955832
0.164638238000431
0.179613215896437
0.152340893758127
0.193205454321574
0.173778477618946
0.1799610632753
0.131907764380121
0.232347301854207
0.225418103169928
0.184116137035793
0.218430342046453
0.152935632826541
0.271547815133458
0.22306511487291
0.222596330687533
0.224455465592878
0.240215053446704
0.238433292484555
0.249347710335333
0.246939722566804
0.26148660266464
0.267623703877066
0.268353264168418
0.242784820440983
0.323297527192993
0.305602958667273
0.331521224902242
0.30212971168638
0.327486485919277
0.331164509185412
0.340430572004771
0.332371734490933
0.359476755402112
0.314656318947406
0.419417608578653
0.372342861550257
0.388876613552462
0.388142589526102
0.42132558426313
0.401728906043517
0.406069629648849
0.460675207793493
0.42388191895619
0.452304910515097
0.434668896447573
0.465540965639537
0.452091371370841
0.484350680591707
0.498963935763078
0.481241345648015
0.495189918112001
0.492464103521955
0.508437760616325
0.507789867103453
0.527162732367328
0.513505617763709
0.5386705958365
0.532089722086816
0.574730532766151
0.59017038646104
0.521341007983086
0.549890202245687
0.523350887732816
0.561220790995155
0.551865985435046
0.533685434813992
0.585259974079999
0.540644882326074
0.562551122821352
0.549960767068893
0.553004623599122
0.551603880173849
0.567640479998237
0.553608628050162
0.554795268923092
0.579801466325321
0.508296857031267
0.614140725303231
0.551525102246385
0.557320205984937
0.553108926953863
0.559052412886719
0.549137101346854
0.562758795025121
0.531336489956802
0.562952486872931
0.541978345861439
0.539395265672332
0.537528734166435
0.538748408266792
0.564639452267684
0.52014161220644
0.521952544087664
0.522081818272436
0.505629272482788
0.503913739585051
0.476998761195236
0.551679130890129
0.504918082764359
0.482016066442684
0.491651051714142
0.483441321821587
0.481128546860304
0.484694328052844
0.480484560908192
0.477127227052453
0.471007938815981
0.472626228555445
0.466291929956311
0.469110211643082
0.474242245121805
0.458827769221971
0.467906234923346
0.458804457247411
0.460725249637957
0.462867159428739
0.459957674959804
0.44971746046562
0.455899814393077
0.455573945040547
0.456772590830557
0.453817667177055
0.453622357560748
0.450368489051886
0.45822007382812
0.447353652132007
0.454666280501749
0.452549254214992
0.456247284117391
0.44833843184085
0.448917735846848
0.444175650127378
0.454255298220221
0.445898207422746
0.45213294666065
0.437655952155233
0.446636251691691
0.440693821728668
0.444977968156187
0.420500928859282
0.427223439791545
0.468514398755213
0.422567363117205
0.44175630452703
0.426717478012382
0.434814695340704
0.405423840014388
0.427769623391855
0.45353632371525
0.422311696831077
0.423459443533434
0.418081423207792
0.413083075652129
0.418571250876028
0.407331286396097
0.405623363554303
0.389845976027329
0.362847823017969
0.46039327061764
0.346522563612497
0.476646475951942
0.40648773476262
0.397197563421941
0.365490693994693
0.426970250263473
0.390255011817375
0.38881193292003
0.384759003797639
0.378968244922226
0.398272984403039
0.376159036742192
0.384352016164438
0.374570678719503
0.370815603161847
0.388054145941271
0.371694425275629
0.346781941033821
0.38566391475565
0.36162446460355
0.355698759537764
0.395686526351443
0.376278556432764
0.354675768116184
0.347838389758262
0.350796462451972
0.32965525585762
0.367490588956298
0.349355873591433
0.337351804979352
0.343978789007493
0.320161185318131
0.333345112918786
0.323852780511201
0.338738924836458
0.309472177509412
0.342576430019141
0.3165304389366
0.300425877280274
0.330881911624875
0.298333925702243
0.350450605649012
0.315305152754555
0.312664254490242
0.287716836300397
0.332865442097727
0.301442424195781
0.30881573446032
0.302513207256088
0.287625667793983
0.303803600824813
0.300063830261211
0.278774104488308
0.300086515149303
0.279325721709378
0.296945910031437
0.301236401656368
0.319119594862718
0.296729071938555
0.278575811615803
0.28272631261557
0.278763632619593
0.276626250997748
0.279867628870612
0.263468637991768
0.307383591118489
0.257972468797156
0.312978508673488
0.300616085018825
0.286981268643407
0.287202796680084
0.289302189908775
0.285110313107088
0.309730145378279
0.307254864747324
0.323333573905037
0.292044254140895
0.32643062713279
0.309952639336088
0.320680120760439
0.314108711480356
0.331594593822087
0.328039978685904
0.335995423680269
0.343092607491123
0.350402420214931
0.351120708815874
0.365939812702776
0.35032130367038
0.40762066120232
0.376886985196083
0.387917230895567
0.411726291268474
0.412496071739055
0.431669834218651
0.414750322539904
0.434561751487741
0.433584365701749
0.438561564561153
0.452021624642172
0.435311560858972
0.479896925908283
0.464984416448588
0.464122702281286
0.471038707826465
0.479848452717659
0.480489885545714
0.477577476429745
0.509359194933891
0.475231215656849
0.550401521537074
0.499935072242783
0.516578399906
0.505827780675562
0.507219296597761
0.515208621858274
0.51223430000328
0.519254909989197
0.513284686622835
0.540161308655557
0.533046109080961
0.520207800070572
0.537492486550029
0.533882513772218
0.531966633258611
0.541210064169301
0.538445487669382
0.542670871758212
0.541469767847329
0.549745333622756
0.535059061251292
0.594809380250607
0.585540134688091
0.556363496305482
0.57782032049503
0.569551453679656
0.581842173678614
0.567686332020891
0.583582601863775
0.604181014952857
0.605048139760369
0.60321656373887
0.599126532903993
0.608248338375693
0.603472885078855
0.633489737278369
0.627746425845367
0.616088622565164
0.622681644902143
0.585189209022804
0.675603219003975
0.618842809042452
0.643301095442436
0.636891971716002
0.64945726831045
0.643685265021231
0.634774006235289
0.6399322039538
0.652852434571751
0.651019961190852
0.64073931597631
0.647461245476236
0.651821130922329
0.649798937780173
0.638942228311953
0.654341415582772
0.653035701748742
0.643020234116986
0.649463332397149
0.644548519867799
0.642487296559789
0.651586082295243
0.670701577309683
0.64023782166662
0.655036322312961
0.646813399035537
0.652632577866606
0.663493054960907
0.654270396192572
0.642001211684797
0.646992702629429
0.642593743023321
0.653744211629015
0.644138960053346
0.66695040154752
0.659108537502111
0.658870291385079
0.660965711213188
0.665096852577154
0.667040329381254
0.671804306997062
0.671723132447515
0.683719055134395
0.676480238363386
0.678271789668672
0.686873880398213
0.684329300910627
0.695664706018309
0.684765856912322
0.690544531928867
0.683466364247763
0.678282637241617
0.690248240429665
0.678260534066171
0.685589170994609
0.675636337531606
0.670728455630842
0.663847331159754
0.657101506099721
0.645187354934525
0.657286313345966
0.658380799814182
0.645325441169452
0.642015361533818
0.630547550727035
0.637555218131992
0.615871980606831
0.617439668754021
0.617716746747868
0.624423064209149
0.604975509064251
0.600883578124497
0.603195641630778
0.595286757366937
0.592722810054725
0.604380148801422
0.599593720506405
0.595131409583162
0.600595975931323
0.594009708006776
0.589147473092315
0.597794374612892
0.600748962095921
0.591015530749881
0.594521474371063
0.603998638980739
0.593096051522333
0.599156047550468
0.584041859922745
0.600790746948995
0.597358462772296
0.588326816114595
0.584618622617067
0.592611847301041
0.59485978922113
0.589356501503263
0.582599067806621
0.589731586007701
0.585613794716521
0.586482783513357
0.585594932333555
0.581987646391463
0.589303019588304
0.589745267685571
0.583391195464003
0.583835951998474
0.587015454317996
0.586218886091348
0.58759806716476
0.590275541515112
0.588725174684718
0.583528029938233
0.584995626763899
0.58772342123813
0.589099558727984
0.5859714794408
0.579347262601978
0.58463975969082
0.583673068389791
0.581873911371409
0.584495322022146
0.585069821402525
0.583134872888671
0.584690111380728
0.576718490145203
0.570260574391313
0.568208567123704
0.563645649421659
0.564568701214243
0.564335362998314
0.552077040208507
0.545512220711474
0.549863853996445
0.544655383975339
0.536653108474906
0.531431706415074
0.52894698952653
0.525095872297316
0.516839938350839
0.517389675032326
0.522110784492179
0.517426190193148
0.510775782991885
0.512629787826202
0.510162953479985
0.510825264159773
0.511390823139596
0.506033319392413
0.50671127420231
0.505126139177313
0.504710173954877
0.506330653519121
0.512612778615852
0.512497771920973
0.511705810424583
0.512895266192597
0.516603401486467
0.513069571669929
0.513669033803301
0.518710564056318
0.519781007069651
0.520989297310471
0.521315406504397
0.528164282850891
0.525424363388019
0.528888441161706
0.52848438130019
0.534359540625853
0.544269254690721
0.537716872711406
0.536320863721166
0.542999920392444
0.541865044273147
0.536017559374818
0.536938984497231
0.539748431446484
0.53981598070907
0.541219308807239
0.541473056333714
0.534068619447808
0.533178485719164
0.5380665676913
0.533935399910477
0.529465935117969
0.528310555036224
0.527071380522778
0.526733311512505
0.529321354150262
0.519314767663884
0.520487883123625
0.516268526554688
0.517395999080767
0.517534101299016
0.514371226664588
0.511860736883355
0.510865936654142
0.511975000809745
0.508476586850505
0.505795928098859
0.505238572130248
0.504735099005959
0.502697964157085
0.501741310201993
0.499786289516625
0.496581664297528
0.500093744986733
0.491843279028512
0.49295044790758
0.492656205942602
0.493645063375908
0.490094402212042
0.485518146825921
0.483231015019107
0.48191859708451
0.481794311107015
0.478464813056076
0.473309594433875
0.473288796327594
0.47052510286711
0.465697261360734
0.463308889311806
0.458818203223916
0.452689247192099
0.450652841516359
0.446603606748137
0.44492940728557
0.442893955597598
0.438132034634669
0.438705740928584
0.438661416625075
0.437246254012575
0.434475950345488
0.4297328587673
0.432398662148105
0.431928672768406
0.429941389682641
0.424887974926236
0.427152696375826
0.426224418409577
0.418478585573931
0.418287633711685
0.413562474997008
0.408422442881142
0.404354169406694
0.397510508671214
0.392173840521355
0.387151779456316
0.382606204923988
0.378869342313302
0.380547439035912
0.380008761465182
0.378309813573537
0.383900431904874
0.385935771912954
0.3905855511191
0.399456054717897
0.407277621143019
0.418975054786889
0.43268847991581
0.444945677360046
0.461983736928419
0.476762876671997
0.490985790089973
0.512702118145074
0.527285949286302
0.547080987509193
0.565684000839976
0.585397306920369
0.602680568871947
0.620073337663853
0.639802015090986
0.651658289795904
0.664937647948792
0.685591406273675
0.706344255251011
0.716363639951892
0.729872364271134
0.745659526039301
0.756956891600136
0.772739817344759
0.783020489660514
0.794569877743875
0.801240047298471
0.803699310932958
0.810868733330104
0.826984046070772
0.832146955720578
0.835390564425664
0.833974375218989
0.837518759906425
0.843546750136166
0.844261700712327
0.847466529510768
0.846375736617767
0.843284624902424
0.85066586161927
0.850973403463365
0.855847622398677
0.861343796991942
0.85720685364276
0.862779431089385
0.861126232519978
0.864444253204117
0.864691150104718
0.877384133293882
0.88639969263362
0.887230550296674
0.898953768046096
0.902813205647985
0.911338524290505
0.926010429612132
0.932219673000383
0.931077124502358
0.947398640753834
0.950453595075071
0.964577035640112
0.984553203091248
0.994838686809771
1.00807873605503
1.01379097131871
1.02082685713723
1.04335073002742
1.05232564680969
1.05518149061314
1.06677391267863
1.07700490817443
1.08406538518513
1.06874300614157
1.06835673862936
1.07305169958407
1.06321014041755
1.0675316490597
1.06118326627004
1.04884377191784
1.04810872763352
1.05851176058302
1.05084472615787
1.055421096664
1.06376948688507
1.06870264713874
1.08643723827671
1.09961700867491
1.11113740097938
1.14014080062082
1.13336646428206
1.16097933135121
1.17646751146678
1.17222815534262
1.20777072079865
1.24184963285449
1.252244056758
1.26151203778206
1.25429747952156
1.288413776789
1.2995164721472
1.31731193206288
1.31295171552274
1.38424514629664
1.35909703658809
1.3768554886908
1.38503265493017
1.41431389792259
1.46245025018267
1.48978427818058
1.53196109184531
1.56135736433663
1.56310597737468
1.55701298068877
1.58276572602948
1.59994547126535
1.5822697753501
1.61671505886018
1.62413496549867
1.65476278785849
1.62787469031381
1.69832443108125
1.67395836701766
1.77100443707735
1.70203329421767
1.7246694773744
1.6401513022698
1.65358067601797
1.65106409250396
1.70198582649282
1.62967116814683
1.74726261202595
1.74138224453038
1.67714007135327
1.64592409644125
1.6942144458752
1.75111185498394
1.71684466326874
1.71910564200439
1.76228726612821
1.70055093104314
1.67313869409758
1.69866170664471
1.80034609444865
1.73900889381859
1.86528742891572
1.75882366542841
1.83465892607878
1.77425292757401
1.88479587128711
1.92122766097017
1.75631401904727
1.80288654924984
2.068851740279
1.87564681050225
2.00041985700832
2.11651812641694
2.02769629245054
1.92008183211847
2.04784896256721
1.89224786499817
1.9122317854042
1.87709860782429
1.93921166716366
1.95080100307069
1.96801112949802
1.95780288884339
1.92103581988967
1.97397677307199
1.93078181117581
1.92092958545742
2.13595400569535
2.12482985682308
2.01956527650511
1.90342701348805
2.10464016543594
1.9020947085898
2.05494429995556
1.97973989544272
1.94615979248412
1.97477801997242
1.98190457529789
1.77539265579015
1.80784608762334
1.73766224756506
1.6943069561599
1.68921041652126
1.67135708038977
1.65119221187794
1.67256396106456
1.54669835694051
1.50964694327803
1.50534832919608
1.49786128380898
1.45155151250565
1.45002903231151
1.43557779632219
1.46106069095002
1.4139208940514
1.39584402086909
1.41982655993737
1.42683092460885
1.3432142529796
1.37271197725046
1.30570292936641
1.32962693665949
1.31248923117123
1.29000745756647
1.26946352309031
1.24471446567652
1.22111518294149
1.23923848071623
1.17655849153231
1.1568329358173
1.15345762744978
1.08640239004614
1.06299815519863
1.05539110424578
1.02273088797565
0.980719630264443
0.927817290815316
0.904299542309083
0.870736498581006
0.827590519547652
0.789774775912859
0.770436834899069
0.73312216097409
0.698414413323036
0.676565178687946
0.651117231547911
0.623539486434038
0.601758218502512
0.584459052767239
0.561428090493552
0.543430690195655
0.533380997198438
0.529027325986735
0.51563873383062
0.503514626815095
0.499510614537287
0.494358458192798
0.498590955421664
0.491487257030063
0.478491120103536
0.481101791122713
0.487297354887798
0.479675902050605
0.488579554117464
0.484602018844041
0.484256626003048
0.490252807195196
0.496594751152869
0.494527753027701
0.490317928441814
0.490082087383572
0.496615623891613
0.492297164197818
0.481199864865787
0.480594284867127
0.478366455595624
0.475861204869565
0.470459907605778
0.466792764008723
0.463481886194615
0.462040342925342
0.452982464829989
0.460193994581117
0.465245304378953
0.451019745684825
0.453128746570908
0.457261577388723
0.45979663463775
0.460616134974199
0.46586902061609
0.461451792080845
0.476962077797169
0.474455286456165
0.476380558665264
0.4789567351379
0.483790034289652
0.478413293281897
0.488776960908383
0.490537485275317
0.502718269806045
0.493701318551463
0.492502360582944
0.498943930176284
0.498370253296262
0.497112211010917
0.502216198948057
0.5044133058258
0.505091006054824
0.509602159033945
0.509617804047592
0.512709774292931
0.518779137825145
0.519829189409628
0.527990250974943
0.529173696329131
0.54032647949405
0.550926151175073
0.558103196567816
0.577566433180934
0.602939069659973
0.613552498006973
0.628125765893554
0.639927311300636
0.658661942212324
0.657894541342791
0.677515361059984
0.675513679497791
0.681823260291463
0.670718063673391
0.679872079708638
0.657571467775345
0.659134270399325
0.641883945328165
0.653853066801519
0.634760519904202
0.629502649526454
0.622141189803322
0.621852242919277
0.608760816230662
0.610437560486871
0.618495893293805
0.608808334214343
0.615651824886587
0.612188875959943
0.609054930009525
0.61152821709303
0.61721697453399
0.617074425697526
0.593470354144098
0.607622645960732
0.59840876008816
0.583717091233334
0.576920963251188
0.572687326805777
0.565703956619356
0.578234501871649
0.550318056339674
0.554356941763104
0.543398994598577
0.551573206953329
0.553983289690907
0.541751235064897
0.534445946158171
0.54326468374599
0.532514633391756
0.51829767865181
0.518533388360161
0.525411343336184
0.518601538021497
0.522160301009398
0.524701656086155
0.511863277219409
0.516594396883415
0.507221498272026
0.504152655216273
0.506620705279601
0.513174312792199
0.515546192370955
0.509065918179115
0.497688230574335
0.495741521645856
0.506194983355089
0.492624303757796
0.489664729918683
0.47817233020456
0.493718842892873
0.489727034465467
0.468459903616154
0.470847821054809
0.476456794789147
0.478528556678312
0.475568471099534
0.465335392650545
0.482490083356561
0.463960733593268
0.47931979175824
0.47151758742633
0.471141196586695
0.475405099914345
0.47608972493426
0.475595978253864
0.470054654911494
0.487663946893016
0.489283114226648
0.478911903045656
0.494984372412227
0.482827457568693
0.488611282866071
0.480347594631032
0.50159604691181
0.493636835141164
0.510375573343655
0.492661535099949
0.489421798857451
0.505100641681694
0.512878811107901
0.503604791042529
0.51493941309103
0.523979525101413
0.522307556572409
0.526363512515208
0.558756874931344
0.553979745508374
0.569185070800419
0.540544532680525
0.556603790829805
0.565472677883855
0.589585952543522
0.606520338746023
0.615252596588349
0.646679996627361
0.662917684343492
0.660315587400845
0.700870643573561
0.694947967444953
0.704740928428716
0.705797067314845
0.747555921128652
0.736423443685378
0.767092371237774
0.74524963372973
0.811759888658452
0.795214560576428
0.84334729598488
0.797644674480268
0.817017904125571
0.834752102856662
0.85574646840887
0.78132379487545
0.850788073404733
0.821205743349137
0.84241166559373
0.758774593747634
0.79016109044261
0.756809160356201
0.751152617186859
0.770035131232791
0.87416181928332
0.795236339725396
0.781389512037512
0.766056311769575
0.805672777942341
0.795922577287499
0.758263693209159
0.762749322431368
0.823108237765281
0.756617778150956
0.765245245708792
0.723794942698368
0.791885122841644
0.755101781778015
0.756101193190619
0.691152120710449
0.713766407704478
0.731093593353567
0.737162393617753
0.67590285342691
0.748804880458338
0.686966198858416
0.787931652822384
0.75624091334289
0.708841794066633
0.688767916036656
0.719993776939513
0.690640961811928
0.753253917028572
0.746978861078033
0.726418176538306
0.703087951079562
0.708644895630435
0.731063540607716
0.744626440144017
0.759795138687713
0.796774585068088
0.72367250085982
0.731818224568217
0.686102944839605
0.786148467791194
0.737978636448035
0.784285064535302
0.755112821594067
0.828779987649732
0.72551902796427
0.741417911558513
0.76237769191588
0.843841395389298
0.774143067296224
0.823364903963553
0.773479560340581
0.786018932839472
0.771773248925914
0.900625336366866
0.721232121449293
0.857083911102656
0.787014060531622
0.782285630374609
0.923812462516826
0.879265612246435
0.856226475694444
0.960890716899014
0.855463574900161
1.00189333011907
1.01338174056828
0.967772323602113
0.918872019969788
1.12843885096122
0.876648686549959
1.02567940218482
1.12487561185532
1.28538059528251
1.13312097173785
1.15545332797593
0.908291348674504
1.0456393369845
0.958590406378496
1.11229703486518
1.01065966820731
0.906047450393249
0.833318817612967
0.94784843621383
0.858976000059968
0.897128789590214
0.899678170084522
0.97381278930771
0.701934020821684
1.06366394835587
0.855998491501419
0.945714858084093
0.725944863082498
0.888335955737582
0.977718494551958
1.48110563621999
1.08479291233096
0.938144180424052
0.999465374387304
1.24685276865423
0.878593004341475
0.732591422192588
1.04074673135445
0.988969344200057
0.804588238112194
0.958397762256
0.918049551005035
0.95757016315725
0.835188103296396
1.13719740672218
1.1754942628264
1.24295247235195
0.606821015959642
1.20274835145816
0.854942611590198
1.60035064295612
0.868115918890876
1.2008935954176
0.5920260404687
0.930813620520669
5
0.796633515926916
1.01000966176118
5
1.40916041109558
5
0.734815907739063
1.58380882709882
2.80602776323348
0.629878443672291
1.35219879833832
0.784969710180223
