3596
4000.36533379555
650.420452594757
1
2
2
0.060065190875175
0.0608349539861333
0.0518959430684531
0.0625289859535061
0.0625120949715744
0.0675305684238912
0.0619711682825546
0.058850370460078
0.0583567342735678
0.0632571545554172
0.0654153884503923
0.0610052211384107
0.0623046383120447
0.0650768328960211
0.0603289191775235
0.0588722788793363
0.0555755985249066
0.0548526053642996
0.0590667482145648
0.0610028018987101
0.061900784475108
0.0519499553260053
0.0561787926296569
0.0641694121256318
0.0564053166579986
0.0593886783758986
0.0549712731475435
0.0616589615851344
0.0586428190157777
0.0637332341791362
0.0657942388615434
0.0597930632806265
0.0550822143589101
0.0548477742483557
0.0546262391938613
0.0672528504918931
0.0655830510526739
0.0619542132378963
0.0582900390056007
0.0603131590839064
0.0633946169490256
0.0591775910113298
0.0639784675303426
0.0641036824080159
0.0577225020840126
0.0635407113254802
0.0619125953916076
0.067142455079183
0.0644721891191832
0.0530228041448354
0.0555763090572395
0.0520742225730138
0.0546840546613932
0.0636748476801149
0.0587723020348307
0.067253334024076
0.057070738438873
0.0649919402380232
0.0617299123792183
0.0560172283559091
0.0630942819377695
0.0612217699721947
0.0550305800505081
0.0526490354419074
0.0477556031962684
0.0522829281991754
0.0550878003184816
0.058987095875965
0.0553149845894073
0.0590370393941746
0.0540734343656568
0.0608021246744203
0.069488422970962
0.0600195787957777
0.0601421433703957
0.0654580165035605
0.0492482504507703
0.0540881724959853
0.0466370573634952
0.0559724727054753
0.0617756045719984
0.0598054009703115
0.0616495546969203
0.0523567912687261
0.0461225815028485
0.0590918573112879
0.0537103611321523
0.0525268959102399
0.0585600837877864
0.0618137697171629
0.0558644276184135
0.0541177424003319
0.0517315287668779
0.0524982737004561
0.0534234579052436
0.0578906877560168
0.049052625288788
0.0596193067673714
0.0522181598793519
0.0690509594901367
0.0368328883502701
0.0518999084274222
0.0697301937284137
0.0574028614810784
0.0765462117092794
0.0558869642492981
0.0465941603672415
0.0648549640936281
0.059753473779717
0.0628516811700167
0.0526749318865964
0.0506200771583429
0.0559808300686796
0.0537155304283828
0.0440940389440881
0.0583329781562682
0.0673532629525379
0.0606669602256228
0.0574807860140371
0.0607017891071757
0.0247472425903163
0.0601691577484816
0.0721134640123322
0.0603749490197336
0.0531420123400977
0.0475555181256461
0.0293041650997082
0.0668233729366713
0.0702632379682622
0.0523961010217493
0.0385276581319644
0.0551576331727463
0.0405113588084465
0.0524752360491925
0.0724711597180742
0.0579588223181993
0.0421034597781707
0.0397935394481576
0.0507841102064719
0.0722363590297467
0.0560516975912415
0.0527903466940882
0.0321021069296344
0.0420400396028379
0.0639283104807637
0.055831157369255
0.0430696480545668
0.0632221047407031
0.061136097277576
0.0555191623531608
0.0498089709747412
0.0472970372215086
0.055382268162795
0.0479184466561163
0.0100599053694816
0.0826697083038048
0.0596273324538125
0.0684012142595982
0.0675424774152059
0.0568653636082447
0.0440950971335412
0.0589589484107535
0.0523318769109607
0.0460965860215827
0.0468056592343815
0.0410346219986221
0.0494102476459351
0.065249107325288
0.0411109376686292
0.0469918891934305
0.0628689089442098
0.0546175584836932
0.0472437927659007
0.0959671714954256
0.0546337256379634
0.0476755007841529
0.0634039456268895
0.0601583327702541
0.0333154735337653
0.060389411760947
0.060596988398269
0.0552871921559504
0.044565729516059
0.0458099675601235
0.043384815595182
0.0569977821662218
0.0508674326286752
0.0532042412120557
0.047007018850106
0.0393595571443316
0.0298317129712002
0.0883840991303849
0.0636290069701608
0.0603533278217587
0.0454147491247685
0.0339958017017759
0.0540195840448069
0.0777319840948946
0.0532528143285171
0.0545428699170689
0.0537924583231904
0.0530002184880291
0.0403137470670556
0.0539624101885576
0.0326691015658507
0.0318690365658286
0.0696249163621642
0.0677166677394498
0.0462693590635058
0.0518283654017186
0.0425864589032057
0.0364865782287653
0.0641942217437658
0.0650745448733701
0.0492245097558802
0.048532530739466
0.0383005661084769
0.0632893347095566
0.0634055063750686
0.0522390635059477
0.0480941671044769
0.0548813652330465
0.0464733506406401
0.0436559202777152
0.0463124425227516
0.0564339947831829
0.0490154673601074
0.0526488348006265
0.047892798165816
0.0554056118669653
0.0494478840214204
0.0516799123853483
0.0505912830926852
0.058028320314677
0.0398764126438128
0.054008046213349
0.0571252886963171
0.0551243229811469
0.0468884198300563
0.0559287282633176
0.0455302381767507
0.0507703810160353
0.0488380528651204
0.0514192660687707
0.0363546420737695
0.0499362505019595
0.0565610283766072
0.0612880992850528
0.0434341858801712
0.0375252500970572
0.0558876138429863
0.0578473768227099
0.0527407323600047
0.0481754837250478
0.0470284764361213
0.0393741177711827
0.039611907876474
0.0588206948796323
0.0510254014422793
0.0512556116456177
0.0551207025356056
0.0501501994275597
0.0575163179077095
0.0359936888184905
0.0423421502274552
0.0881624051698424
0.0439096579777093
0.0455044367679666
0.0852162424546065
0.0675821662221266
0.0643895839981246
0.0374289129568397
0.0126465081840101
0.115194940451997
0.0878963753577844
0.0533881982439581
0.0578261412689971
0.0634765542291116
0.0434956943032595
0.0501060954996945
0.0380741360415312
0.0553335766197186
0.0402049214937679
0.0979388051444354
0.0771735897455678
0.0386087596709768
0.0686660637540507
0.0772949516648341
0.0547542745149259
0.0560596589739745
0.0510517976885818
0.0505622452815467
0.0612005381392011
0.0675641884843147
0.0735734406193225
0.0495321071157692
0.0528988253231179
0.0715773517940162
0.0650915887955488
0.0596662128951373
0.0690616333542934
0.0599072282458724
0.0535727360228413
0.0595974622556504
0.0519390738208518
0.0678063963175719
0.0403400042972036
0.0442623263348533
0.0841674131501609
0.0689614497374021
0.0612913676812354
0.0774678748512405
0.0720049819722737
0.0603614971963038
0.0526278644646954
0.0584997203209182
0.0646159627967548
0.0551525548727242
0.0548548478632912
0.0837390370025757
0.0678585084897756
0.0674888532588235
0.0683027090913899
0.0640149027485723
0.0643404343580237
0.0705589448458737
0.0578840788392775
0.0698789509886368
0.0621042512014816
0.0588138466446413
0.0816576148424447
0.0783392140761391
0.0533274905689144
0.0815947256069666
0.0780590773189487
0.0793343814379
0.070493505473596
0.0715468182581467
0.0669324823966527
0.0772405293240557
0.0738852797859736
0.077383560512321
0.0720332452600927
0.0924665701450753
0.0816806766796515
0.0731981528647621
0.065153411346617
0.120600831819601
0.105053737883423
0.0993931039650862
0.0800985639516884
0.0681798498178807
0.092777144685671
0.0883131176601723
0.0997560925604408
0.103376792872763
0.0968016953794163
0.0943974287278454
0.096320682689669
0.0998887213728401
0.0969562511399975
0.0999048500896725
0.0987017153539325
0.0997566709112893
0.102711105734885
0.110175222595177
0.0891518374548874
0.103361494840039
0.123744785383502
0.117737082236939
0.107507020499816
0.111555192683494
0.092403483473739
0.121123577220015
0.11572616522001
0.155864528755748
0.116949330322048
0.137998027663492
0.135968550271599
0.144700400582738
0.122255086775947
0.127919994028052
0.130048072340916
0.137986485776822
0.125210691773583
0.141598746128097
0.133437733904657
0.145295596577726
0.145330563706397
0.156956781995399
0.143766097032084
0.148572903327605
0.159455900519991
0.162237920961271
0.150718648967844
0.16011829178298
0.144198912510681
0.182822418235754
0.178627713193777
0.168407237080632
0.177660451437584
0.170894093240948
0.17099997547916
0.170436186012034
0.180283603589484
0.189336202967868
0.189861056725816
0.214026950240827
0.192698158594064
0.205666073475302
0.189482885958955
0.193355353484025
0.196283075291218
0.203796852368223
0.195752241611473
0.2186661976342
0.216824572617967
0.20496821702966
0.220895701272167
0.228395371731842
0.231641178837612
0.223215718043927
0.216176641810537
0.237621554302744
0.232758500136629
0.240530784918397
0.229039868892297
0.250090344103804
0.243256359514795
0.254388142601076
0.251409206441706
0.260247479564661
0.244140283718284
0.280307502592038
0.263690432636615
0.280153410556907
0.266364294149161
0.287131010375712
0.268169470643718
0.256426394848268
0.276107585511753
0.29014475655603
0.280219811456135
0.291533287964413
0.289261750476155
0.301620248977515
0.288237433227825
0.31612907612664
0.300667498067835
0.321072989475345
0.311532906209644
0.311554518587414
0.320169695419717
0.337932154949432
0.326352658301982
0.335408736101133
0.330534425363628
0.341459093433255
0.347452335422633
0.362753170167561
0.344963292190537
0.34768828043112
0.350571092811673
0.362672678694567
0.368067022354522
0.377023188987517
0.358392997653793
0.375789223666329
0.367257800425044
0.378891673514832
0.391481721991817
0.411282458172751
0.39397314559759
0.407496225346344
0.391718512916842
0.417361923445497
0.407861244684589
0.433778668069175
0.411300368885615
0.426925234292422
0.423850730158651
0.441391528093334
0.422097998678307
0.457592791975116
0.443419654423416
0.481581313031711
0.432227390047288
0.466459822078333
0.444384790414217
0.480266126939407
0.468836486757234
0.481321846755005
0.459287904089458
0.487027414248426
0.495980014208007
0.512209169204282
0.480632759703827
0.539719186028059
0.494938814794515
0.524318989530946
0.513960376748496
0.52693450107474
0.503561128002493
0.547202175227229
0.526714645339104
0.55736541618728
0.540539500371008
0.564169393508614
0.553816723011498
0.564623820830781
0.526033074933415
0.585116592483399
0.545637834032987
0.573425756531369
0.536404099636387
0.584679540753532
0.554220248143421
0.592323524425638
0.59057573594597
0.63058533091865
0.599142704066081
0.633258977069433
0.596738443865895
0.646712028141539
0.64071816356247
0.661237246701686
0.618759310760936
0.635757826725613
0.62653432032246
0.63927339637579
0.631398471264748
0.65973320205723
0.627597102822272
0.670792024201261
0.635121920739367
0.707543636291659
0.639062300316776
0.700781161365026
0.660763126073547
0.715461492185354
0.677906691805277
0.728669582815081
0.669999997948623
0.730221117230868
0.690749829006363
0.732783728047576
0.70145896481634
0.718847901250239
0.705166353131799
0.717055557132061
0.718120559865708
0.769550129297353
0.763374798895393
0.772896823104797
0.741386434458393
0.803811285211274
0.731715783838227
0.796705303205569
0.75224849130866
0.830678267468629
0.779786663057074
0.801512084081621
0.776960664832445
0.81042821716302
0.791639963211915
0.886989031389762
0.749439610476786
0.82755697561394
0.800095290514073
0.833467782300951
0.81432546423233
0.830004493228876
0.818719206123152
0.867220251710114
0.870122849274696
0.878783993371368
0.857625288359946
0.867258272345032
0.79256898697056
0.879710104744571
0.830791689145582
0.872301343310552
0.854915298944735
0.951201926144297
0.878358026420475
0.944241880071624
0.87859853304088
0.985034799113748
0.893418197902026
0.949073066712705
0.932634617573378
0.965658786978575
0.926072070640197
0.989636961154319
0.871174831040012
0.977185563015653
0.92485437707994
0.980667958653916
0.913004422202103
0.987604128547276
0.935953208462273
0.938712513058117
0.923001273357425
1.0779454904407
0.93242908951668
1.04144923313398
0.953495692049739
1.0540147000107
0.950668528199859
1.07666647630258
0.983642171187787
1.04857960537572
0.977128113125321
1.12076012989271
0.972653522656928
1.04872834995425
1.07884498250294
1.1369110980853
0.968733644375362
1.04159730055987
0.993095339724409
1.09646077032672
1.04141755672977
1.15402574010015
1.05798293480665
1.14918072143067
1.07853221695861
1.07707008191554
0.983057066153558
1.09572898143443
1.03408312686141
1.17273240189385
1.10986973493014
1.08213680908626
1.05060778906288
1.07928916509695
1.06517992319033
1.18543330970907
1.0536779985771
1.1846553949526
1.04804658056718
1.08490691935904
1.03344542552799
1.14954161762307
1.18440667409183
1.28672698993546
1.12841067269527
1.18384681846628
1.13614785973448
1.22980185602277
1.07629602097457
1.23653374704601
1.16506625069136
1.22897297151881
1.11967857845655
1.1771250016754
1.16170373457032
1.2943373098783
1.15346919811004
1.21889975110368
1.23576149748608
1.25155602646385
1.10970439470144
1.17605894583728
1.11009189380589
1.30976594061592
1.09925568138089
1.22227852039237
1.25457697086438
1.29964674823746
1.10485437584641
1.33760791062761
1.19861889844205
1.26512632122448
1.17920673417932
1.19951249185963
1.21027822347828
1.26237666183431
1.1855263729121
1.41765336449972
1.27813166149272
1.30764726767124
1.25197049268953
1.3174573885149
1.14172657478758
1.29905051238495
1.24145283462916
1.31822594357043
1.21449595307824
1.47374874667014
1.22609718456511
1.29257157021401
1.19109703074378
1.26848341947978
1.12059061968538
1.3074086443818
1.32441508219722
1.36786981699732
1.24042624267669
1.28776388988321
1.25500616993656
1.30980489674731
1.32964027512266
1.54974229461928
1.15343858596433
1.36180104599654
1.35837375319883
1.24641243796268
1.29708673303695
1.32360488013557
1.32368278264363
1.2860889373329
1.22868114252915
1.34189965220706
1.16185660944399
1.33039754404295
1.27774571383882
1.51432782551128
1.22274803763509
1.36804872668385
1.31167875397469
1.39933804669916
1.25086569024426
1.32623804769763
1.29026427222119
1.38830861969411
1.22909000177079
1.34786907042452
1.2222438716441
1.39986847362147
1.2988370226105
1.48661117891377
1.19117353150114
1.26809411135017
1.2263322784101
1.33282906857386
1.20171046753097
1.39940095814754
1.2534503690629
1.30214163554003
1.21637395154714
1.33599727038986
1.32046267830462
1.41134359873691
1.2415848365032
1.2923241081383
1.20883912711368
1.40088758058944
1.2768384795184
1.32449516167907
1.33502306763769
1.40907471808508
1.31867977912148
1.31857890991714
1.26883586718991
1.40338307115994
1.32650297094473
1.2976046619181
1.24558616127372
1.25467262451157
1.35239845192857
1.47030122802835
1.22758867871046
1.32891497540114
1.29503720142747
1.34059600797915
1.30855297488107
1.45120499557071
1.1760816947604
1.29113912535739
1.20990771346923
1.41942803874654
1.35834200886985
1.36950860604278
1.32176808134692
1.42651283211145
1.34114187696312
1.32818076781851
1.29871891622936
1.3978018212369
1.22203913911934
1.30796853258715
1.24354375373954
1.29345500250789
1.21376889895034
1.36151780233241
1.24522981833137
1.30720991112736
1.3232913948114
1.34436759333943
1.25619368265364
1.37097860658445
1.31177489878687
1.34340735184574
1.33545747480883
1.23357655113072
1.20077466012191
1.35113714855265
1.24507353786548
1.31838975310704
1.28934913998339
1.29568143691028
1.22696076318152
1.34161164053551
1.26597157029681
1.33882869160911
1.2644900373423
1.2974384135598
1.2767825901748
1.34520555934846
1.22077475888124
1.34558583391171
1.19035772428196
1.31378059518732
1.1819229317844
1.2243274942307
1.24945985253841
1.2148294676671
1.21387164508947
1.39254872551077
1.22735930798253
1.27411674824492
1.22327668971432
1.27112701456499
1.20949655617704
1.21165362900772
1.17171399373408
1.33811678560751
1.1679902975857
1.30906744544845
1.22077907363679
1.27374684889118
1.21692742922703
1.28301917250496
1.13889619884021
1.20181070487819
1.16723760281796
1.25437968227557
1.25832650948028
1.26702781626067
1.17104940723732
1.17305677981874
1.13668856261493
1.26714305915054
1.19630787902147
1.26218236612262
1.14922416943494
1.26625795336151
1.14009947738467
1.1780753513299
1.15808439741467
1.17022972317246
1.12189204163179
1.17447325429811
1.12922228547072
1.23611920259251
1.11796859514316
1.14821376657964
1.10261567725564
1.15325906339838
1.05115286389465
1.14108627290455
1.06745264474101
1.14728266418141
1.11738770560194
1.14067835618418
1.06826252017943
1.14384985279976
1.07060652843437
1.15180121143873
1.05615405379777
1.09639021185742
1.07723314642238
1.14772162595673
1.05458499291533
1.05398806905029
1.04605055136762
1.11401959755024
1.01743712001169
1.0409927224219
1.00813382706636
1.06421023590634
1.0532642180553
1.09384563543638
1.00398825996522
1.07303027456241
0.973106916889766
0.985912193639436
0.988957215220209
1.08481407862486
0.998471982222963
1.03568354933924
0.990603158794968
1.01901237203816
0.980077199005202
1.00590024110256
0.967496475492078
1.01375460643061
0.944097496458306
0.995275716694064
0.939215789754036
0.975536070206948
0.945808772740307
1.01054176789173
0.925922909021553
0.97839913125721
0.933785971576193
0.938331359145841
0.947233059994256
0.923882319264411
0.928454599487117
0.97287903706346
0.890910655642637
0.914589006989116
0.91213910474826
0.947166760114426
0.881459621868514
0.891663617741292
0.884542891386965
0.888916342193641
0.866437754735625
0.895964972094642
0.869342995651185
0.896847913899807
0.868615723526447
0.879092883806177
0.833629954166981
0.871959777112034
0.832131926798157
0.868950577699664
0.845652645731467
0.854677880281652
0.813440098920466
0.836796540952287
0.800576732279857
0.848130573756681
0.81672072938658
0.82580458829513
0.795236672620588
0.823225518447322
0.777083543941206
0.829702361490727
0.778280188057
0.797445860392896
0.78163022011417
0.796021170533325
0.772758712044893
0.802573848627553
0.787633659526692
0.785356570508659
0.759837130398153
0.778006764754589
0.727717094498563
0.769351878587359
0.762886013513375
0.746015125398182
0.714663112461048
0.763330490078588
0.738267891341339
0.743987246799281
0.729424629561667
0.738140483823216
0.702419339859069
0.725384359068627
0.719622063016622
0.729356627325298
0.690258443328366
0.703370989715094
0.689586414225642
0.709897418141875
0.692099581201745
0.705728416353082
0.69029600460187
0.702963920523734
0.674326938840594
0.682532416835079
0.661548655488681
0.661423759291596
0.677703106604388
0.68397192075821
0.660142100241059
0.670523602706373
0.633247279439077
0.671618304681252
0.63310839737394
0.669695099358432
0.646527041589211
0.646481817344895
0.624926163637728
0.638487344746655
0.623758898787132
0.640393657377764
0.627712396630212
0.638495593099086
0.604023413085641
0.621123027143111
0.604729396847282
0.605302813929337
0.612795950481668
0.618634612048996
0.592451346809605
0.610523181453561
0.584066583818144
0.587559247223866
0.583522833881098
0.603297300488799
0.569224314253855
0.583584944053439
0.567436834989576
0.595267106673339
0.568078060119342
0.554941863473593
0.544641043297663
0.561121231708499
0.5604069942026
0.563317611345212
0.562393395937025
0.568664545168143
0.546843962278155
0.562821183565957
0.52834741918108
0.551091912332175
0.538509793810742
0.539585014469025
0.522170168375861
0.534445246431378
0.520507689447983
0.52636636416264
0.507851752051921
0.531949115825748
0.50949994564358
0.522777586217834
0.504157590733953
0.509878972411218
0.495520603927933
0.517000126389927
0.486947676105836
0.507421652674505
0.488683158621856
0.495610299321283
0.493055719809404
0.490517157856341
0.483834429627998
0.503013379372329
0.475879551198956
0.48255069238494
0.459165913919989
0.480510429428185
0.473382920825011
0.489378582769105
0.460539094995071
0.473981608594186
0.454620052027594
0.484174259654007
0.46186137908182
0.471520315682198
0.462192678510722
0.463598543495657
0.445661794419906
0.463295133356262
0.443459605843451
0.457089491838057
0.441353124675719
0.469643352828582
0.448922904275718
0.450694876707266
0.438868607184086
0.452129162357941
0.439684631336069
0.440850441163584
0.436586259462006
0.445743652416481
0.43542203386517
0.448098633173836
0.432388027926051
0.442299265838432
0.427961331147713
0.441374345138412
0.426207020549886
0.435577063451668
0.431010527461795
0.44173631933209
0.434078158614806
0.445587139023811
0.437547022183483
0.443657878141621
0.426351735393497
0.444937481997841
0.430755101462967
0.442216932743367
0.425857333398156
0.450383904697328
0.431542225177434
0.43572579982866
0.430729652523338
0.464529579128451
0.429526859270053
0.445963701276506
0.442531806641385
0.451813791732916
0.445034270225728
0.460141207182389
0.449959437209888
0.464975515886107
0.449051136678223
0.460686796825892
0.45523002793122
0.464243764187692
0.452110432140586
0.471951768268968
0.467362806250942
0.46563353193284
0.456825481561483
0.479808487488165
0.468201152155892
0.470680857321355
0.469730100361071
0.482534569231785
0.469336055248516
0.482758733691808
0.478166013674605
0.486828714151776
0.471990630950316
0.490640536672258
0.484634703064741
0.497237608655323
0.491227507321161
0.527901746861402
0.493270065043168
0.515626504485747
0.502298210327797
0.518529943543991
0.503481954915187
0.51853236071065
0.519291122772377
0.541903207060544
0.516375095313758
0.543561556372983
0.527399751240144
0.554071302965228
0.528702800191857
0.554262265135237
0.532054707029434
0.559664170632158
0.548828764170033
0.557753113542509
0.538010076827419
0.552435567773856
0.537182376557941
0.565177542619875
0.554221340150203
0.571363731383105
0.550821400079785
0.562476705203954
0.54754700825382
0.564877844010693
0.548450270669038
0.562921082326062
0.564281493915485
0.562403616784159
0.546424266385406
0.573095351738542
0.555658697962194
0.554868528147177
0.537541658456864
0.564429771589926
0.542784852709581
0.567134027696959
0.542792756110452
0.570053160178363
0.553618258200529
0.565581370640434
0.550253242237755
0.565198991472949
0.558448360622689
0.546552630616453
0.546716170328187
0.558354984748624
0.535226108608113
0.549886078576395
0.541951473227161
0.566822260932595
0.540761338724318
0.56452704051198
0.549076572774658
0.57027095486667
0.550817702380281
0.570156478136045
0.552589801466679
0.577356314321812
0.544139377261923
0.572297703773129
0.541624298014901
0.562340766800877
0.551552967282892
0.561202105646451
0.542358215892464
0.570907389544572
0.553207284195775
0.558472810609031
0.543541442342312
0.553016748261598
0.536746141678863
0.551615798354961
0.55002081955692
0.566701572114615
0.53819735913153
0.548676973130089
0.528010377715062
0.54023507606693
0.539026954912774
0.534124614939261
0.514119543939542
0.53382977875986
0.52276678874383
0.544462283399294
0.509059927295734
0.526383235793929
0.504646308570607
0.511923671597896
0.514287595915421
0.502007232544881
0.49741684537259
0.506945286266651
0.489197515891557
0.495503746665914
0.483229015293824
0.491803022873926
0.475255371289746
0.490319023538764
0.487732130671239
0.477926660405565
0.464864040754444
0.464556677900863
0.449027240866652
0.470981879510826
0.448734021161485
0.45767666141797
0.438982740164483
0.457323432510577
0.442173840053393
0.444755315442842
0.43049733305086
0.447430891765648
0.420395138910881
0.439839704697749
0.426522773415479
0.437158134645028
0.415337334967458
0.429666517694747
0.415648313620486
0.428327709264866
0.398038531424567
0.421740173567333
0.403948673968491
0.417084049610437
0.405422688448399
0.414645312987908
0.402430275836716
0.409092525408633
0.393405771468989
0.406283566668616
0.402298975822852
0.406624859019982
0.389193563131379
0.397163565777156
0.389524972575141
0.395896786916852
0.378298991286138
0.397307233141665
0.374824428161866
0.391420491672699
0.381096532335027
0.39009081666744
0.379567955418265
0.38515383770215
0.371341605796769
0.38328913839632
0.373760897148096
0.375126674052365
0.364748306400278
0.38104751685899
0.357562549426202
0.365903120555624
0.361282628842489
0.36749334462114
0.361649984942697
0.364687042371758
0.362640018758246
0.370546090507441
0.35169620056931
0.361910783525782
0.352132767850251
0.366474513430963
0.355433834079144
0.363632211847856
0.346131776040007
0.352744066116028
0.352944013656908
0.349316933950734
0.345084896084007
0.352025013031419
0.34619850161944
0.350850479983445
0.335517176484703
0.353959525070636
0.334819167398138
0.342258121609067
0.343856595315774
0.345081729219009
0.339573219014616
0.347419676858335
0.337208765171822
0.341487511845391
0.33268926539144
0.340438622939676
0.33385502237409
0.347250171062157
0.334214647516457
0.341133507632132
0.321966237250416
0.328937641054253
0.331200353264437
0.33336559824509
0.323359182732992
0.339991849676075
0.323853875126068
0.334342126658904
0.326300172637508
0.331596688230242
0.319285572757818
0.327880289349843
0.323204661138509
0.32838182691285
0.324579384825729
0.325032816248548
0.31737909678512
0.32614110476011
0.309137311543383
0.331613435777816
0.313811591356471
0.32249798406593
0.31712407906803
0.323406513515244
0.308056775017306
0.320735170957043
0.311823269576877
0.31648462336561
0.310859675416488
0.319992555359696
0.310353942272976
0.320296762433133
0.308052885393847
0.320703214965645
0.305065193048236
0.319438575145487
0.3071621221591
0.313256256452529
0.304838616087943
0.314267023987472
0.309264128631939
0.314180050736684
0.309593736727466
0.319284200572538
0.305857723639656
0.312555057964065
0.300282573703499
0.314165817923155
0.303624278981649
0.317469027177135
0.298466702745104
0.307440002395357
0.302474754251678
0.303946755738526
0.307303316052188
0.310091564975864
0.299719117141186
0.302907593537207
0.300750735861807
0.305434653762662
0.297709006796655
0.307597103074332
0.297214423144263
0.305517585564164
0.30279997419387
0.303481823070259
0.304977892195836
0.300637721361075
0.290325662989417
0.298014891126116
0.291760984714222
0.304086899596786
0.292350544602471
0.305764970249704
0.294571606989676
0.299491992248746
0.292569689405887
0.301379304334393
0.293020584390029
0.298047113578552
0.286986311127273
0.291488239954297
0.283823013720914
0.292817067077476
0.282891594283996
0.290156586594017
0.276305721492774
0.290024800732542
0.276352091382223
0.293627610041445
0.279134986341622
0.288114908648116
0.277009657781755
0.291357454672598
0.283540235213026
0.2915269181281
0.272796898796451
0.283088161353053
0.281408651763845
0.286129128633533
0.278276411518983
0.282826284931639
0.272084451805429
0.277959940963585
0.272828933999994
0.283616391230095
0.27193343063431
0.279051973305061
0.271491575102589
0.274824811334324
0.272156705157536
0.278792384708152
0.267887498226447
0.273250487147132
0.269873350555003
0.273115592294062
0.271102808559379
0.269577074919951
0.258714196248231
0.266922363636784
0.261342711404884
0.266461220946888
0.259993967126767
0.266446205695852
0.258231550162095
0.262712292825336
0.259780167083513
0.261256133818044
0.25482439985897
0.256513575787826
0.252116717481324
0.263391785902506
0.254807526817397
0.254575488729946
0.250897755826267
0.255322740699794
0.249287399310655
0.253529509977392
0.24552253081068
0.24943048995937
0.24589001342021
0.24814616613306
0.240927431373354
0.247544046819921
0.244456110937188
0.249105091391582
0.240192355293016
0.247398596607601
0.239650990838223
0.243063305781547
0.236937508405719
0.24320709479278
0.230723896054307
0.248198622583116
0.233985185251404
0.243106686260154
0.22979624610227
0.241768763490389
0.235857205922162
0.241848507878936
0.234450482864997
0.234796299902297
0.232281440382371
0.236942420371072
0.227665694595558
0.239891481576654
0.229673931457564
0.235727169076006
0.22296624731705
0.232848673788541
0.22604120515226
0.227440656642991
0.232517540757636
0.232250250952125
0.218673200627634
0.229643926656752
0.222587183921671
0.229595154770166
0.220007689576993
0.225478617879221
0.218430697821353
0.229270596154923
0.221102844027667
0.226900885612314
0.217050942675794
0.226495362949766
0.212503951491714
0.223438624147115
0.216528529899146
0.225003129343271
0.216058807062558
0.218513817397402
0.212705482790727
0.22462462564895
0.213110747026463
0.220357790816343
0.209415049069088
0.220520791072862
0.213541278969389
0.214353959888353
0.208838813080169
0.217101871228882
0.206786595532149
0.217192092351132
0.209499138868244
0.216816181057269
0.209028173940763
0.215499032148211
0.209310224872882
0.217310034794513
0.207049695514505
0.214448864715779
0.207331526196171
0.207690382609648
0.20818637415745
0.215179659330789
0.204134149615179
0.211218364362464
0.20482064961646
0.206850420551885
0.203860672520766
0.20809465501439
0.20026649470425
0.207640446164459
0.198197761926422
0.20871056823583
0.200542222267756
0.211134549144473
0.203107783529713
0.205027298023843
0.200105827813909
0.206101330295735
0.198020332592252
0.209808567962074
0.200187513932759
0.203508556824585
0.197600480890825
0.206489634404923
0.198157265338111
0.204722369219249
0.199120477586308
0.204096087437615
0.19697126949817
0.199636612734852
0.196804641360586
0.203124778817948
0.195272241317951
0.20008635086003
0.19555447194364
0.202456557013303
0.196208480423682
0.202979027901646
0.192077900921932
0.200486414240605
0.193611668405205
0.198161973604691
0.193939722432864
0.198462170511998
0.187806234802868
0.196421301166046
0.190909963358763
0.196219228332264
0.189395207901058
0.197255883704448
0.189385081007326
0.192558692767139
0.184812575504039
0.193669330588106
0.188751271567958
0.191752328230485
0.188720034595213
0.194963919188457
0.185193963817883
0.189578807424014
0.190186577350027
0.189078159866318
0.188809556443206
0.194105671187764
0.18352633861472
0.189126707616791
0.187070843177206
0.189924669438525
0.187249728785461
0.188128494289047
0.181618627017424
0.188137987369773
0.183575831853935
0.192130208268841
0.181238800108174
0.189351693508453
0.179679602575303
0.184755769362997
0.180344503957117
0.186951869751934
0.180835482750246
0.190449614319296
0.180904067395104
0.182001627727678
0.178690298496779
0.182460247191092
0.179049177235522
0.182914020719877
0.176320236689869
0.182712776093832
0.175015050350853
0.183706981807743
0.176553360487173
0.179105502608507
0.17623037940229
0.18330692002827
0.172899884132185
0.180337880838484
0.172338336887462
0.181588198673837
0.169838664878789
0.179439786764058
0.173005098262195
0.175150563791038
0.171453222083999
0.180059734243887
0.171441397070266
0.174420843608071
0.168558503095253
0.170870092462726
0.167591630289825
0.17482041034366
0.165552931131059
0.169397076648841
0.163653645487526
0.171292358381269
0.162680179286116
0.169234595043447
0.157091566965982
0.169004370768116
0.166817936576241
0.168789276100671
0.163508322154845
0.167997182204309
0.15674281800175
0.165013389294452
0.161855976639717
0.168573971212122
0.160282574755747
0.162458156050005
0.158322117200209
0.160149991012867
0.157561446904743
0.158401396054241
0.15786037611496
0.162352688601782
0.153893267345228
0.160776637253337
0.153667669887841
0.163144469158063
0.150908238223728
0.159955247294997
0.153119860409543
0.15996579935125
0.151916552697486
0.158355462547269
0.150544791727296
0.154381194048122
0.151062159370723
0.160814960695704
0.149781535175933
0.156900135575746
0.148432158894469
0.154918415926327
0.149343981362824
0.15442175293326
0.146674433300372
0.156042759491962
0.147586931477625
0.149647689153481
0.14109138579275
0.149758573768405
0.141031798164945
0.152981405266386
0.143481250513458
0.150270366329517
0.143419516392101
0.146705035584676
0.137187415388287
0.151003770402847
0.142169947221319
0.145941314849695
0.138287788272765
0.144295627927543
0.137982833437272
0.143201126768652
0.135967607291925
0.144031539768517
0.137523260059045
0.142323154238887
0.135380235952857
0.143437848989832
0.1349260389521
0.141600564122656
0.139102934748675
0.141893960859123
0.137412823007161
0.139424088020162
0.1313258321294
0.140370237841138
0.132145291345131
0.142930816723756
0.132439496819211
0.138195979989114
0.131307366076315
0.139585030137644
0.132400347128636
0.142591073522457
0.133646269932218
0.141832951818292
0.130783943344767
0.13802496260482
0.130956441479135
0.139574525829433
0.129375217865676
0.13912300095795
0.131560152217696
0.137833768571884
0.130532707883969
0.137331257930438
0.128072025675408
0.138665931963758
0.130220490995464
0.140763561410689
0.125873821972444
0.140368467035336
0.121779545595353
0.134387466714323
0.114581873628801
0.137733227354994
0.120486262282187
0.137671830822206
0.117807986988658
0.13748375659345
0.115589732539243
0.135640933297216
0.117282484724688
0.14090565070987
0.1177134145875
0.136811020543493
0.110624451002223
0.140316461925027
0.117248608488646
0.146702067105111
0.114090892479965
0.139832676280924
0.121156563703167
0.138355205929976
0.109936855426717
0.141777880396902
0.107019477306091
0.132265006556876
0.101022376720488
0.137214715153359
0.0985092428409893
0.135541671371627
0.101345353971109
0.146766081780187
0.102511317408941
0.144183228741058
0.102062680684332
0.148292301628569
0.1061008129176
0.148181607667752
0.0994892280373089
0.145741828841958
0.0971339636193098
0.145934605804052
0.104536157726499
0.150314222559571
0.104631167049496
0.134952791066276
0.102176373119512
0.142661581647566
0.115172203619739
0.128250884579896
0.117022429818039
0.125166996510082
0.133615893853691
0.101801704743358
0.139878808529518
0.101915614875084
0.150915160514742
0.0886504124066782
0.153751059837517
0.093108192496445
0.150331294558147
0.0994919830849338
0.143010554988035
0.109044989849623
0.133471828432792
0.116175766676537
0.121472956061658
0.121946075195657
0.116831265668162
0.122293389210475
0.115073531117402
0.116708977691985
0.122769133527964
0.112153594567734
0.125288620409036
0.114231592969494
0.121135088402044
0.114578249318514
0.119588484707366
0.116975789024169
0.117193251220785
0.116737395403639
0.117299747980341
0.1155242534411
0.118305010970255
0.114841541141421
0.119528788431316
0.117204396798721
0.119287091389459
0.113878328886945
0.118591087668436
0.117340111758903
0.115473174115101
0.115520351946753
0.12043930377651
0.114753632567422
0.115918608522768
0.116984730448739
0.116915395404655
0.117262572681896
0.118077081156935
0.120360080027895
0.118774971124463
0.116089446876138
0.119011692176276
0.116376625438038
0.11666380159212
0.11598949996308
0.118756389792902
0.117145936494575
0.114754400677072
0.114067055428326
0.119284141810825
0.116326237516048
0.116441368339301
0.116987556826481
0.116633275738704
0.111318478781512
0.119777511868038
0.114426095370558
0.118318796326183
0.116087767618865
0.115655898837156
0.114518591490102
0.112318531648863
0.118080168412925
0.11655473625915
0.115202697351946
0.114321931930558
0.11302889598208
0.117305287871549
0.114332088031709
0.116163310009092
0.115410716523317
0.1176842585351
0.115923912688627
0.117291539063492
0.117477624125535
0.11458914431843
0.116292992816635
0.113456717147647
0.118104250064042
0.119217518159382
0.112989299527663
0.116125955070749
0.114573834636214
0.11297904290645
0.117091484120837
0.115361832900812
0.11483477277874
0.118047743433526
0.11766797549908
0.115483833016768
0.117657554771076
0.116536780280061
0.115090176537276
0.114594068382358
0.118026295876186
0.115971685996245
0.114914217314594
0.116850128585167
0.119781700991763
0.116515755975682
0.118939555437739
0.117376344002596
0.118619334426808
0.119247115300774
0.119078856033449
0.117874621245532
0.117284686477843
0.118426672805339
0.117650385446391
0.118402496703731
0.117584540192594
0.120167730200621
0.118953213265129
0.118404596457275
0.118845900942493
0.116726945591543
0.120556591159485
0.120170897265479
0.119517994286297
0.117570269618294
0.120235278599015
0.117550908457916
0.11982346676767
0.115738935925961
0.116906256983824
0.118517811181324
0.116419001599449
0.117070927039415
0.120946421177123
0.119269969415509
0.120887813007495
0.117277248661043
0.119195741582369
0.119622784355603
0.11995515587615
0.116792761696963
0.12133135234041
0.119250911552004
0.117656442786801
0.118066686637613
0.12071018106457
0.120879522456142
0.118918160790773
0.119582968977786
0.122419453929709
0.118082138646884
0.120989519807417
0.118881859628425
0.120230715721237
0.121240936273309
0.122650820726903
0.121323993358337
0.124196482497674
0.120293996780177
0.118796621599697
0.117862313650218
0.12109249123943
0.119671963989873
0.120898424338545
0.123020933073627
0.124137529784481
0.122306307749319
0.121663650839906
0.122939891457273
0.124208347504853
0.123879755007839
0.125791852506049
0.120868638724798
0.125576957824325
0.124046881801743
0.123587752028142
0.119667229911658
0.119328135226565
0.121764440192394
0.124764330041248
0.120160010381127
0.124355042614507
0.120448856379406
0.122609404435503
0.119529655577073
0.122104741726201
0.12027937586047
0.121636339328069
0.119172975943098
0.119753820891513
0.12206065922927
0.125044684718451
0.118381578742377
0.121930254194294
0.120922262540241
0.119722797209151
0.117750388332567
0.120503081375093
0.116120130720891
0.120500753657174
0.117526977331773
0.117640158237339
0.115919838811041
0.119098523720325
0.117522740302075
0.120318900341373
0.117565860737443
0.121050427042582
0.112669595418818
0.114943142025728
0.116209311028677
0.118002443141343
0.113583526041866
0.116984406549595
0.115255030396825
0.115480710536942
0.113811883326459
0.116679065890239
0.114783661441771
0.114508499194747
0.113828001551241
0.116569022853068
0.114153533795692
0.115805171213161
0.113923431934868
0.114436653868213
0.114748755228011
0.115684394534333
0.111545659217889
0.115524297616225
0.11245241040378
0.115089005076244
0.114841851594863
0.113431434510482
0.110115243815558
0.116700058807057
0.114240939318657
0.112728317576966
0.107152997030688
0.113700652065184
0.111960343242051
0.113113239733374
0.110419668963824
0.114757478361932
0.109449139345792
0.113417652150286
0.110774939838839
0.110287771482306
0.108099511693915
0.111178142346186
0.110990667931752
0.11292957549523
0.110801244998251
0.111952775702842
0.109330377257419
0.114949327881965
0.109932291287696
0.11272766862685
0.1113623305499
0.111128981391901
0.108616894224024
0.109583806564807
0.108074062604759
0.110507599516271
0.107525715756375
0.107576469426849
0.107322605313979
0.106499595572961
0.104758617194476
0.113509039835386
0.105703987502223
0.111567999985315
0.108015700072563
0.109849458042244
0.108459873635632
0.10761954364513
0.10397590015118
0.109584041976976
0.106567400634176
0.108060177773004
0.103376216013934
0.107906862269672
0.10550261676107
0.106825607155428
0.101941188193231
0.106013538928096
0.10564838278644
0.107552031733331
0.102795280178941
0.107698700974403
0.102677602640406
0.103036071717757
0.101877186670063
0.104232964502266
0.107210140718569
0.10800913984844
0.101169797845189
0.100852138804204
0.103498361961484
0.103362949752756
0.0981030862772252
0.103652964053161
0.101997162848099
0.100750138015352
0.102066525153228
0.100845178778938
0.102462946517017
0.101340136659577
0.0992656335057038
0.0986352096491483
0.0971784815155502
0.098472677842888
0.0968169709010072
0.0966721447872928
0.0966011283497622
0.0975791433578349
0.0968855462808416
0.0985758413055468
0.0986239282617942
0.0940691748214951
0.0975941248468981
0.100028777775287
0.0941033177071159
0.0962306400100576
0.0899857735722663
0.0928080538643087
0.0898703652745044
0.0945925516730888
0.0911952338445371
0.0947097827671326
0.0911290848907664
0.092329589658721
0.0915207446511438
0.0914612143937902
0.0882126109039602
0.091946726232658
0.0896364412507138
0.0941633013427783
0.0888038212083915
0.0898794758318109
0.0882345656499362
0.089169233640478
0.0856646995052656
0.088234749577643
0.0862787669097144
0.0880276587711766
0.0820177102054503
0.0945680688546313
0.0866532120791646
0.0881437806745022
0.0852056806561769
0.0875578340621802
0.0860914537558281
0.0890689061738597
0.0840543904992464
0.0898693153291381
0.086038185718303
0.086268305949766
0.0825137759652358
0.085818765722569
0.0825385719064005
0.0857814844935857
0.0858773210996299
0.0863985194605477
0.0831277914144921
0.0849506557050443
0.0818620774641819
0.0860498193424384
0.0831051495155206
0.0852875357136416
0.0813323000512105
0.0876684288574834
0.0810142758574016
0.0850693998632281
0.0804411940300881
0.0821195513926241
0.0842894948505156
0.0817905163698835
0.0800441104245316
0.0803441291245755
0.0812230606844398
0.0820025722374503
0.080195474194476
0.0835498169502477
0.0803021063749891
0.0828900614870181
0.0790389485073673
0.0814719837697403
0.0775207794436933
0.0798588733335922
0.0774670798053157
0.0810316412759406
0.0780425046158067
0.0794560365794153
0.0738238079465348
0.0763428400100881
0.0775597833123386
0.077660736156645
0.0786174348425669
0.0736409025912327
0.0895144730611782
0.0777833947737021
0.0761661411206943
0.0753318324640141
0.0745456545863653
0.0762017747711169
0.0757690735732247
0.0749962258970312
0.0732393126234755
0.0765062374377893
0.0735994615359406
0.0753915583162915
0.0769337576402281
0.0782454218052768
0.0751916603004108
0.0744354973242109
0.0738543132530825
0.0757436873196858
0.0742055416855054
0.073055580936566
0.0713691749022679
0.0802984155612046
0.0780655817627973
0.0720515034221637
0.078984284810818
0.0675957622847881
0.07548087764262
0.0876201566920502
0.0714861592685858
0.0795057318609754
0.0697392868784288
0.0791603808700368
0.0694228156657457
0.0816548853218673
0.0688124225720104
0.0814962406319671
0.0716204930998181
0.0788736982081083
0.0743130046456739
0.0771912967669433
0.0700366604669252
0.0776211709205292
0.0727218634317151
0.0739234545898476
0.0742081309723942
0.0736426291651669
0.0713746703488099
0.0744394228764881
0.0732987189699761
0.076533068924358
0.0655000857617516
0.0818460641684788
0.0712642706742562
0.0758539356533051
0.0720654795783632
0.0754291706503772
0.0646037687815166
0.0906459291675428
0.0694844379006108
0.0723173744590107
0.069374030679638
0.0754908753237976
0.0714195485399018
0.0755535044023484
0.0728379319256245
0.0746822644191203
0.0705992646208242
0.0735069599852878
0.0715906420327232
0.0734406542922609
0.0728580949092251
0.0759572382191921
0.0717711162441138
0.0705739999825611
0.0749387853667377
0.0749312758601361
0.0746421944995356
0.0700253579884367
0.0669943839926709
0.0922242375543753
0.0700459481877421
0.0828522461563586
0.070504025388285
0.0780100637800684
0.0678947444446126
0.0792239306137863
0.0657126211882425
0.078256804846993
0.0701032047412818
0.0778069413889359
0.0695587884336245
0.0765646653841154
0.0697499822284989
0.0768584682602157
0.0672298615763922
0.0793060897217056
0.0699544261324321
0.0776544149058577
0.0709437040914742
0.0764902191646861
0.0686687792106093
0.0794584147874121
0.0730008574011548
0.078357613306497
0.0664955922046126
0.0703151394443552
0.103231471235049
0.0653215281514882
0.0817951383700962
0.0726163211359664
0.0744000887889912
0.0725738016947921
0.0721405069819844
0.077751054430561
0.0784033718616227
0.0730861704547654
0.0754523497094482
0.0710699311060585
0.0781732828376266
0.0746668947686159
0.0664623671577969
0.0883728761233679
0.080575431718314
0.0759956715984652
0.0823885988516066
0.0619840701136194
0.0891636087393732
0.0777967267884168
0.0739203560665001
0.0823620151537473
0.0731876805871806
0.0794889195893412
0.0752839085941031
0.0781930696717391
0.0745193479655946
0.0827392209997382
0.0733067690109196
0.0813871680203285
0.0739458332457582
0.081601824504229
0.0793528167207983
0.0832604086750819
0.0859290534065075
0.0792302703055129
0.0759192263365937
0.0858023211845118
0.0751883195921147
0.0820245479574408
0.0778497679235195
0.0860400698932475
0.0771737002992525
0.0907292202879481
0.0750484251379662
0.0831466985521107
0.0878677819045231
0.0774422182643224
0.0805739722440717
0.0855879622931604
0.0812111147843552
0.0910955178066881
0.0583523125423486
0.11354760443135
0.0748797049166321
0.10027767804976
0.0783721615062495
0.088502596813264
0.0781755472145544
0.0903173629012156
0.0773150106531555
0.087480797773232
0.0910494816780747
0.0804009609478512
0.0886645164411136
0.0800528537271451
0.0962191457339452
0.0822892000928983
0.0911886810398325
0.0846784900085388
0.0885123999150603
0.0809466467459659
0.0984773480181085
0.0717963530735195
0.0987349895403893
0.103764392011873
0.086944705535421
0.104451034720017
0.071702679074919
0.112947149614116
0.099018587469012
0.0901474018796763
0.0933432436835582
0.0884895464696998
0.0972312815909494
0.0754516822306999
0.104097736677835
0.103759572524398
0.0840909294523925
0.103270049508163
0.0850678036525406
0.102533516377749
0.107866128085989
0.0927122442951433
0.0958064091116565
0.101696552110043
0.0884083070190115
0.0933981431142812
0.125990129707548
0.0811699397439504
0.129491737802719
0.0979596538282086
0.115790258964928
0.105189203774686
0.11174247058229
0.100070760665626
0.117967315184668
0.107858894610823
0.108162593175435
0.0981740278234113
0.137148631313215
0.106907641780127
0.117789671264483
0.116471408241264
0.103788891026915
0.117882327278385
0.149348934161523
0.130079630618206
0.127587379918082
0.115203414702994
0.137562693182998
0.129971182762565
0.124240461724552
0.13087051034754
0.12583328871158
0.129138225605402
0.129285923972005
0.138090155402595
0.13952911982499
0.132512961726809
0.143603256609164
0.126762956927519
0.14599378590881
0.141708328353621
0.174167852345068
0.13879224680648
0.160641468609156
0.166176758750542
0.147961569507189
0.155117043382115
0.143869848972621
0.162974037151153
0.157959573453184
0.159424965556956
0.156938231331055
0.166791452459675
0.18126332933325
0.148911757249426
0.194529623750226
0.168038222128381
0.182868527026564
0.13369941428371
0.253137407919483
0.217098660732857
0.177825741914524
0.214560821238766
0.144493113840317
0.264344812117298
0.213990214000959
0.215022990867189
0.217959381833428
0.230427638078184
0.227352403598337
0.241416027430448
0.236800297496643
0.252731643660554
0.254495286941171
0.253840261755641
0.235763048289928
0.325558635528331
0.289759546470148
0.309489755160276
0.281380202493526
0.304325496689321
0.306794705911008
0.313456572026154
0.307697198456501
0.341465463666645
0.288962358727135
0.403237746842286
0.341935063857532
0.360239446065319
0.350002202635534
0.38525448928054
0.364351585239446
0.391226321861156
0.433312702087247
0.385440932443747
0.416935736717332
0.40102827638661
0.430634498524383
0.405570167832349
0.444178199370152
0.456753681064837
0.444034237401483
0.457992565496394
0.449557588998573
0.467040429394618
0.464333294362323
0.481240420972204
0.462821122696915
0.489365970084171
0.470426380399899
0.565018043686066
0.547278899160372
0.483047727111817
0.508500287826181
0.47247233947835
0.524921750959425
0.517072144012777
0.509819880773704
0.550619503329705
0.498028518920022
0.51881794166459
0.504036231464833
0.516372405126738
0.510456091981593
0.523477133193834
0.513839344976078
0.511793738467052
0.53163149535706
0.476872798843497
0.613030921469028
0.518983514739569
0.520998918065673
0.516761858217998
0.522619491174467
0.514288346135348
0.527192649300835
0.495909414310371
0.532886597057629
0.508627848332373
0.512828679284637
0.499266052592829
0.489228306131715
0.523768089617861
0.485303625200834
0.489340194422361
0.478197253900505
0.469899621359223
0.464578815563332
0.426038486253317
0.50623194927934
0.462609779942655
0.450580936893338
0.458815542333628
0.453602457864358
0.447045590184775
0.445099700450043
0.444296401519002
0.44454066056351
0.442366475156533
0.435142520151936
0.428530202118036
0.424787685577113
0.431837170541683
0.427695187140828
0.42807330765894
0.421114014848178
0.436668813554767
0.427817138313432
0.421571645203229
0.418045169103339
0.425268880475238
0.424165341053364
0.415577051252092
0.420505595216375
0.425388916861278
0.417758926143181
0.424281706596638
0.412089785692781
0.417166410374735
0.418328173956537
0.420389027540701
0.413071309551425
0.416453508946811
0.411116493387623
0.421270641887216
0.410673062131507
0.417481521326529
0.402228535995735
0.405075096806466
0.400331220266579
0.413488265517597
0.392111996311174
0.418895774101939
0.443198478257644
0.388056954715809
0.417276113831265
0.391438269679637
0.404383271082247
0.380163980119367
0.400825574416199
0.421765368442813
0.387786093741155
0.394292518445852
0.380328188958993
0.376677437355484
0.393566097409851
0.375086670357866
0.380853565870138
0.361643298363856
0.336652647280884
0.447237258454591
0.323525462808886
0.447041554202116
0.372655516393544
0.373052773893494
0.336516705416573
0.405790147367302
0.361917603898488
0.363339425295576
0.354883491330049
0.356428153752325
0.377699910794363
0.348007833568966
0.351674669446372
0.340883718051225
0.34171582912344
0.368125086399275
0.34886935003869
0.322748952507806
0.373869198172649
0.340425907639979
0.339691465581177
0.365904816129685
0.353035081479846
0.32948182015367
0.31694814063177
0.32525847067203
0.305871210165446
0.352662533031588
0.326604526589626
0.313122941691257
0.320078183383708
0.298243564980683
0.312459466311856
0.300850961346901
0.321989360281789
0.28564232467956
0.327272252232256
0.298701431760373
0.28466104369538
0.317800413259263
0.287737197891953
0.331682807854961
0.295376251279549
0.29281527032593
0.27155605745274
0.31860561357624
0.284016445608358
0.289422411739062
0.280912493413132
0.271565421681346
0.288968817107108
0.281103118440632
0.260779083327701
0.282674407747097
0.259072474429002
0.291763144887595
0.290929306612342
0.296358903805728
0.282143217600003
0.260953033774112
0.263802321658806
0.266715572791678
0.267143256447233
0.263349283057994
0.247401817379095
0.292869853901156
0.238332773513047
0.312235241063196
0.280863174908363
0.264298617974107
0.270328806467111
0.274389622589573
0.269733381770214
0.294492423546716
0.289949675669899
0.300763164037229
0.268584842936398
0.312391608281987
0.288981959489075
0.302319012619317
0.291931964753702
0.307067422056703
0.304205341121645
0.31413407332978
0.316911827474139
0.329896674035777
0.323217731388583
0.337057358489851
0.320575059192329
0.376651619048823
0.337636369817188
0.359811492969919
0.375743184032579
0.380297386585589
0.394972853418448
0.374835909325372
0.395369251022807
0.394807708275395
0.400576440030348
0.412728243003075
0.392676953907284
0.443153762153711
0.420444178798807
0.426704463814603
0.428751000445552
0.430982397776695
0.431956189389067
0.440568094724399
0.466532384640918
0.436365332161484
0.510794506194065
0.452788737999758
0.472701442950156
0.456087360450606
0.465500189978486
0.466620354482155
0.464192417532613
0.47600678203305
0.455777563150409
0.479732921849495
0.481167125360156
0.472926087788906
0.482658902082072
0.478150795096194
0.484883275844777
0.487765970765661
0.486589004992223
0.494208625848362
0.48827295781421
0.502890417633626
0.477169393544526
0.541805152841616
0.535285700613264
0.498866252117514
0.52594419675009
0.514871583901069
0.529875556452279
0.521077820474669
0.527159127186425
0.539289301188405
0.537083795383686
0.547018669767589
0.538733457500515
0.549077329019759
0.551388301387261
0.565152578784544
0.559637334005008
0.54691862205379
0.558282516974347
0.522843683732715
0.618654271998789
0.554781885201489
0.580004769484439
0.568687447890338
0.575387108191334
0.576036537476159
0.583072561869089
0.580781987040421
0.583885799045562
0.586379626558718
0.58694460249903
0.587138602311558
0.585895365514046
0.585116939232835
0.584236555082592
0.600133045241245
0.590203060063452
0.58380936863368
0.583673382185051
0.579470813736647
0.581633858112518
0.575110060759049
0.608571622090839
0.571072738779163
0.585187305349334
0.588459631101222
0.598158519222107
0.592048665426757
0.57797006866151
0.576729233465352
0.585240327150593
0.576543079662861
0.590704613641583
0.577395562683534
0.612841307837657
0.599654136845363
0.59930704108544
0.598690651743044
0.602267577043261
0.602357078867974
0.601540929598066
0.601610987420498
0.616261068619929
0.613853109152896
0.619115698285986
0.617320731052224
0.612482537414781
0.626840474902165
0.621891022214665
0.631771894974457
0.620934005548837
0.612390769717776
0.622692703663167
0.613679650090835
0.624379312577694
0.607541336975693
0.61060537292248
0.60929284067361
0.602109802714872
0.583640366543686
0.60068611498947
0.597241578713227
0.583970151394127
0.591547446258131
0.572253315984353
0.580135973419927
0.56907967315426
0.568624865280988
0.56013439869321
0.562547721328524
0.552677309599853
0.552943626814477
0.551526782800547
0.546883481580224
0.5468610148353
0.554611814562253
0.550089470522375
0.541694410442908
0.549400496929832
0.549291851036973
0.547762282519651
0.546399254404263
0.542522495848464
0.544396023737187
0.547597720789081
0.549773994702222
0.545375869337186
0.550814492315238
0.536420406328563
0.550743552676838
0.534476924800914
0.542980606409721
0.546460084601339
0.543931246971401
0.542133109452588
0.541863200907169
0.540311837366517
0.536817616027678
0.538066118258934
0.543739044107846
0.547158912348795
0.541938996376793
0.534083464280512
0.53711271143508
0.538612266826213
0.538214557608862
0.54249408399612
0.543186233551721
0.541799573792603
0.532848404096848
0.536959317509725
0.537970270032697
0.537768308280824
0.536977724704297
0.541822599485154
0.541478912202824
0.533764585938601
0.540392088933792
0.540055779360074
0.541965100820767
0.534501908177336
0.531795062968242
0.537228129962454
0.535543959561306
0.529782386037023
0.524809001107746
0.522727950905716
0.523720662118113
0.521907692580503
0.512975231572505
0.50252475688104
0.500566629133119
0.501117890381487
0.497100301511575
0.493781241145015
0.488514883970787
0.485854570215689
0.486350635570778
0.481454903860863
0.480355442206953
0.476264021291489
0.475273824306923
0.475609639509632
0.475705832436193
0.472555178251454
0.469280951641128
0.469760894444568
0.466158327553745
0.466935092434359
0.46890589992253
0.46536828947501
0.466537818372054
0.469994133860277
0.468813463952163
0.469492334840928
0.475385248267618
0.475799847420012
0.471405642993746
0.474046816410213
0.474724272513887
0.477473268165384
0.473766653043644
0.48067580610199
0.487743863167272
0.48544523657864
0.485622780783747
0.484919500768962
0.495475568944944
0.493741855169647
0.489283929316103
0.494063831135737
0.492872009935356
0.493912937915998
0.496018700625801
0.494354917661277
0.495809857295704
0.491560346285725
0.498753160277701
0.497734645977486
0.490275201517205
0.492383731395554
0.492409268893023
0.486489337729156
0.486345145854576
0.484953430612151
0.488691292785734
0.483716222786795
0.48100661908216
0.484048405412235
0.48087185766923
0.479094585615416
0.474689123824566
0.473199745458215
0.47400256326498
0.467228225933025
0.468654005523419
0.466865894281589
0.466245231739368
0.463416873886314
0.462742604632633
0.462753973975908
0.461773349188239
0.459364581246195
0.459053781390645
0.456635927788633
0.454136278753996
0.454127024153469
0.453698336638045
0.450908949099211
0.450519894663477
0.447189923697857
0.448942803657788
0.447930619461807
0.441807933181754
0.435990376310894
0.438449164996888
0.437525785182086
0.436454679100406
0.433061377516379
0.430064979657662
0.426089047033707
0.421674206101912
0.41900158956871
0.413218932606677
0.40829391108804
0.410010537320007
0.40763194930787
0.403312553438246
0.401807387878213
0.403972983941789
0.401013454850126
0.400538056053193
0.400601612193396
0.398475391550483
0.398632581242498
0.397844673205411
0.391047335938218
0.387465215590186
0.385008928958695
0.384858569335724
0.385036256655118
0.377905898667401
0.373941520764006
0.371310375989923
0.363832501140101
0.360087445371036
0.354729148847549
0.353129031418978
0.350970359238893
0.346577391374562
0.347583105469318
0.347798864177485
0.347126577563274
0.350212421325531
0.355067396503058
0.362138729032287
0.369250733035659
0.37871510118281
0.391068705626701
0.399847291472772
0.41091246977265
0.430052287268183
0.440731235571814
0.459083333874116
0.478815288748532
0.489982428866305
0.502682915138471
0.521101028380489
0.534917251009319
0.551347484127664
0.566101858900769
0.582769607530204
0.597059572893925
0.611461155042054
0.627139105451764
0.638645122782162
0.652981847929752
0.665579672763831
0.674952380299649
0.68359244223303
0.70092126383888
0.710143762340096
0.713498488244182
0.71992090987013
0.72218390239601
0.738620739172979
0.743563800954083
0.737896389774271
0.748185533479472
0.751712648708219
0.741699236079418
0.751995115462576
0.753798054230017
0.756458759384851
0.757405806706807
0.757174313681852
0.764614384584579
0.763155381898906
0.760686605789524
0.765499025268963
0.761822371738543
0.76775598105508
0.769016813071639
0.77071742302452
0.778674990578556
0.782997421404328
0.787594187251995
0.792007525410386
0.799945612398999
0.809420101352153
0.816931813903933
0.827217434987083
0.827890455884674
0.84705218822883
0.849531699515315
0.853167401162657
0.872071040769281
0.884747595020259
0.903802885955876
0.917307572599276
0.918716987039429
0.932876597888246
0.936935985132867
0.948292325872126
0.962228174068212
0.961201286235159
0.960518515439136
0.964493870766518
0.962583124368632
0.952169258049746
0.952130367407248
0.956864057105842
0.933794610870069
0.932714228228905
0.92931390036973
0.931193678735528
0.930117070022193
0.935999125412611
0.933338865253586
0.945701378130546
0.968843882079004
0.974585593447888
0.977573365865888
0.999310926666509
1.01553341759671
1.03300184584076
1.05040042037011
1.06482873686584
1.07104266334518
1.09816389020588
1.09901825241687
1.12750297184268
1.15511341990273
1.15172150136746
1.14708285686821
1.18535884343389
1.18239387217711
1.19620197124013
1.22502777334941
1.230842337231
1.24735550243126
1.31621703389734
1.34220450040738
1.32821761247155
1.35100296513243
1.35169772902397
1.40756983656815
1.43847081184989
1.41315630191135
1.4726740536122
1.4753533467791
1.48415738078498
1.47958767615459
1.527939580847
1.5388542500333
1.51683087725214
1.55985008776481
1.53521570031025
1.54244824794515
1.54126473335697
1.4840155723374
1.57494526029794
1.55942573429759
1.50383809946524
1.58115832067694
1.58988641222578
1.52242716358859
1.53896272888352
1.52491608424472
1.53031879460115
1.56283711505435
1.60355099752854
1.57368679529052
1.55948186679419
1.5429922340068
1.60954182673087
1.5684420528533
1.59168772534468
1.59916593183232
1.62922717745378
1.66280623596208
1.6491991310039
1.65621460039933
1.7294081520944
1.72214540676219
1.80128642333517
1.73666345858246
1.72130712554156
1.723029006943
1.76481546917926
1.8143989461566
1.95852814520662
1.81534302549808
1.89940647539213
1.85207514553697
1.80616151429393
1.86245877107096
1.94265266484624
1.85814088884034
1.92589609654902
1.78928134438683
1.9216658723842
1.95775620753602
1.9247487149816
1.87278829671851
1.9159898929246
1.92421589583627
1.94435940525305
1.85969256795871
2.01442872226124
1.86410737004838
1.83219177646676
1.82606462961001
1.94822555741569
1.89893343524438
1.80743199684264
1.77370989261657
1.85058694238951
1.7553571221476
1.7951869256627
1.76169686430549
1.71920123911873
1.67302499128814
1.68765456980168
1.61338978333819
1.5717646119554
1.47276105053502
1.51084413229197
1.50069216012117
1.45713400685915
1.4576230918418
1.44246261743006
1.41679491571579
1.47336960938719
1.38146962509285
1.37010146511024
1.34467298026288
1.46341230899174
1.39209290969312
1.36981251060906
1.37493982996499
1.37121552462112
1.3236658187697
1.34117384639546
1.30332100807015
1.29467760435048
1.26115039601523
1.2427265491174
1.24505600788356
1.2180096871321
1.1753631300576
1.17467346043693
1.12117400909542
1.09819684017361
1.05240766716499
1.01597978358909
0.977608562192394
0.947147945636388
0.911369871188329
0.873785672813288
0.830658627533394
0.814125103525078
0.781631431652775
0.754652953297306
0.717330708459253
0.697501190636832
0.683639072110586
0.656978815973073
0.641042905093825
0.634101407431314
0.611772818032421
0.600581721239331
0.590943106383134
0.586884921464639
0.574386527171228
0.572970367807305
0.566594482874491
0.557027584425244
0.554667669606481
0.555498134585461
0.543679261241738
0.552841052074598
0.555736443391884
0.554995298429735
0.554406181406045
0.554251157005158
0.567217103902683
0.554430474843036
0.55775242595568
0.551409576785418
0.544965233717382
0.54340442907965
0.5460340075888
0.539107842778134
0.537858197760625
0.532425055057796
0.530577578748539
0.528761110690709
0.519691083929605
0.507118697232549
0.513574132503007
0.512657767745783
0.505929249947014
0.513000566739927
0.509742088256155
0.505358816381178
0.503457610984065
0.508274744847089
0.524711406342347
0.524835628886972
0.52395836011733
0.531701677463354
0.528728450530411
0.518163570259766
0.527880444175436
0.535531543455909
0.535348051513677
0.54355099069017
0.532750439581916
0.536640765866512
0.542191370627945
0.546597184577653
0.55155716009184
0.542113799853792
0.54713529005968
0.542561818991457
0.544307138727774
0.547162329152281
0.553881180638994
0.548298118769292
0.551516590772158
0.555714491558369
0.561628650552017
0.568706881379044
0.577012061357399
0.591550846736716
0.608475378161323
0.61642094209702
0.629323297945964
0.649857658789082
0.650184008867553
0.671530692689527
0.678949161451979
0.684698682127688
0.694581845468687
0.709526764812697
0.706492804661346
0.708464491152621
0.682201432204333
0.674368592904355
0.670535387691688
0.68032391375532
0.668231289769537
0.6562687171075
0.652529775391065
0.669973297826103
0.646595848621701
0.645123168488684
0.633658604907845
0.647898280890616
0.650300384427619
0.661697451056008
0.63838993325059
0.653139179303433
0.650148564034229
0.657074918558739
0.648652850425267
0.628893651609831
0.612767207217824
0.621208688641093
0.626012627770241
0.609889102318608
0.609157727751031
0.61401475832202
0.60159676820276
0.596981825489794
0.596945726515222
0.591894982735351
0.577786336697985
0.58584015822935
0.576642682393309
0.585900408186932
0.595626399328033
0.579082311110496
0.575918160221247
0.584423646947171
0.57010664713045
0.582113745510442
0.575419066966402
0.5701217489454
0.566505150093782
0.558165688523646
0.545121839395624
0.571390006340185
0.572158894301797
0.560627789774388
0.566313123401427
0.55450427699489
0.550257031165942
0.5450938841153
0.540753217250162
0.561006324164504
0.537839690325057
0.519223239890535
0.525763338637687
0.526799041048764
0.526790353914459
0.529527308130366
0.519893196299425
0.526849158908808
0.521258574667201
0.533197132388427
0.520154230634407
0.533401581626883
0.52186510715688
0.532958778026714
0.549617658773146
0.542198253288486
0.536349660801206
0.535016923381638
0.534646077702697
0.533918894338651
0.53255808670774
0.525718079604077
0.535167598300787
0.5508189167923
0.516730744429919
0.540023865398049
0.523598492110982
0.558692317885803
0.554206824089163
0.56328704798757
0.557344176118167
0.556666409351401
0.575141108868028
0.55681205386827
0.562012566437795
0.590114595957247
0.575788881522019
0.60821694371858
0.593992537300613
0.606765262040342
0.585676316918094
0.590384335181631
0.600295316411382
0.629319783931409
0.63132483830325
0.655116663135831
0.656375307091102
0.674415309267154
0.702167430873501
0.734322627651164
0.713196878656185
0.736780004438618
0.727459673959512
0.76772367442896
0.773488973066881
0.793878436774941
0.74694219907476
0.816871221786403
0.775595566294392
0.829112806309118
0.881915141062779
0.836793001438872
0.851734420404963
0.889453692931882
0.819173740184068
0.844344707747762
0.844094195524736
0.891789264742137
0.851650580444398
0.826122896808077
0.825130744044105
0.862432086900332
0.827237009315846
0.871075946260255
0.857613653052445
0.823293508167494
0.829271809133962
0.86364473276382
0.836253024833734
0.840139323522783
0.826211946450618
0.857603596323969
0.869354779767947
0.850664965851726
0.825329092854493
0.825588947301704
0.79460948685211
0.749915286643306
0.789025915363719
0.78708321328198
0.748927218468461
0.74895040436343
0.729762668040886
0.802524928888482
0.789372948538314
0.815178309107154
0.71955315993306
0.774653951329167
0.75519059317614
0.808176383338539
0.730295902693791
0.775250258710569
0.748934313092405
0.776453587830083
0.839017887635669
0.761498723862732
0.799949114208674
0.823163942872798
0.814032514471059
0.874672607290159
0.764887227775942
0.85968665071652
0.808840259974963
0.847555845313084
0.780048725039829
0.894693266468647
0.822249353993519
0.793284208040239
0.729810764183433
0.879272700287147
0.783175301469431
0.785695805231434
0.798896817141542
0.909538574721844
0.84876011902873
0.861069940805279
0.758962020774437
0.846461681659144
0.872385812849063
0.874227629357161
0.889587369347408
0.97602646942098
0.937268323573912
0.844294133457888
0.935520713452884
0.995072275353783
0.923672035221403
1.09595488163792
0.9586229697577
1.05832473279117
0.879166045444001
0.92406156516847
0.866250496112773
1.13753050899981
0.98313389953699
1.00683539846258
0.934713844064361
1.36248609904597
1.04790391390395
1.32905339052572
1.08439780339354
1.16055002363589
0.870144111490511
1.86947526023185
1.02865162378326
1.24379777340924
0.860412973554084
0.981479977074338
1.05274061921908
1.32220380859634
0.990790289066379
0.936795137338583
0.996145174657386
1.05202222284242
0.911468403502381
5
1.25237529924804
1.02217066727628
0.736418613721955
1.72006111248008
1.29243120883833
1.19666565568223
0.93222740790166
1.00128780531452
0.792107900693643
1.72469304201239
0.89646352570695
1.09825769245836
1.34860228469671
5
0.711603571429498
5
1.18588844103589
0.725228935475557
0.680522600614911
0.915850232803428
0.831181320704473
5
1.12927050251897
5
0.844415967494403
5
1.20243302255127
1.06508897048553
0.965872618122945
1.32104340534662
0.926646529176331
1.27817135053774
1.19184373996559
5
1.06518796949217
0.994430686143158
5
5
