3596
4000.36533379555
650.420452594757
1
2
2
0.0492847922923307
0.0376846164661541
0.0404834238779316
0.0424058238402038
0.0404365460597985
0.0458755374678308
0.0435994701994748
0.0428683172926967
0.0490207101106515
0.0471284965846628
0.04329943569043
0.0482778153256703
0.0520953994949949
0.049214124524338
0.0469037628064452
0.0333499155445902
0.0410196409588472
0.0426936937260071
0.0445463728279944
0.0389609030219388
0.0404438316309021
0.0344886204904744
0.0416216839427503
0.0432896708742499
0.0492436202962467
0.0410759672599469
0.0381179410007175
0.048609460842623
0.0404895474511586
0.0349850427558666
0.0473549630375888
0.0417462788793744
0.0442178989025301
0.0415115173762937
0.0443761598605658
0.0511666473322666
0.0517881000590299
0.0477469344825769
0.0403157148807143
0.0378270338412228
0.0440097840515115
0.04271487199571
0.0501795868364982
0.0424689472189079
0.0458099202325541
0.0511287381280276
0.0447766826217928
0.0448129737607807
0.0425653965320533
0.0375728427196345
0.0430398514948448
0.036391628671225
0.0474404162879504
0.052260234691066
0.044617411374392
0.0543190184252257
0.0470589697667449
0.0365411912712057
0.0410670135258783
0.0391891248919577
0.0551321309228589
0.0548399796605874
0.0406051100987495
0.0352155520764787
0.0343716103675659
0.043318743620397
0.0387109789293273
0.0367884522771489
0.0392397723156482
0.0433015226632094
0.0365686624592489
0.0406719617070213
0.0563451554227664
0.0407102135759975
0.0479212304478953
0.0484879525879158
0.0363429673745922
0.0368759273074599
0.041515661456253
0.0472025026918203
0.0552552149874128
0.0481767605644446
0.044087246421692
0.0347119627064855
0.0358210675306601
0.0462877062218784
0.0328105291649601
0.0276770787733102
0.0505983360652558
0.0506194535082623
0.0390812696914618
0.0400364394793362
0.0456937501942428
0.0376749562806943
0.0386137767207903
0.0397835943378679
0.0374578685130162
0.0422552754824499
0.038473433412568
0.0493336985498344
0.0325850651210597
0.0311938343186177
0.0612011425260943
0.0398395535224258
0.0709227896037151
0.0422713528083523
0.0251196826933637
0.0658297647891956
0.047673223964569
0.0382593291048674
0.0408650852721094
0.038325136921835
0.0418870376304977
0.0434267056304654
0.0270088596680769
0.0395660582357964
0.0660213571029258
0.0457179767103582
0.0398801948174518
0.0385664849663674
0.00912355961912365
0.0381804657150068
0.07036143531685
0.0340908448160827
0.0420013616884366
0.0393954563642186
0.0215005180601895
0.0528065157629044
0.0635479700966238
0.040216080557266
0.036814999479804
0.0414195527171535
0.0331835963354943
0.029905757406243
0.064907277134172
0.0480093554892121
0.0358899206479718
0.0261306462295681
0.039143598423179
0.0774224360483209
0.0525557470813873
0.040388650291324
0.0268761624694487
0.0254293838010896
0.0615322205589927
0.0464464675706573
0.021121034514904
0.0454834187877924
0.0482009139118294
0.0367325031883181
0.037714501543198
0.0318714424292255
0.0526338768153233
0.0386991049664083
-0.0109871451360212
0.0538463150923565
0.0796871042634948
0.0404473982235078
0.0672640828260113
0.0427679588742693
0.0470621848292441
0.0461486455062736
0.0343292962215045
0.03295086357884
0.0400502487988821
0.028314696322157
0.0385514266215922
0.0587078823550145
0.032027637568756
0.0335328539246923
0.0597963898845408
0.044076917432729
0.0196415809883464
0.0806893702388844
0.0549375633873993
0.0211435636013751
0.0572575008842275
0.0497452205010588
0.0187214525889593
0.0344428887358254
0.0518187762824372
0.0435168196760335
0.0396920198214883
0.0288628156110416
0.0327395359557712
0.0474359056328331
0.0378043881179004
0.0381319630365281
0.0409984583447941
0.0185832334125458
0.0259705724493788
0.0706601252853004
0.0615440108453626
0.0483886568813142
0.0459867202941355
0.0169180559087039
0.0481713666832481
0.0696283196548732
0.0443194539637088
0.0406281049736159
0.0357558490761175
0.0371548986364457
0.0331654183404433
0.0388938575598835
0.0231890295197519
0.00836137334865294
0.0572958726222726
0.0571675005103079
0.0402550120470751
0.0355430680658873
0.0315642797354484
0.0194244505046479
0.0681250906918586
0.0635356365706445
0.036087168231611
0.0379048007542366
0.0234365264052391
0.0515068068468569
0.0625478075375688
0.0428429753368737
0.035672035682788
0.0356849225850314
0.0356218372092055
0.0347764462822791
0.0378644348489371
0.043999196529954
0.0430876664057127
0.0403788953167642
0.0374587483054854
0.0410559691983675
0.0460360698159388
0.0418663601002791
0.0392710392997946
0.0441080787793374
0.0231339754965199
0.0408599109864815
0.0576347062500214
0.0467112065130876
0.0416199520816454
0.0369652036938415
0.0327871445356376
0.0336571311280107
0.0343543462135062
0.0414926155155679
0.0272590760114708
0.0300730429172487
0.0542437987659233
0.0466717683383894
0.0396095913867115
0.0294129239528037
0.0470034390428018
0.0461526847736466
0.0391149216030114
0.0412825418417143
0.0418310672146069
0.0299131568984437
0.0252557474330531
0.0523442825155172
0.0411021712625402
0.0389728640351527
0.0548009991896947
0.043601582986775
0.0395343698571451
0.0227427217646128
0.0115935365374377
0.0735592858362552
0.0345804435017524
0.0233622991980672
0.0750041060145368
0.0508752319316165
0.0525554749932685
0.0293190626803311
-0.00661335346877107
0.0970330887148424
0.0750628905268255
0.0430985820914985
0.0496559184964897
0.0570885496486752
0.0354034126517603
0.0437480506625617
0.0369344995536867
0.0367477002829496
0.0399854551576752
0.0720762031686607
0.0749887408067968
0.0289538785021704
0.0548647422625193
0.06651575029982
0.0395867141723619
0.0434189317631754
0.0399713508910048
0.0382350642825436
0.0504995693955775
0.0513810030244141
0.0545821030863126
0.0419702578637713
0.0408857569402033
0.0617698038476982
0.0498576149904313
0.0394607461432969
0.050979385462243
0.0490628035508921
0.0377628053858822
0.0410007837389404
0.0417839229383624
0.0506596832273
0.0252635586594121
0.0220679047676083
0.0736042226207236
0.0514443790783092
0.0442795863828865
0.0641265489546256
0.0518069173460671
0.0449815188037906
0.0450210340880071
0.0447674846450826
0.0468727564731951
0.0413532808380137
0.0373177580995204
0.0640644837111101
0.0493655674341275
0.0482241830404726
0.0476699751257498
0.0427675752217712
0.0465853136339074
0.0470269697740787
0.0422382999405763
0.0460070650691424
0.0478637612611354
0.0383910426667886
0.0570976845844626
0.061204181322616
0.0283441777489994
0.0696706750986544
0.0771026131376399
0.0586495643581958
0.0510653299203769
0.0520581989501848
0.0547273547539384
0.0463850412310987
0.0509444384873123
0.0548712744647028
0.0464036564410014
0.0669169252540887
0.0634785511153221
0.042693739552129
0.0323857312069117
0.0945421784790069
0.102479629367627
0.0773712793500463
0.0563918585982338
0.034362374024223
0.0663467345290402
0.0739033067705341
0.0703449132245534
0.0785656899732846
0.0625417423076555
0.0662004856834236
0.0654951760709719
0.0674462898868474
0.066843103654027
0.0699928853337095
0.0685729327804131
0.0715751892701268
0.068561361080699
0.0762574894371191
0.060843151263393
0.0615174290086712
0.10022950769154
0.0875404928104717
0.0763391281297996
0.080174969373337
0.0587845030190085
0.0773237090703094
0.0967640981698905
0.125763182516597
0.0992970934622835
0.108739229474122
0.11366827183122
0.0985572911212698
0.0912482723680587
0.0956615415345163
0.0982564639642588
0.102546011005788
0.0977312867649448
0.100651706312395
0.101957816196854
0.109045019538932
0.105166483790777
0.114227649963237
0.101853745478365
0.105529162056556
0.128044456170272
0.119802878282753
0.117234958761266
0.113013270815895
0.10059472042107
0.146239445152935
0.163211051166137
0.142637839502607
0.131853337982142
0.125497400979946
0.131975788049998
0.140423452303614
0.134241052550796
0.144089215509466
0.13962226333165
0.162841451095467
0.158422405119934
0.163806694024619
0.153077865897654
0.147671506838859
0.162036961527492
0.15911873077017
0.151205472350559
0.175037426610701
0.169864883809333
0.163699156603242
0.189482106607664
0.190637487074653
0.178880883146498
0.184378045763641
0.18354676692127
0.192680646751115
0.184783039125489
0.18846605905993
0.183636901065994
0.202258040383065
0.199105694033668
0.202939620412497
0.211795284737721
0.213825546308039
0.20099584806167
0.222247199449732
0.221455249501005
0.228530205558495
0.229352437457346
0.236236687481044
0.229718261006617
0.219388541147119
0.243989926851905
0.260744738240788
0.240113704042515
0.261797722353146
0.244940248229217
0.24987727816179
0.256567186751897
0.250226496757245
0.243283709232333
0.257248560534442
0.283083119219696
0.27602113375929
0.257652383035737
0.289408629157401
0.275771757070753
0.274947446174307
0.274365805775732
0.290708284144118
0.295233090025932
0.29632851940402
0.296159116042134
0.295295727921736
0.308323576688696
0.328896919343782
0.326174371426286
0.344284773324388
0.31651310218722
0.326097552089472
0.341441543372691
0.337004691537961
0.336039518232562
0.363031828734994
0.347028100178991
0.358021995076586
0.367793543753952
0.359367604702866
0.361931794250487
0.362317643003994
0.358260939684942
0.386519601391636
0.373500608225122
0.395222967141211
0.386410703840855
0.393423701706123
0.388070953082504
0.40790913584415
0.410298823249987
0.437376979242125
0.404902074977803
0.417161707307291
0.415731243770426
0.426143041591197
0.421279635210006
0.4473653133423
0.430238236176444
0.452980479265524
0.45053097666728
0.476643455261245
0.444170712938731
0.455010092695131
0.441459681287688
0.438703091026138
0.469887342922897
0.49339522426823
0.485973776980672
0.50214473309528
0.487148060870328
0.492047968040489
0.488923949085395
0.492464988419547
0.478298101352589
0.54195812332884
0.517834926130721
0.53313221429801
0.52486738259265
0.537334415628419
0.517561101988907
0.539319943078408
0.539093728337364
0.545841131200641
0.529282446671672
0.551492208510168
0.552009397077274
0.599338105827285
0.56621976888139
0.588953643978643
0.591519659303093
0.607757999349194
0.58950612363845
0.59475403413926
0.563848838608233
0.575469320744062
0.5713558739257
0.606297869883896
0.600312509260491
0.620670452290891
0.626869029778384
0.673970330417112
0.641617706705106
0.669907832118679
0.655958173426239
0.672959190729993
0.640178713469558
0.655422774655903
0.656401672883037
0.660767030521642
0.664721630134131
0.685042653909662
0.647652786780875
0.684766789579754
0.672052495524334
0.700774250741011
0.703334560266939
0.711983926841355
0.703861067490122
0.707081742805704
0.708875511824717
0.725929516263679
0.713908665219277
0.770379611611726
0.741523200012561
0.732184440664303
0.745529733611202
0.793661142774452
0.731123953057738
0.784865740752997
0.740918661320808
0.771042036881565
0.745162765230951
0.770363038291006
0.764011312563707
0.790910128841831
0.802034554956502
0.813897915668689
0.779554786112731
0.829048241651142
0.819361941610992
0.842496121695421
0.767364770273854
0.820505261298369
0.821896492593096
0.860410251357514
0.796724203277124
0.858872026916241
0.80733961685405
0.872730071450891
0.823460826412514
0.842895623885672
0.881863624356896
0.892181069081848
0.827580557751702
0.92911691048818
0.888335020108292
0.93385580679856
0.852535016108153
0.923586480065311
0.90006998906831
0.910844928352118
0.879917179181552
0.931734691758489
0.8837691099346
0.880321293983358
0.893715636175481
0.978534585379176
0.926375907665936
0.962980993055682
0.90673810754074
0.989717159901175
0.960113023578144
0.92717112164537
0.901876797097222
0.994884016566026
0.913194529617944
0.968198592094053
0.940878316701899
0.997859254887568
0.947869287601993
1.03252376940021
0.996413232153853
1.01824256957384
0.893895547032505
1.00682649162049
1.00476332239049
1.02176269267139
0.99290089451471
1.06665866814908
0.991328876331617
1.02851896071668
0.973658012772966
1.00377600714648
1.01480246624364
1.00678473517833
1.01425353438617
1.12072543304269
1.03369858565793
1.0597461142609
1.0253975856742
1.0912548229026
1.07182252686399
1.07859139179119
0.972969648372637
1.03839331097847
1.06002870139986
1.07181801429995
0.985097664561332
1.05898238750121
1.03752565072588
1.11779639408738
1.01571034209163
1.09537453082598
1.06084938216915
1.06680457603847
1.08598272117827
1.16195833911204
1.09356403583865
1.129781998367
1.04006163410482
1.07744849397139
1.06530913672014
1.14674672470019
1.09313327595607
1.14941963786479
1.13648488586762
1.0948002954103
1.08542387366059
1.17152904728
1.06629271873975
1.12372130832697
1.07139316418927
1.0861821662537
1.09840367403167
1.09691834317191
1.06824696017234
1.16011250184042
1.094990813973
1.14823523673655
1.15591728758836
1.15306977864783
1.07895041301607
1.15935060601256
1.14247201526277
1.20253063196701
1.10760418775633
1.21965710617793
1.14162624819521
1.06118044947358
1.13040220599201
1.23947426849731
1.12213365155858
1.22868254146073
1.10636526259445
1.21261928879762
1.16380260548171
1.22498579304422
1.1207031461548
1.15713919386769
1.13932486204924
1.20246651578959
1.13661897984863
1.23328762407438
1.14296296264323
1.24286118779063
1.18690536580773
1.17939412611741
1.1151955687013
1.09656928761304
1.08550948862772
1.17212603910316
1.11836386393276
1.16478704264791
1.16360792390561
1.20026551332852
1.1455296837058
1.15145768498315
1.09138788164499
1.25827247346457
1.15372743843673
1.17152026859243
1.14478909073022
1.19638967802614
1.12848098960705
1.28177939770569
1.12160364969316
1.20012234912438
1.16008835952807
1.13197533531295
1.15725818213167
1.14382034682243
1.15832417785552
1.22291871738418
1.17334316127581
1.24923796559037
1.13006295404848
1.219393333723
1.23073677873139
1.18534989976713
1.10209942761169
1.24525878983977
1.1210706611448
1.15450566880316
1.11202197875638
1.22633425627582
1.12919664284306
1.14295723732675
1.15648835595028
1.18026498056671
1.117290571711
1.21763138007822
1.10506590990446
1.20523611128985
1.17256661740515
1.19891109234237
1.1604539906171
1.12318462684892
1.08361952719458
1.13727525097321
1.16477505942229
1.23056258904209
1.08621988911024
1.20845118331078
1.1040877120471
1.20205181071295
1.1734355139825
1.23034120535067
1.18434449601953
1.17886719159594
1.1298340850476
1.13171725658496
1.08565385560274
1.15442568360935
1.0947879769987
1.17121404360931
1.14516331579951
1.13370602251302
1.09129664527292
1.11939347800619
1.08391981467131
1.15489254617987
1.0917497769919
1.13639919095487
1.09701317560282
1.17186465511927
1.13003920021542
1.16026442493881
1.09440876499388
1.11125282101718
1.05796463608291
1.11428103212443
1.09884542252158
1.14884076740407
1.08634811485469
1.12054661245669
1.08584108053003
1.12993967102751
1.05571323908188
1.12612724126187
1.0916714352018
1.13389583976546
1.02579893495052
1.1164683729364
1.0971045270403
1.06256221144645
1.06306718603735
1.12463620329637
1.04315280850506
1.07725519589864
1.0144936877439
1.05586569951591
1.09300155236737
1.11355727188239
1.07966572372388
1.07486825928669
1.05580021322286
1.02755536266666
1.05162211533553
1.03108467071815
0.982445204424337
1.03544476873026
1.03522429989764
1.0410220063022
0.993232359315028
1.02501457489383
0.991449258171586
1.05646158227951
1.02082000429586
1.03761771749574
1.00354701770823
1.02212057301323
0.984789546696685
1.05024448737612
0.999003652858771
1.01204465883778
0.965681603448238
1.02265757797973
0.914589373245068
0.972678305602662
0.98073586725201
0.988660779232321
0.981179755706325
0.982335196516818
0.943978710377375
0.976673095355629
0.966113598003405
0.984680305879813
0.970056891907695
0.969491422437789
0.922185608325995
0.951400097681696
0.914725509820594
0.958949631223306
0.909874769637909
0.911579276745008
0.924515918292112
0.95042187086073
0.888352684491375
0.901052881100102
0.868204291653743
0.925762796704591
0.900529851417747
0.926651470887054
0.889343983821262
0.89556016251261
0.869974145227714
0.915121400021581
0.858588744254164
0.894489027110629
0.863825492432564
0.875239470499845
0.818477920146395
0.867778316321133
0.83112239580542
0.893745284041961
0.830405864026344
0.862898886023451
0.827931639921997
0.874625270537521
0.842377582922987
0.822170069943406
0.811242826974599
0.831857335904437
0.797118408255836
0.825407995078549
0.799931752455833
0.844235196436837
0.787916238797475
0.822530415897146
0.771974795880359
0.812365345253666
0.776998798821697
0.787952729652951
0.78259767537747
0.792325288759247
0.769822938533133
0.765547719365602
0.759493968953771
0.792711973527378
0.739249427137836
0.770054395633066
0.751684547081329
0.766892777046796
0.720247267425792
0.727824332781963
0.730519239374943
0.745456255125085
0.709280373948447
0.737800217629085
0.69653810453939
0.71169757334943
0.707869598235706
0.713459107641406
0.692978085500412
0.718280671848068
0.689925203856572
0.721250460042422
0.686396996608913
0.696291204407283
0.677433807731412
0.697946013474659
0.671414956207099
0.684616409044269
0.643259373698551
0.674601838135868
0.642338900806285
0.676418121559993
0.645152645462265
0.671048683163788
0.640002237833504
0.648028383005542
0.631873217259228
0.641437730266107
0.618814105657245
0.636936773269515
0.624268888709429
0.622005217505071
0.613462569400634
0.629162350193733
0.602207894862851
0.609372584980035
0.619174569531301
0.617333676248781
0.59272448875538
0.615060262233432
0.590809452423166
0.590843190318503
0.588691808024558
0.577589536200822
0.577178076954992
0.590036415095755
0.561435020934714
0.578303233805472
0.563551287821541
0.566999340133154
0.556729271495385
0.562749811221229
0.551675248412295
0.560124743228269
0.546092292952898
0.557412132425341
0.55063944817295
0.55308837962725
0.527575708912563
0.543174803179227
0.53694289987831
0.555802648134021
0.514438192494294
0.526100910672013
0.524051614904998
0.529196113706574
0.518138631839752
0.524200350160209
0.502029686621486
0.506022760345286
0.506228760479764
0.507625311546371
0.498351249278262
0.515950443654406
0.500999162618546
0.504595882512659
0.494526229265877
0.498522051156944
0.480925307117768
0.485898737621699
0.468699661986825
0.47675027211213
0.469224990422341
0.484028629825317
0.46209558983232
0.472132431454515
0.467598100587743
0.466253965186673
0.466196073176869
0.476040431771925
0.44844375696179
0.468111235228558
0.443373457295783
0.454595299679208
0.441884973045609
0.452818568563253
0.426314274831247
0.44522590828349
0.436521421908619
0.442273310742099
0.433714515534999
0.435803809161663
0.426001522984554
0.436453962669108
0.420220319624512
0.425613014307847
0.406205105503235
0.429376344075689
0.406322116736805
0.414773928521123
0.399347325187374
0.407296278413055
0.402515412907744
0.408871849419874
0.398756650303744
0.408288459619549
0.398410501465207
0.395765382805216
0.383768123239969
0.386950898284422
0.385620659390539
0.390324309040285
0.372345287238334
0.387525960645898
0.374550621835572
0.386215863785053
0.366733587048926
0.375526066951298
0.370410755946137
0.375471384856682
0.362745281503223
0.369899028029797
0.35794249614248
0.360131393668027
0.345820287872242
0.360138169172644
0.350662938702409
0.363031414717968
0.34982463263541
0.351911376237238
0.332814572122733
0.354020657252748
0.337662044418052
0.344770025049997
0.336461984459947
0.346862019575502
0.332727963275452
0.342959323190741
0.320694644641527
0.326683255563531
0.327843419806983
0.338698274801311
0.324003003411413
0.332591209968739
0.321916996422163
0.319956891004547
0.3159796772881
0.325210130698828
0.319879117450272
0.325367399841153
0.313226484559604
0.319485720475151
0.314405909186578
0.320616786126467
0.307968283180821
0.322016875006668
0.305143693611927
0.30735469089611
0.305433281839547
0.315172946104905
0.307469553936438
0.310855493669706
0.303862513697823
0.304955635118178
0.308960816423759
0.313801855546841
0.302560925905712
0.30757035327217
0.297811659656498
0.313342562787664
0.307343659700685
0.313327066998433
0.301750709424047
0.306905160770081
0.301379352568012
0.322014515924627
0.302151098308452
0.315622985054654
0.313437778562817
0.318609608875107
0.317320520235206
0.320240775330514
0.318108375312216
0.324378080333226
0.318325880897729
0.323185470627736
0.325393702624911
0.33533309331971
0.332205921868535
0.340172382950826
0.331499721418314
0.328693686441752
0.327701973668918
0.336075530638426
0.327950244936172
0.347694831220342
0.328395712122893
0.344289505635614
0.337545247775454
0.354459893287812
0.341120899027325
0.359132919525325
0.347140091265214
0.35503520636181
0.352317914037619
0.356945333578105
0.352368640598642
0.367358899366917
0.357231944668287
0.365152750510576
0.3578677364982
0.36543003462169
0.369551847337029
0.373787028473415
0.368238899083647
0.387459935529718
0.367751402609711
0.392232448065891
0.383703449803368
0.394524471351325
0.383181619344012
0.39098201139843
0.38879007966685
0.40823465151224
0.400634245257746
0.414698895150768
0.402334917708513
0.413350332376377
0.40840789201474
0.421413583757185
0.407230482728322
0.417513420888764
0.408412011771314
0.430802277709454
0.425682614243197
0.436173052330775
0.411739321354731
0.438683749634942
0.430475471890334
0.425727074772587
0.428946703464191
0.433925810318821
0.420978826316428
0.432167304628224
0.424671561282435
0.427005098668685
0.406300446449976
0.435622036261792
0.413825330099373
0.425420229793359
0.423397298941239
0.420265649450718
0.418553367230472
0.422543957068535
0.412133387625874
0.426024546357479
0.418802448732191
0.41961144138517
0.402718777790206
0.420952716591782
0.411924638729673
0.428253464078277
0.411926778604923
0.418378266603548
0.408536025355058
0.419268472313839
0.408667605850983
0.423588275155302
0.409495769219567
0.42964270995684
0.418219813588692
0.423034102507613
0.414629380345273
0.418958469611972
0.407730436843507
0.428497748819384
0.410637577761687
0.415666764776017
0.402124948850064
0.427069807375582
0.418689298186149
0.415968131130563
0.410993824931524
0.418907805025404
0.407348695988813
0.415339538976036
0.407101782235025
0.416768688062864
0.409480776042501
0.411732621295364
0.398809011681673
0.416752128642224
0.401052648502508
0.410286554167058
0.395532852369033
0.404692045378881
0.397968878754356
0.406441919764584
0.392101381146972
0.398118356447347
0.383505508490012
0.386600474538228
0.386697273075656
0.390630470349647
0.369380085547942
0.377906355824124
0.365062567866624
0.374067763443977
0.358804334539707
0.370822564472298
0.359043198421026
0.364363730398531
0.353830738445798
0.359621531443564
0.350117449904426
0.355570391955631
0.341116196707653
0.354749526923905
0.344591568144879
0.333294049961364
0.324765405729486
0.339141772054299
0.323615765148806
0.328183245068568
0.314267790440532
0.32070973167398
0.31232304237909
0.315248645822339
0.308965018465489
0.321698740786902
0.304042238338346
0.310998335580812
0.301079332143541
0.300743514092587
0.298528293993798
0.299836274508151
0.288426495441917
0.298789861058895
0.285012126561611
0.291815203539811
0.282387049141407
0.287720415664145
0.282033244297763
0.289727436207603
0.273268786216656
0.281041679870089
0.278215595644695
0.282104737512878
0.264699801977649
0.273535919140217
0.270475576555672
0.275691940067002
0.271248334564252
0.276732068183415
0.258716415580937
0.266310010887661
0.26059369326724
0.26634059892389
0.258049645882448
0.264628249021165
0.255591645095572
0.261120363322217
0.251570627329013
0.257260220356664
0.252018505075531
0.251612004401046
0.245016940506046
0.249831417931471
0.245654846010966
0.246487272831688
0.242305225665504
0.245233059535851
0.241978840594614
0.249291526443096
0.234351479208098
0.24570960244842
0.237966154057069
0.241663878638824
0.233070767995346
0.236424728287994
0.227854863976617
0.241708789648149
0.229992087238461
0.239166225083132
0.228292315356421
0.229211604545629
0.22759972774868
0.232571184433817
0.225774822526829
0.236563668005698
0.224595868303069
0.231561542654164
0.22020476787162
0.229724561218245
0.221321198143938
0.224364498657283
0.223017651796537
0.227716768918504
0.220039097738191
0.222951164925635
0.218126894477609
0.226930606549969
0.214252745817506
0.222017954683568
0.215538599817966
0.223606733318336
0.217358730632848
0.220083784194549
0.209009548920764
0.210978141834206
0.209089317833842
0.215805256334797
0.204234474362006
0.215223342805255
0.211461639151894
0.21695101802737
0.211220598799543
0.214997768052865
0.205806510812806
0.21300030918593
0.207247832682188
0.21222462761905
0.204048562725622
0.20998283239793
0.204140066523359
0.213474478843253
0.200997740716094
0.204916508126193
0.198275797108183
0.208864668055889
0.198358002516614
0.208489443289334
0.200729377385877
0.203748346797521
0.195428096516787
0.203644357796288
0.199081041017968
0.206974736223698
0.197003652168409
0.202785532047814
0.197138102164942
0.201229918803346
0.19623640359871
0.204245096147814
0.188931810609197
0.19837276522819
0.189570261783411
0.199400488362262
0.191748530328414
0.196508565471223
0.192337660847408
0.198948810108498
0.197727429890113
0.19616065033695
0.18714850102048
0.199367485825866
0.192484036026093
0.197768997516471
0.187381067852496
0.198643028560013
0.187456603541947
0.197889653266014
0.193431948202992
0.1942667563077
0.18900780723662
0.188950974199441
0.184637809895191
0.196360330131
0.183017723422178
0.18936197613894
0.181952218033523
0.187245856699333
0.185629795868573
0.192225332194927
0.184673194028816
0.190947331862927
0.182936023342414
0.191778862144483
0.182020093203437
0.188748640814783
0.180662123397854
0.190824720964811
0.180219184316842
0.184156103955096
0.179111143443348
0.18794575236917
0.177354846732474
0.18274639775496
0.174200534756601
0.179969864041532
0.174345332203865
0.180228224175064
0.172460686500424
0.181087796290293
0.172810742980759
0.178504991897933
0.172096294585063
0.176101576012333
0.16935255101909
0.179128195354734
0.166011979625919
0.181967976763759
0.172778636039124
0.178629660965987
0.164605330451104
0.172678204463257
0.16994255051539
0.178871492695075
0.163028229882382
0.169846572227408
0.159195105706908
0.17031259375566
0.168157115863077
0.169358176038686
0.16634027986084
0.169880050342478
0.163012052563774
0.166407789480416
0.159744486639929
0.165062145948877
0.159518983967031
0.164682832127847
0.160143605298418
0.163400082400601
0.162694239461764
0.159885404195542
0.15806398496333
0.160835757339053
0.154514743782208
0.161078736169459
0.15474113996929
0.156351382620794
0.149835205301079
0.156249852782858
0.155330086206757
0.153003826127811
0.147854127885618
0.157696048075862
0.14795154530434
0.154720638639261
0.143705967253543
0.150249672493941
0.146465392489683
0.148003587954093
0.144008373420608
0.150149037963678
0.141163290406578
0.147509077031397
0.142746670983574
0.148136086823353
0.135873119652474
0.148885647986622
0.136433844406972
0.143326958294836
0.137011448833152
0.142041942730771
0.135196793906368
0.142470479161189
0.135505367644862
0.138502059391356
0.127994962144914
0.139760628208668
0.131605203607364
0.14358619277515
0.133033987229921
0.140441812445189
0.133167591871226
0.137542259112697
0.132539900263284
0.140227674685906
0.130270029911112
0.128516945471155
0.129298944083363
0.13878182764644
0.123882097661861
0.133984428500093
0.127681670183401
0.130357891239397
0.124776108156559
0.130784990275426
0.126370375861695
0.129322296846968
0.120443178821319
0.130451089302761
0.120301585255429
0.128179568649264
0.120155899250373
0.126514763771173
0.119607054272664
0.128672297340962
0.118249343515771
0.122236735036697
0.118751334756597
0.129645100312187
0.11674340302467
0.125228759583093
0.112907579230442
0.125335946062449
0.12046984388376
0.120751001089263
0.118237704700217
0.125156009673244
0.113086802848185
0.119488537266028
0.115132600014617
0.120193404835965
0.113981322683648
0.118852935618727
0.11377741715864
0.116820330644694
0.110418803227524
0.119257096124057
0.11194843363714
0.119526616551686
0.111833882995514
0.117485559797028
0.112293733890257
0.117118407158478
0.109022235391954
0.121975729292705
0.108752297738554
0.114985518964462
0.111720924915562
0.118228382144395
0.109934202022807
0.113651015532821
0.106788758991798
0.111691047096139
0.108539815488456
0.115324385587097
0.107203001434939
0.110420375066073
0.106728007988909
0.112742509475674
0.105677994385221
0.114168096558138
0.105927250684167
0.109819408550439
0.105151916840163
0.112706123618748
0.107995856216436
0.111093946318361
0.105098790178479
0.109130039608387
0.106479757113897
0.108948202875116
0.104358624818224
0.111495303534635
0.103622590894572
0.109988644266861
0.103723979465463
0.110741186517676
0.101700118493652
0.103674521196948
0.0992715070897799
0.107935001295628
0.101990248120746
0.109326530037463
0.101774907464256
0.107419931661939
0.100724040553722
0.109244481263735
0.102889306356703
0.105872431371479
0.0986643644658319
0.105225683160948
0.0978547513603253
0.10420697089606
0.0989985514273303
0.102999273604204
0.0973258352490472
0.105000143103315
0.0978723946780864
0.100736579696177
0.0961404972350578
0.102381038194016
0.095360133561093
0.102090528506965
0.0947691679258354
0.100928370644362
0.0943996440056364
0.10059117898414
0.0952817605737379
0.10063198192592
0.0948948812204566
0.101845474086955
0.0963400751081185
0.0989552514654215
0.0946378723063796
0.0966849064082834
0.0926496279105052
0.0972758334703169
0.0896056199322199
0.0977389349225485
0.0922343717433704
0.102442206373438
0.0918113775853883
0.0993781010666508
0.0921661894959536
0.0981575015810033
0.0955080161548554
0.097805633120074
0.0912955967167784
0.0960741308907516
0.092566777521322
0.0936989176625194
0.0890958946469321
0.0966575516112184
0.0899193735795767
0.0935088111636296
0.0859840649322963
0.0930592362714888
0.0890659287669395
0.094919951046708
0.0878168445953006
0.0925227232866714
0.08587173534672
0.0956621223027181
0.084400337649363
0.0907652281851875
0.0881553267487077
0.0911681292513612
0.0844352885770721
0.0921809465050224
0.0849103842260953
0.0884360908788327
0.0845728323589702
0.0908455106187216
0.0838534899087053
0.0879899465364078
0.0838349662703114
0.0876936849549573
0.080718345499377
0.0867014936121222
0.0780814993217033
0.0849159836289642
0.0802637972292181
0.0847556255241017
0.0793564789301161
0.0840344938430383
0.0778422713815314
0.0822343841232531
0.0819975289555784
0.0824918807596881
0.0779999818337094
0.0855232106556694
0.0762768095928503
0.0803967179248208
0.0756733422789513
0.0817149729051543
0.0737246588126411
0.0784314298203456
0.0747040290301958
0.0819723580428683
0.0761638146243178
0.0785973016768879
0.072576729416479
0.0806127849404737
0.0728429515529512
0.0805270248579575
0.0744799315427808
0.0798830940146861
0.0685050596260889
0.0773512411140825
0.0722073802797399
0.0782065754429033
0.0718854972860697
0.0738438003904399
0.0685447465309678
0.0740952713932154
0.0681437364233184
0.0798960532050856
0.0673978953710867
0.0745241478931707
0.0685803032997035
0.0739535682629471
0.0706039250424833
0.0752393418193242
0.0686612675277821
0.0766400975948311
0.0687679945316875
0.0731168769249171
0.0667450005590987
0.0730709066981134
0.0649804029244288
0.0762503813221274
0.0664436153918701
0.0727011835612299
0.0663761957151724
0.0696365139824714
0.0626001768612579
0.0737509375226623
0.0658399867843274
0.0688929053248308
0.0633048416842144
0.0702980784926732
0.0624204408583419
0.0708677115297745
0.0619864792310906
0.0674849416416941
0.0606218866809131
0.0679787391715161
0.059082605593354
0.0670815962689886
0.0589269955011263
0.0664939976653489
0.0618536553811641
0.0651918574176553
0.0595291494097902
0.0678455277093469
0.0608025577035383
0.0666265651140551
0.0596929302353633
0.0679579916091484
0.0587030321286331
0.0688472350311311
0.060136218543865
0.0655124920259098
0.0575353856258908
0.0662413745844548
0.0573497370193342
0.0649643222729424
0.0584102500582846
0.0666025326048241
0.0605646739425428
0.0678802008262177
0.0548385581354993
0.0696215729256904
0.0617122011425267
0.0675205609647396
0.0566059018989184
0.0637147803358687
0.05339558879639
0.0640983984036497
0.0540470816229877
0.070078608928959
0.0555161585310403
0.0747312216332871
0.0526287958101957
0.0674596670078986
0.0473966297939518
0.063460675088374
0.0547593044861474
0.0731234441945679
0.0498557493448178
0.0687282934492949
0.0481953241106682
0.0644014650508453
0.049199757776297
0.0728405508803554
0.0498946303394441
0.0693723559922616
0.0449315678073387
0.0696604002856834
0.0506068977240511
0.0754816821830976
0.0480856674332638
0.0674479495507344
0.0520656232292859
0.0707561599472588
0.0393261609825058
0.0727685243749059
0.0429583336510244
0.0672482602657396
0.0358546183609964
0.0707275242044302
0.0330804077136352
0.0713631752790475
0.0321944354849626
0.0732378566063722
0.0372621214526843
0.0773157793869254
0.0299053792606858
0.0859211371562234
0.0364709740277917
0.0809448418924666
0.026116725205207
0.0769987678731078
0.0300343458783644
0.0841536541478504
0.0341831208254234
0.0896781537168716
0.0305220709690148
0.0785423571769051
0.0291279758423959
0.0871435168803987
0.0415258136907552
0.0667668686524203
0.047757948678642
0.0650346547348346
0.0636276198298014
0.0440159908724014
0.0697616507691103
0.0435624331395931
0.0850468906518733
0.0245517834650424
0.0868570984961102
0.02920417721146
0.086591890614093
0.0345533931866566
0.0789733419379379
0.0401775343094711
0.0688103184371847
0.0482799130938255
0.0542819014384081
0.0576750251780495
0.0517446764374605
0.0578335079466976
0.051830123536213
0.0532008923610371
0.0571780679043065
0.0496612683802763
0.0587822731959351
0.0493873920546886
0.0600997214819463
0.0525084244842113
0.057137483278271
0.0497856448317653
0.0577641099076754
0.0535302875613917
0.0528006425755605
0.0509591687980256
0.0531470222255731
0.0524670167539695
0.0510515665327879
0.0526721413944197
0.0565503004429036
0.050632360355628
0.0534765714006531
0.0521970723997033
0.0536013744549315
0.0500867081781551
0.052568992292742
0.0509540286397791
0.051346876880514
0.0532552203873828
0.0534504859616036
0.0521301811305079
0.0535777854967238
0.0519904676916279
0.0534656898006706
0.0539038235975182
0.0514459340451131
0.0536458123047347
0.051358922833509
0.0524207560010559
0.0547330125950305
0.0519457820860514
0.0531970966477044
0.0521556714417057
0.053890831630693
0.0558556390741911
0.0553252838603848
0.0525379527762614
0.0554000111050751
0.0496182509150128
0.0541018371869027
0.0528519477164655
0.0538652823091401
0.0533190208076611
0.0523612890506578
0.0518765701838674
0.0532597975247749
0.0519119056867193
0.0522856323603569
0.0511621883843846
0.0538389845832014
0.0506888287479453
0.0522634584945499
0.0500249313034553
0.0507778987861546
0.0556766561263747
0.0538328859685814
0.0553874389154408
0.0535028784633244
0.0534556375641328
0.0531565303951132
0.0530695816811887
0.0501768110936364
0.0536526971404218
0.0564917843480788
0.0543054964773742
0.0548681438286967
0.0532227243002194
0.0526769676325799
0.0542003740712634
0.0523538156456842
0.0545371540846434
0.0540006701838803
0.0563304951481818
0.0541938624554492
0.0549850682256011
0.0518706045866038
0.0532808527457319
0.0529626678418773
0.0548581219436473
0.0534928763625738
0.0522314383467971
0.0521434965314957
0.0545991744546935
0.0527792921855488
0.0556520453624789
0.0513787623167282
0.0554150335417878
0.05539890363828
0.0549994922922635
0.0534409323632494
0.0546077494013699
0.055319603814185
0.0540320290437459
0.054081187923112
0.0544054875961563
0.0535517458330292
0.0549272093731556
0.0538866965652506
0.0570964729493483
0.0571017900063136
0.0558692739418125
0.0562813544712717
0.0562142145430412
0.0556735646133286
0.0556598199940638
0.0537331606278565
0.0584016445438841
0.0535293816304962
0.0544611129161378
0.0545048728973975
0.0556125016413281
0.0539503635912366
0.0549396036070956
0.0555308743845411
0.0560667437711421
0.0537831652225411
0.0564095196490723
0.0534588283422434
0.0568970280478744
0.0553688070582556
0.0587268069265056
0.0542392369309968
0.0554905109949062
0.0551745582999454
0.0559181280695947
0.0562593646370249
0.0566532553160441
0.0544790530238342
0.0581350591347025
0.0569111682337252
0.0582917505915439
0.0556278710050996
0.0577549949311039
0.0566604857263118
0.0587022418094415
0.0557972459711421
0.0580782433602521
0.0543994659361122
0.0581293995909324
0.0562956771263716
0.0569951699586298
0.0565338199554086
0.0560597018788534
0.0566348495763045
0.0589375243386442
0.0568405807916253
0.05851986785351
0.059300597983708
0.0567792944401432
0.0573335414094941
0.0601008776411224
0.0561126563855351
0.0589862049629814
0.0595139377830972
0.0596754145971871
0.0542367711995988
0.0582369135498692
0.0574737347094191
0.0593723152394693
0.0556827959260444
0.0575509104626985
0.0558517262226013
0.0580989434354551
0.0576182475700608
0.0573039680763086
0.0557050495692126
0.0573663995900239
0.0566024688651262
0.0574362967613875
0.0565737326670698
0.0596104239116528
0.0567485519719956
0.0610262589346931
0.0545146169391215
0.058205331463961
0.0544390323382567
0.057559104953961
0.0551164940484498
0.0576504299243082
0.0545049588967974
0.0546885555356441
0.0541901078338203
0.0573303285283951
0.0506636579613645
0.0558675858928522
0.0559822615784311
0.0557159871247344
0.0525525675877172
0.0549102855213079
0.0544103515084316
0.0557677363156362
0.0555943288187887
0.0560209062992537
0.053555020115596
0.0554982280493206
0.0527067927782354
0.0558239829803385
0.0518041079064928
0.0546300076430078
0.0530540902564789
0.0552131574047283
0.0542640283024112
0.0558960230702323
0.0522827063764772
0.0527387480039274
0.0533083999506817
0.0571260492230289
0.0531530760025283
0.0545251603331646
0.0511242780310371
0.0575053101424535
0.0524950227763377
0.0549862920374309
0.0514621634899337
0.0539419027856882
0.0535649671900722
0.0568085396795284
0.0494729309058244
0.0551477108372378
0.0519989578073357
0.054862596604818
0.0545927703999194
0.0547773860152935
0.0514218312752697
0.0550808228494035
0.0528087312680386
0.0514483458315695
0.0489764547860643
0.0518148639458317
0.0524044890026439
0.0547520743022394
0.0526928654209184
0.0528817442317747
0.0516889188871903
0.0547562407678884
0.0527062583307326
0.0538634560043373
0.0526952972779832
0.0549391167037443
0.051454198006427
0.0536297527260535
0.0506575086578935
0.0520032653207988
0.0505028879972545
0.0523353057820436
0.0522874045332529
0.0521743092073999
0.0492393385486574
0.0550920962464923
0.0509015873448447
0.0547480840888307
0.0521218979569137
0.0554065686938515
0.0511383589017999
0.0519395683776201
0.0502791675239488
0.0503756253223391
0.0502295674760666
0.051930181158263
0.0502849861854685
0.0537065220423859
0.0502432708333133
0.0521239161084192
0.0503396659353936
0.0518939261114514
0.0501400947994396
0.0514461975538483
0.0484964947529897
0.0539076531955522
0.0493021071190185
0.0489520398397828
0.0467645109500213
0.0499047597502883
0.0523688067552162
0.054700768734047
0.0465292559748937
0.0500912138561306
0.0491140005188237
0.0499615680392442
0.0457844037544506
0.0492134980634576
0.0478988556399926
0.0509226017029254
0.0483446551581017
0.0479848849736805
0.0472049332376661
0.0506800760038641
0.0468918589006064
0.0492404032086732
0.0463713991535646
0.0471036083548454
0.0459880086225894
0.0469673095043459
0.0457734311400472
0.0485704201964248
0.0451119130093881
0.0476902791787609
0.0469161686877324
0.044369769659841
0.0492135807131484
0.049047451768023
0.0442914353439409
0.0479979142069608
0.0418202042274014
0.0463299515564474
0.0427348560436644
0.0490926759738191
0.0453796667776506
0.0464245201516247
0.0437931788795116
0.0454110186275537
0.04188502275221
0.0450811878175754
0.0429895965352067
0.0457213113408472
0.0419354198534797
0.0469842982531268
0.040672583893563
0.0445229891345768
0.0397584450468328
0.0457834673434771
0.0406488000896656
0.0443235446101669
0.0423067780881226
0.0432258531259375
0.0380330106740105
0.0487945093486749
0.0436619001066384
0.0443120905973089
0.0417110312488541
0.0462800178301154
0.0404910337507194
0.0461650428805083
0.0412231318615176
0.0431546397488182
0.0394425778713881
0.045250619386866
0.0400913133797527
0.0426985926880169
0.0381356973811015
0.0414950721196419
0.0395318055440279
0.044824959401445
0.0406433986738426
0.0415984033877545
0.0409651979422588
0.0437827791878712
0.0407864025552295
0.042145699660672
0.0401544848387023
0.0462585522978692
0.0385687670947732
0.0465819539942207
0.0385959244153479
0.0438244373666833
0.0408293341153107
0.0419565986789832
0.0407995452083722
0.0400343507918391
0.041164685590736
0.0424192206036385
0.0395361532146829
0.0410077206582033
0.038342492855251
0.0408544515263192
0.0376969097108072
0.0440780141567133
0.0386675901154274
0.0405496158846274
0.0384209379441677
0.0399222586752273
0.0385215000504498
0.0410692264054025
0.0372880277202564
0.0389095306148679
0.0371424792830983
0.0408249330518452
0.0415897889435984
0.0331282441007078
0.0527221663056367
0.0411089293740031
0.043097640294496
0.037114867369287
0.0369543616504814
0.0407955638126834
0.037512741300746
0.0373528688691059
0.037089985880938
0.037910977329466
0.0366322408864005
0.0378264196642659
0.0392405901291307
0.0408625515939773
0.0372926114057739
0.0397928190022677
0.0386615850720957
0.0396955605753574
0.0410924254370538
0.0390813188976027
0.036055917982184
0.0435548052830074
0.0419047879354417
0.035860535740472
0.0444320480283115
0.0303863082551799
0.0414804355360429
0.0505912925535101
0.032438551021364
0.0431522987796177
0.0350497932248039
0.0427840706320048
0.0355714776110772
0.0440705600309755
0.0328107048051315
0.0461351357243715
0.0358372649881203
0.0445062047086709
0.0370900911595749
0.0412926884653888
0.0359984212534834
0.0415843209810759
0.0376376121991384
0.0395879919211524
0.038877735324582
0.0399452787708155
0.0358992300080993
0.0390337143324453
0.0370889970394856
0.0408458677378783
0.030308479087694
0.0450582207450671
0.0354556893934443
0.0421443808901115
0.0370768533542025
0.040258798804441
0.0286390102141624
0.0576727472649609
0.0335602917927606
0.0430932472377725
0.0353000090502842
0.0395769078002545
0.0359102095409272
0.0408919792912607
0.0398005905677962
0.0410035664661909
0.0352231881722588
0.0403315806614176
0.0366419543766928
0.0392741156886347
0.0368710447822522
0.0401684844333361
0.0377514616430895
0.0372239462112564
0.0389910067432084
0.0384218058168428
0.0416100489670453
0.0361928479197711
0.0329877272102269
0.0563057591017565
0.0352819331097788
0.0495327687402496
0.0353378100455926
0.0433291111005412
0.0320418804571558
0.0424640572483755
0.0314859469134764
0.0449889984379059
0.0321407231314576
0.0431472931666371
0.0344092053498784
0.0437397982420742
0.0364469900282567
0.0447565670646641
0.0326925888452744
0.0430270139579386
0.033301539718823
0.044267064752208
0.0340658102775023
0.0452533678610684
0.0316097257661597
0.0454988278730006
0.0375844677801303
0.0454528869737086
0.0284415114871419
0.0384380663481772
0.0662530398854471
0.0299920866809619
0.0487571809800259
0.0350616199599107
0.0419771084497821
0.039144675980898
0.03756438558644
0.0425193481291809
0.0434271377432245
0.0387992219866553
0.0396200157061554
0.0389975915450411
0.0432631287478978
0.0379612236052629
0.0296379189114084
0.057373818127087
0.043359852064099
0.0418548320334797
0.0455476557432696
0.0268798674668085
0.0555904771635823
0.0414287403585502
0.0392734462879793
0.0447760006310666
0.0363653740101992
0.0419997406846719
0.0380410919598002
0.0422221381756589
0.0386427346148323
0.0468789649918059
0.0357189144183044
0.0464309277852275
0.0347436837038615
0.0455467527004552
0.0417593822328585
0.0450392878180801
0.0503083101618956
0.0413243307988914
0.0395755043974736
0.0486955381016443
0.0395519640048988
0.0450014299968395
0.0403992779057311
0.0480265092041415
0.0389538779073121
0.0560735093440321
0.039834364618326
0.0501097748573717
0.0535162294732552
0.0424374073732515
0.0418568129302499
0.0492193793631764
0.0437933305139248
0.0479350664640981
0.020353384233414
0.0815047985193281
0.0328156303980465
0.0658071945983142
0.0353889316717191
0.0518065769233448
0.0403105594218372
0.0536276053968408
0.0342944697584518
0.0551879510771136
0.0502135120943678
0.0428599043887819
0.050289788830261
0.0436513213836465
0.0598142254476098
0.0427816980524026
0.0498871598165115
0.0485279851172227
0.0485561221774003
0.0428752386542899
0.0616219336733314
0.0288157569579556
0.0585878246045856
0.0651204042681501
0.0513833706597854
0.0659535394489736
0.0295658268554863
0.0783786329274014
0.0566539551998863
0.049721569911283
0.0517246990421052
0.0484071549255526
0.0567536097896565
0.0322412434024902
0.0657560074131436
0.0643394415550975
0.0436186086294797
0.0631580461400196
0.0405482429119694
0.0668874577691144
0.0654929858919598
0.0531617024932262
0.0515613333147372
0.0611010805245871
0.0432996948680552
0.0561289450293029
0.0816939934221433
0.0386180161681417
0.0888919164988955
0.0555465980438922
0.0730966875041467
0.0608148067190993
0.067746724847254
0.0577855537795271
0.0801265164497731
0.0640026917234427
0.0623089179666287
0.054842551583416
0.0968921934043731
0.0598055440762677
0.0724149114372273
0.0692459068601997
0.055128209028728
0.0719187016074184
0.10809735744047
0.0847290094255312
0.0798335489765186
0.0641207176740595
0.0889733530052984
0.0805599112821143
0.0737536147020129
0.0781849565123478
0.0738930160774122
0.0784974887654473
0.075882583073587
0.0852959099312955
0.086272390634876
0.0775508218232642
0.0889303397997282
0.0704028841872753
0.0907943676655801
0.0883276898868503
0.124606017271009
0.0801582811610487
0.109571637184986
0.106981175404741
0.0911218883414272
0.098909239834952
0.0873473477331723
0.103738645478656
0.0964167668601527
0.0980340719250287
0.0925583767920942
0.104636329044065
0.121021944590625
0.0855259693028309
0.133977477100789
0.0987289546544427
0.119057863381821
0.0599301341901389
0.216810998502066
0.148897172711321
0.115938867875139
0.145157930533141
0.0790565679530085
0.214063172500571
0.142786993241288
0.147476702526753
0.149136696158105
0.157459308515117
0.152358608193375
0.166311943246666
0.164932125119673
0.177708072531024
0.182563481091218
0.175799503263098
0.158835470450664
0.253589799395516
0.205719780161712
0.228316320019597
0.196844170636139
0.228591215883734
0.225479401647242
0.232835329867875
0.22140051976749
0.246408069125174
0.196058071721412
0.315008719583979
0.24382639479713
0.272427347698631
0.25520495495961
0.299823883210913
0.261434791057731
0.301436027242548
0.3274113559554
0.283416518834938
0.313763190477674
0.299652410546554
0.329525027575699
0.299473361567664
0.35293139686675
0.350491561527712
0.332249992134153
0.34653493764256
0.336521438042429
0.354429572891195
0.346513707169523
0.369508623097201
0.351858965610154
0.39563894120885
0.383210885863385
0.451134009445335
0.413157327634878
0.348231095475636
0.382492170145027
0.353530854554084
0.395069781084567
0.391475723633286
0.377944155811995
0.417426683817688
0.365912029637515
0.386356384720595
0.368577566811928
0.384178814527267
0.370993016982824
0.387918994286798
0.37154904488776
0.386678390031571
0.393266831093135
0.343448557763685
0.466342495815461
0.37512162545733
0.385902250889035
0.376219093813178
0.383569474853431
0.369328711302425
0.382686216362651
0.360894974911989
0.402015519325444
0.36589346907222
0.362827393065518
0.34782600919675
0.347612205560725
0.372700946696619
0.33260220917063
0.338272134634033
0.331836237548914
0.324176269092276
0.329304663386816
0.307325870737525
0.378463532789007
0.319013434765147
0.308875277181499
0.307931602353789
0.30641492879773
0.30471747456462
0.297686959747648
0.299858803225105
0.301782209189981
0.289622754590601
0.293893153866235
0.291838168822369
0.29479255016105
0.292500384829563
0.288087587085036
0.288881091967111
0.282023015927313
0.289506602451895
0.281268927798531
0.283279998573885
0.277468789151904
0.288834760679829
0.282792364696114
0.282332278449934
0.282499423659235
0.283055540135511
0.281606137710632
0.285075890557256
0.279491418972923
0.287762885433909
0.278221894472739
0.282427473921283
0.279937645608975
0.282763527160937
0.275360917613156
0.286173734049158
0.276068222768617
0.28428654325321
0.270761419984552
0.281479948178413
0.268462612235034
0.281615574151865
0.260031955539631
0.295084809386976
0.312596869599974
0.254486385222679
0.283882275507468
0.265745239910129
0.28100599772988
0.250219376412843
0.285604836402209
0.297599968700639
0.263301824240854
0.268158084893793
0.260440009198881
0.257691763319027
0.27629233846822
0.255630836317397
0.266564903193292
0.24964963590508
0.239454439556303
0.34237680409867
0.209709172749782
0.334773556973724
0.254074015848113
0.260162265332089
0.224683530783544
0.302111733440272
0.246920918237094
0.257631609875692
0.25206614334027
0.258706759708782
0.267529681812125
0.24348540614832
0.254297257327721
0.243835717300877
0.243963751821966
0.264690003680699
0.247761790530119
0.22983544632913
0.276823360907364
0.240449770957465
0.256668736587766
0.28196463215888
0.258340421393622
0.229739324782903
0.225321265186324
0.231149614359975
0.20523532772309
0.262320746528638
0.232805052677915
0.226964126380772
0.223431809291764
0.203292961914371
0.221629402503793
0.209676966744626
0.233517086162294
0.19600624713847
0.243934371628068
0.205251882971387
0.199269499431331
0.224587885097523
0.202493916166341
0.242920251149862
0.201417341912704
0.203154631438133
0.19167106697079
0.241258798512109
0.192854708910582
0.206481237197046
0.195183140454348
0.182149593637025
0.201731403869431
0.192483911727501
0.175702328479099
0.203028586426953
0.173082508614304
0.215649956641664
0.212188313333765
0.214614239862873
0.194317560464317
0.171926823430331
0.176818213068949
0.175916411861317
0.178822224782355
0.173721801981711
0.162165093120076
0.205771359366893
0.146792359603516
0.214792953101444
0.18623147036009
0.179094143239556
0.180161124714129
0.181557679093467
0.177715195521423
0.205039941739902
0.199264211123972
0.211095546941198
0.177747074321046
0.21746104568827
0.190331304261544
0.205440856681445
0.190069043073909
0.206668653421123
0.204103836409814
0.216054809017411
0.215253026995414
0.226747143763493
0.220185920942982
0.233720397836492
0.216449094852564
0.277395950605919
0.224271870882823
0.25811588950755
0.267484358121189
0.278198433763336
0.281253958913479
0.258233430329933
0.276954509031555
0.27380365394914
0.279463470058662
0.288102714298031
0.268699913832386
0.323597287217062
0.289229452338298
0.298064587571756
0.299414563305127
0.302129739447236
0.300872509360308
0.312657726441539
0.332045776006373
0.29858098794646
0.377409451127698
0.313698139164474
0.335320705844442
0.31733185585691
0.327272761861544
0.332672149028199
0.32537407871288
0.334674302100487
0.317240100504176
0.34740656485662
0.341273080589326
0.3299861836004
0.33973398608791
0.334065766517869
0.338634802057955
0.3448650370729
0.341468203860254
0.346051906390867
0.344642709444183
0.358861624279467
0.330038578237794
0.398221043762
0.376626676984018
0.345670961278459
0.368837124486403
0.354302283473824
0.37123411345991
0.363978872425127
0.380753482521077
0.385938818580722
0.377625054832396
0.382632936497059
0.380155117275807
0.392915663813532
0.386636577125411
0.400750923146458
0.390563008004303
0.386568221395026
0.398294478057199
0.369155234743787
0.455933549080961
0.385717766446444
0.416109542474907
0.405407854802194
0.409842828623786
0.405478423488729
0.406926165603772
0.401580342164136
0.413345717712296
0.409325732907615
0.411533336471903
0.409414345730849
0.403239616443683
0.412371541260997
0.402628676088356
0.413859542664507
0.412560526254747
0.402973413602847
0.410225461395576
0.405095636815284
0.40281958726249
0.408237150191287
0.425982262638688
0.394326768861747
0.411126963053085
0.400742919148381
0.414150564079704
0.411497239460232
0.402098312592538
0.40012229659791
0.405015108344989
0.395034247274098
0.409535121701861
0.393398785576512
0.429455325152115
0.407211496477796
0.411129840689253
0.410374640360841
0.419509495161564
0.415043908142907
0.418394986663616
0.414558889987654
0.42319905290207
0.424995830322498
0.42780135082509
0.423566257161998
0.413777391890239
0.427210893432303
0.427967114514891
0.428368852793323
0.419900466513939
0.413268380818647
0.419845641972659
0.411587095390888
0.421520724356117
0.407025052112173
0.411810107280912
0.401754747743626
0.402860430798194
0.390699934579224
0.406014678514923
0.391740659637977
0.383793330648014
0.392059079736248
0.374218808537342
0.38260356415523
0.373095745285494
0.380312712517353
0.370546763805464
0.374148585974624
0.365143387059854
0.36452023943609
0.36249621109636
0.365312919593952
0.363416342140876
0.363784817501376
0.363869480153487
0.362968639377594
0.362221078909741
0.360680620512469
0.360501458897575
0.356261180996705
0.359723965397302
0.358334885926332
0.359472707938663
0.365790457229618
0.35691060679395
0.362705040655367
0.353709291039591
0.365460582949467
0.356064922556782
0.357621658373662
0.352833911968467
0.361090075518152
0.355561054532284
0.350880918073802
0.351688722015379
0.355619367334408
0.354957694536666
0.357881899987299
0.353402463402146
0.355596562881564
0.352988837342495
0.355681707430555
0.355243700282443
0.350796079464076
0.353192966305087
0.355759663710128
0.357169516682876
0.34989123955751
0.35713104939791
0.353925650190131
0.351979140578885
0.351699198795816
0.352105648618455
0.352998540348006
0.351813472228402
0.357831550739502
0.353344478997889
0.351755679735728
0.349498826546114
0.349831405255944
0.349891474943904
0.346849768027625
0.345702243878914
0.340855247650891
0.341040795349486
0.337596491472322
0.33174809682007
0.333627003633287
0.330690114299534
0.323490487391594
0.324130522759732
0.323363857557544
0.319327611992707
0.314585761854623
0.310351910391043
0.309598490123471
0.3097318994072
0.308163695470245
0.307145158505635
0.307902632722193
0.302774361487315
0.303978320550492
0.303223142841412
0.300185513994038
0.305008790020596
0.302298875531443
0.29913859140135
0.301400756715085
0.3017937307297
0.301317884140424
0.305874742329884
0.30502407822137
0.302064575718668
0.305051894518623
0.306769447146468
0.303763828898796
0.308761541196188
0.31149996809908
0.313977252209719
0.313545807082901
0.312049544924644
0.315338303020288
0.317821587953752
0.32025097218086
0.320764133610301
0.322159819356779
0.319223048335866
0.320642781961667
0.323242210523434
0.320644859772248
0.320139390918897
0.320415411652281
0.32346489665296
0.325991855507217
0.320510441003278
0.319981746228806
0.32033839914566
0.323096260106554
0.320520001177584
0.32066070974654
0.317465270644521
0.314725101874836
0.313442783071336
0.317530240292772
0.31324770477489
0.311286639011799
0.310644193250676
0.309713198247159
0.306862648307759
0.308749502010898
0.307124266809701
0.306886884914454
0.306306550266342
0.304758434016456
0.304399786394539
0.305932434553319
0.301769612992243
0.298887705802412
0.300859597902544
0.301456123761333
0.300686972478238
0.298553531098417
0.297177092628551
0.297702816809277
0.294056114795402
0.295950537375196
0.29232890073289
0.292527456176866
0.289640062748233
0.290701276509672
0.289676431213066
0.28527591170968
0.283781110583746
0.284648235990077
0.282665153580004
0.283041039904047
0.279382290223489
0.276634695903839
0.277287875414071
0.275456931978798
0.272808140560986
0.266266955556014
0.265520120791248
0.264463442733266
0.26146915504678
0.261987407255484
0.257443427637557
0.261063128195553
0.260362760756522
0.257426398268336
0.258119349104953
0.257052716474366
0.257313392885108
0.258073200779012
0.255442676004881
0.254822804168756
0.254516774436014
0.251924299205345
0.250133335843946
0.246926723817022
0.244566415013578
0.241223020913737
0.23864507751718
0.238093629929776
0.233150724394137
0.232882064782079
0.232852604513158
0.232018607292946
0.231559159924501
0.233483428518393
0.235745976727866
0.236817419142115
0.242502970606304
0.249311313153764
0.256089321130485
0.264780046213263
0.272847483740741
0.28099077516844
0.294437292148983
0.306609394968465
0.314917602934341
0.328619260124239
0.340392828410245
0.355479353126724
0.364826002010027
0.378945286319983
0.395592671157481
0.404828291209104
0.413986631150449
0.430159656223631
0.442634894424107
0.451236638254435
0.460564076310392
0.470682903430833
0.482228415245942
0.491051743362384
0.499631306025173
0.50882043546343
0.514300400760835
0.516594429461936
0.521547882076612
0.52902822920241
0.534229042278672
0.545194724080247
0.54593464554748
0.542379681572083
0.548281917439664
0.549904577731957
0.548122759848374
0.552538939456934
0.552420943485661
0.551033398009176
0.553896481708827
0.551311470474013
0.551756612095941
0.553108393947752
0.55402372652583
0.554451430648328
0.551936265649186
0.557322340927597
0.566700085545496
0.568292085610317
0.571544839315263
0.576278921226432
0.57788151735395
0.585336324128579
0.592478552816112
0.597363231249598
0.605947454842028
0.610520790649823
0.611024464196352
0.624863531031454
0.634062309227429
0.640781202217555
0.65113591073229
0.659247960057397
0.676863800992442
0.683659630336734
0.684946881996388
0.689895076593534
0.700389680800793
0.705624204093586
0.70473223003647
0.708499341258419
0.70249789359365
0.705168242140317
0.708941546030563
0.703642766902876
0.699796851377769
0.697076123863541
0.696486267044527
0.695966422562895
0.689572946584895
0.688476894527461
0.685281781903511
0.701691175960241
0.707363430810181
0.714396434098986
0.725712954026877
0.731315488368314
0.748567780313767
0.769007992950854
0.772819733821352
0.788838075294988
0.807297496532405
0.814638710875705
0.825941988467648
0.830738981643862
0.846508761101513
0.870458378667607
0.877003096619901
0.892035531963733
0.894317718973635
0.903553800594873
0.925794108542438
0.936867415005097
0.958513215292168
0.981915133956042
0.987718478193106
0.99191857897794
1.01638260876706
1.04163528390485
1.05991274081434
1.05427003909879
1.06410879942681
1.10613973447333
1.10866535371458
1.09645999336375
1.10296436123193
1.13232609201405
1.13137334068472
1.15248538678358
1.15677935457435
1.14196365250241
1.13766481081375
1.13920710654354
1.11052072923864
1.11088856261357
1.13755625947951
1.11816539144624
1.1197360892086
1.11341132364007
1.08841403215668
1.08607356167331
1.08554648487551
1.08454733520598
1.09317359341397
1.08934602771531
1.08454257406365
1.08532935506531
1.10250654727127
1.11827520623563
1.10360609702832
1.12915798357131
1.15160440546205
1.1501696268613
1.16248308337951
1.17879722041194
1.16747536748882
1.16492636721357
1.13926191042806
1.17179012242778
1.19077436858165
1.18541051966946
1.19296725742562
1.20155119076936
1.21099894612082
1.20422875032398
1.1937496272355
1.19396434156788
1.19223005808008
1.21539685135079
1.18241360343696
1.18629547782925
1.18540181846871
1.17883867280801
1.16621707624587
1.14780249453157
1.15444351758672
1.14515677611942
1.1466849396563
1.13703086913699
1.13472754743872
1.13822727036936
1.1057001977513
1.10793768819188
1.10358369135018
1.07975862177126
1.06214202874652
1.03881122111355
1.0246671147854
1.01638837089694
0.973388734184283
0.955526612709268
0.913055876533288
0.892749975988518
0.860408148046901
0.823378858184452
0.799445240222005
0.765796310673643
0.745492661994806
0.721971502723975
0.705278653060099
0.692436395631289
0.673588948621799
0.658858731577067
0.652666040877195
0.648146400817749
0.645865795211588
0.636673696788884
0.630093986174609
0.631215800537282
0.625321942803666
0.62114071703044
0.611814370765662
0.603785233761013
0.599071557069665
0.586435473487892
0.582454621856878
0.583429191685326
0.567607532011725
0.552609706511263
0.539325383270694
0.536714728008346
0.523585927818652
0.503772593405528
0.488124276254548
0.473330625958393
0.455492518815268
0.444373519441587
0.433993813477454
0.418592360539843
0.396351177114421
0.383094560177708
0.373570023020308
0.354669604003126
0.337631734907968
0.327535392044002
0.314333701332667
0.303010762650539
0.294840344412865
0.285697834403406
0.274653672332841
0.268335481927308
0.263345657970155
0.256124187375636
0.249041832978488
0.242569731788778
0.239573144485501
0.232262498270875
0.231682207252991
0.232349539988611
0.233392979544787
0.230817417967368
0.227972909451437
0.223946484320508
0.22554533292771
0.228112831631039
0.228699595792271
0.233785814599625
0.23490662484669
0.228723076179519
0.230507776309689
0.236440387738423
0.235286041110937
0.235261770711997
0.235531727686852
0.23405253287616
0.23683477377454
0.231449197997909
0.231320136240788
0.226901205337216
0.228363898103415
0.226486711315772
0.225670394638143
0.221758872390679
0.221494203725359
0.21853212184615
0.223465540855239
0.22048626578611
0.216464445689877
0.216223516692885
0.224753674354338
0.226577858439243
0.226996019130411
0.224261450551884
0.229642474782729
0.231608840725606
0.231532132125592
0.236430026674722
0.238247550123222
0.231429309848347
0.236957802620001
0.245218334942635
0.243079785146792
0.241521798117318
0.243456557759166
0.246213111828942
0.248608272782017
0.240087365949807
0.240764136678217
0.247919515523471
0.249751312639865
0.253004003776072
0.253167707985981
0.254117745244396
0.255748514732842
0.255824232033278
0.262714509648797
0.261200764555527
0.263329173342097
0.275233656744755
0.278919957837913
0.277307175587822
0.297038661421526
0.300855042611697
0.303207435010889
0.314252498348516
0.322978330883609
0.326874270251024
0.324864387049512
0.337279754917396
0.338619290450394
0.338173198164765
0.333441106797192
0.330261377875365
0.322069722613478
0.318643873656007
0.323556870427268
0.318383200736524
0.306912692183922
0.305306984198881
0.299528742850673
0.301765077862062
0.296692096994373
0.302460140971824
0.298254479161306
0.297113575429362
0.303332985631144
0.30560965801011
0.298524658905958
0.306827697089314
0.30113575961311
0.299631861110423
0.296284080414085
0.295638505536541
0.286483620497996
0.278261380626616
0.280793758215377
0.281248753845935
0.272946495382316
0.27315895131987
0.273281710723833
0.274787375649783
0.27024137417047
0.263153808833486
0.26451668280173
0.26585198140287
0.267027086103822
0.263888513000113
0.265127675049362
0.258941316622769
0.261350777386747
0.247283413833815
0.255798216318499
0.257144604278201
0.256721035529292
0.25289644036124
0.253420745900179
0.255247838090116
0.248039357547336
0.2475310605005
0.257411057680371
0.24112916591113
0.24768264186871
0.251979421997936
0.243059623184765
0.245498276489301
0.240216156065911
0.235426886488775
0.242967575076095
0.242788437901808
0.241286073461242
0.240582923004894
0.234923282860635
0.235570545106782
0.237330607915505
0.243689991328656
0.240070247109849
0.242184470045279
0.234854352708451
0.241876443994547
0.242884844884846
0.234511091914513
0.234101080286609
0.244347860825321
0.24053598851825
0.231595681488369
0.237682456155169
0.24049256501051
0.245669856802669
0.253192026956966
0.244555830494408
0.243737979731403
0.253216634751287
0.249862763095712
0.259743074854988
0.254781273549997
0.255927862816214
0.261065762594294
0.268709472007671
0.262363100821475
0.265864600339196
0.262962445365709
0.255556748976219
0.266466333392763
0.265909848777568
0.290631921531066
0.287726345521183
0.285434750562122
0.286747152762873
0.298372451792145
0.303463394312366
0.299001293771429
0.307017276060612
0.30481129354237
0.338281458917946
0.354861748132171
0.34485577633255
0.341239072196458
0.362317826041865
0.382362395528836
0.370204575382548
0.394133815763184
0.411530456764993
0.403663543440529
0.40969948764857
0.430195940322909
0.408838638088291
0.410307771780003
0.417649349629066
0.421855150795333
0.431902443116902
0.41572690323148
0.402404640962297
0.41514701792447
0.410636136153527
0.412440278312817
0.390612402303273
0.397630132609525
0.402011834159369
0.400485176180632
0.399994398620645
0.38445520628732
0.394659689190769
0.395408841101848
0.385990047737591
0.383697389434936
0.394447172028512
0.387875779154579
0.381582765285283
0.403433194881062
0.362127304138058
0.368301046212358
0.376529813502791
0.373447038075795
0.35704759356341
0.354702274502313
0.352602961191752
0.393460513103713
0.351951214546944
0.362210594035303
0.343032736718871
0.343014888077315
0.349533814911526
0.345128057551691
0.365804608202148
0.379402067695995
0.395435133772487
0.389096890772739
0.357647268995409
0.361191874900534
0.364610578733847
0.378245463997793
0.372756157989213
0.358671081512098
0.372939123636798
0.363281442376799
0.365580766808477
0.393662840572088
0.374051163476217
0.385681410616578
0.364560800635716
0.408772369394905
0.388317528642424
0.360178639042714
0.39086722065353
0.413564717280441
0.369219338268018
0.370398794786532
0.364139424678699
0.372594397564434
0.42061247392323
0.400512580694726
0.390257803589193
0.400154252364094
0.376455352454551
0.44810607334995
0.405419089773114
0.417402094182383
0.441584744022619
0.438523821944722
0.427345236437846
0.459982160640499
0.419377924576844
0.471477454585382
0.440293894292295
0.5440098121052
0.491719329530546
0.440918278510975
0.466519435566973
0.529176581942188
0.461373478862725
0.4711726400395
0.464785360514313
0.54661802964535
0.477014097149094
0.51038809863111
0.458719004856084
0.533616547402339
0.474850115648469
0.470427086952535
0.462173835651318
0.524399319707706
0.490309705812718
0.575482894170374
0.497798826837476
0.482817418428756
0.523333871371084
0.551996769464523
0.425883957534244
0.414953565391482
0.450333121651272
0.455305677895437
0.47535666734197
0.562131515800567
0.435132368320262
0.545061098656562
0.467657405317874
0.507297420180585
0.361061152171996
0.464505383761223
0.529814262681084
0.4883750979104
0.442136338430433
0.480277232604996
0.357187277653193
0.415836696507746
0.443452829132567
0.551889081975169
0.443517592072864
0.431029289038376
0.440608998957538
0.782611537279344
0.512022651460816
0.594833879804652
0.544425252542899
0.49190483302762
0.60102418710393
0.577132300154587
0.746627210969361
0.738336822614527
0.363665003807906
0.622231044463355
0.304954945564575
0.513352157014517
0.61372015354114
0.465383296387076
0.312918044460453
0.791199089621851
0.589006353441832
0.27542169004686
0.335064243354382
5
