3596
4000.36533379555
650.420452594757
1
2
2
0.0740895217177916
0.0621951879168876
0.0679970390714221
0.067892571308753
0.0660871497230888
0.0712105984554839
0.0734678826296326
0.058809621725009
0.0674475421919001
0.0625203697806193
0.0707534661674133
0.0709098995991838
0.0703691099224694
0.0632392464121636
0.0671739559460274
0.0595585200103887
0.0648358539938206
0.0622703209389842
0.0743803489914723
0.0707981513571532
0.0711520290241573
0.0595261148209021
0.0706921923504349
0.0600920999053821
0.0732547295910699
0.0706627279110092
0.061413453239359
0.0713027021531252
0.0705857318840225
0.0691757397121827
0.0756001933298994
0.0610076999942993
0.0651933478571514
0.0566714848055002
0.0664001897278664
0.0765981285220381
0.0709854264400753
0.0629040193272603
0.0714648175277638
0.0703322808225813
0.0732067118128227
0.0566211332986178
0.0695013722124291
0.0653331428104281
0.0625998352142286
0.067270535411905
0.0695188598529643
0.0656146855833016
0.0654704341518069
0.0684125511188888
0.0766323197392707
0.0583369091488543
0.0711589444019051
0.0705049862240685
0.0677066633007899
0.076367312981429
0.0731768480633403
0.0620739585160219
0.0661706740723982
0.062822985563845
0.0849348185892667
0.0752801772482101
0.0592636310176063
0.0586698406087224
0.0597809282751947
0.0561089367787169
0.0604446412951067
0.0596057632595457
0.0616521953949242
0.0660731098960146
0.0553321785143978
0.0655802412479812
0.0792194837886045
0.0607962504555897
0.0713860214516625
0.0682856789132932
0.06102168179643
0.0619598963820849
0.0559295652371929
0.067531644628829
0.0690994049275778
0.0656349865119605
0.0701802829124784
0.0546883063023218
0.0559879328096927
0.0725746833200431
0.0577936685267984
0.0456905144841066
0.0709247221872024
0.0688209475921802
0.0640087225869726
0.0610230181612895
0.0573099136377213
0.0522799822127308
0.0604242441064236
0.0616850931397145
0.0576305481648865
0.0624860292192784
0.0589559437784836
0.0673879139333979
0.0618109417780399
0.0466464876991439
0.0901663869653878
0.0448506312129528
0.09674451691591
0.0663838567391923
0.0439366471956335
0.0844253104445283
0.0708678054945552
0.0656027143550502
0.0639061052199656
0.0590974359342809
0.0547045133102881
0.068301583093699
0.050223932886996
0.0652214904166417
0.0777888954174929
0.0620118815251822
0.0593074267318208
0.0646743938887403
0.0380642569473104
0.0573766415475779
0.0992006348879419
0.0573348931694147
0.0630246199694353
0.0509884211508811
0.0389671510501608
0.071729993666736
0.089667916116447
0.0527871354216471
0.0525668175709132
0.0624592222840972
0.0550369792509845
0.0479535475848277
0.0942434850620161
0.05684836045672
0.0568475705161127
0.038713757411064
0.0562728503350628
0.0947157746593035
0.0681850151693215
0.0614017369234496
0.0441150295336778
0.0456059408168703
0.0845855425047988
0.0632502569752788
0.0505470065503576
0.063117047286909
0.0692482078866887
0.0539086713791989
0.0614634894835715
0.0436379670054337
0.074148898443751
0.0592764479787488
0.00374519322682008
0.0784203583187637
0.105373088992255
0.0549576296967725
0.104530342321754
0.0539002165828195
0.0675401541906722
0.0620539226527029
0.0639969828404658
0.0520939684833646
0.0627230530406251
0.046472361342821
0.0535632225762752
0.0680052783515526
0.047522138820441
0.0478959449356422
0.0768130440911542
0.0605723042404488
0.0406194000728918
0.10549651495998
0.0729783172008482
0.033804759681999
0.0755371297965726
0.0685993825250203
0.045999441971232
0.0569505656144485
0.0817085986158653
0.0555331610626213
0.0646248269515705
0.041404286955033
0.0458298681915477
0.0658085667540555
0.0654522870655393
0.0529104740283017
0.062098203737701
0.0371807412629328
0.0500371505135147
0.0934272128290646
0.0854885855890595
0.0577551187216692
0.067956313743293
0.0207307122974874
0.0706390392777563
0.0821791564878494
0.0656224443186813
0.0627631813899671
0.0567733117163489
0.0562167147705002
0.0508017865197814
0.0590937421850784
0.0546026389693231
0.0194627938746557
0.0908786988875922
0.0711356543615332
0.0591969604727669
0.0516984358710684
0.0505836402394895
0.030417259108348
0.10121813052482
0.0853641769644353
0.0582025524952084
0.0608489287222032
0.0480912083383732
0.0669804219934009
0.0756843862963861
0.0551227842096729
0.0591144951274217
0.0544957942396228
0.0569919214730346
0.0568558068113917
0.0618258869243926
0.0613936737553755
0.0565161069578338
0.0555833566753845
0.0590329540381998
0.0604506154240044
0.0636834127891997
0.059964712637146
0.0657062028309262
0.0621163115344829
0.0531016597641988
0.0536194168045851
0.0723319407328804
0.0624239337928282
0.0664402410189398
0.0573986741413872
0.0581878200455655
0.0547438383781118
0.0622769177364588
0.0570065219980238
0.0470178465909114
0.0415488545827212
0.0896933460112882
0.0657175263087757
0.0635264713292728
0.0463777659180867
0.0802898952609198
0.0677829123364132
0.0596765947917143
0.0596901297712529
0.0636835839211452
0.0456028248358202
0.0395338082283131
0.0749400766427956
0.0672749855187218
0.0603608049423331
0.068583481527379
0.0650666979586843
0.0618757623620881
0.0453533199249761
0.0316020952809114
0.106278099801958
0.0650978855072769
0.0394775728746624
0.104515531942901
0.0687594976372137
0.0776230845004739
0.0507405987723351
0.0130886339311728
0.139293490947718
0.109755136680948
0.0638877851685491
0.0630280722715643
0.0768229154723052
0.0574712508961543
0.060255907491809
0.0510786556141387
0.0557127126649874
0.0714329526512169
0.0855497861565487
0.11730936705658
0.043867362680348
0.0784278328018829
0.0902527958016122
0.0674977156944724
0.0666115090689563
0.0605909798954835
0.0583257766524342
0.0769802429020342
0.0773641219787276
0.0779656255313356
0.0679113054774629
0.0621174576666231
0.0890748013827099
0.0786413023065098
0.0663555786784494
0.0795921709597145
0.0733602031102583
0.0613746285675494
0.0675069306783208
0.0645221426143666
0.0797895040943706
0.053818993266496
0.0393589666130983
0.102694566951587
0.0819969835849258
0.0748453122156658
0.0964094484498819
0.0782109438553284
0.0701270230333998
0.0743307732319561
0.0724185261501486
0.0719608896787087
0.0704648824692077
0.0685840836362003
0.0950756431398155
0.0851585685758568
0.076114320897607
0.0691528564408012
0.0713337746815096
0.0853804074730736
0.0763731698355484
0.0773679945330465
0.0823565032939435
0.0801527174357496
0.0589349473885209
0.089605240999712
0.10429561176448
0.0569044852357297
0.090692928180659
0.109305468792679
0.0795216963457148
0.0826889132054615
0.0817033178988918
0.0849091513983083
0.0791537296013733
0.0853544633108292
0.0854169751489386
0.0823027325287073
0.0992082967493742
0.100753135032131
0.0790650046653359
0.0749060450673868
0.127981470865634
0.145594807195888
0.111488787798456
0.106575732355404
0.0753830918088954
0.110623541268978
0.124223576931015
0.122194582678399
0.128023476283952
0.10416405135589
0.105343486765445
0.106045314577886
0.11719425698807
0.114911611964937
0.120417457761084
0.109415675497518
0.114433333047002
0.116835833702132
0.123591252779963
0.114265230229789
0.117946352912092
0.149220515494269
0.129230354005674
0.128516985932866
0.136220433277492
0.110723340001975
0.125472068804323
0.144084080706601
0.165481954709177
0.1577687221797
0.152797026193021
0.178966552501461
0.158575692665346
0.156512752135086
0.138810798869304
0.1547000457933
0.160707474969983
0.161363299135515
0.165922400334576
0.169921779883943
0.164861354646087
0.170118009754996
0.169175777159944
0.171633191221181
0.168187770843385
0.185620838557875
0.186118343814281
0.192651970565002
0.181846626832779
0.182405008498534
0.205357355399164
0.231253835787745
0.204805893180365
0.211024070194249
0.21009761006983
0.204965866085083
0.214732931573309
0.20969876384801
0.224063976260298
0.220937425727748
0.237889733327247
0.241561829810669
0.240664203355881
0.244797870739608
0.221130204387222
0.250886118153973
0.251377509340917
0.239559990846427
0.267674530186899
0.267223143838793
0.239088026091135
0.265671790788436
0.271322445047429
0.256566484025492
0.277861707624127
0.277853786935227
0.28503946241353
0.287143539554826
0.294653057665109
0.287511128013719
0.301152386626192
0.303203046838413
0.294675659943308
0.319284815846725
0.319337586161944
0.298432305252281
0.32560166821923
0.338851810195473
0.328950341139079
0.328411420974407
0.329051512400296
0.349411462694737
0.316118017872357
0.349231133443266
0.365034181345193
0.347521238392047
0.373039088372458
0.354278885495204
0.359275071806064
0.368489197925005
0.360655918131835
0.365618716124513
0.386373157230769
0.397550247021337
0.387661919901651
0.393902785708314
0.399653117617944
0.390810132215131
0.397711559639604
0.403170360443173
0.423934716935478
0.419901195143984
0.429859358838019
0.442238202520005
0.414697606584595
0.469712541396503
0.476735126786907
0.443637866153432
0.450383562406634
0.449693306258369
0.47073987475762
0.457670004753661
0.464731808950598
0.482512486488857
0.495510245755808
0.485252164023283
0.497425512102384
0.498468425806453
0.491843290836534
0.509521333541193
0.523187941258335
0.513019534738
0.514583554724528
0.517889022052997
0.526316986176471
0.540197545393907
0.538389950483013
0.551220632256279
0.567392563960926
0.530642033549508
0.565147063692536
0.601227246360795
0.544702857539137
0.550827749860472
0.579259767054672
0.583100904137836
0.578516351642475
0.593528338708985
0.608619871368153
0.609524450183349
0.633004057798276
0.618368414063764
0.637117412871662
0.64859742226415
0.629656116396327
0.62996357772322
0.631057774308498
0.645235198723756
0.660825307648562
0.662975107065579
0.652763608755366
0.654511253709809
0.671549515159414
0.677062503162857
0.703151614013101
0.694703138612855
0.674189443433798
0.693184799129711
0.688385067767031
0.686391507902313
0.747992006728286
0.741127350659817
0.723384142524855
0.709132521612654
0.768237650855393
0.797167854293337
0.75905686108074
0.750779050828668
0.771039252547279
0.807363650380567
0.811911751733286
0.804997990768658
0.782699194204424
0.815985248169834
0.808200436627266
0.763781523064349
0.821112163106843
0.792745799752321
0.797974844381102
0.786679122160633
0.806229588266635
0.823164130401279
0.817833961571196
0.84924374912605
0.877879470156324
0.868015443013452
0.864407010935534
0.915999419121348
0.921646796563
0.863924207784954
0.899266886737062
0.883407580487559
0.901382687260908
0.936137950447382
0.897921047850903
0.906890050308732
0.947683360721556
0.951457335709623
0.946037099671732
0.918856905784248
0.95939666942665
0.968080516985307
0.93929699725159
0.891459787240378
0.906265337361207
0.94223335228419
0.953552744937788
0.950145596595034
0.969031425607283
0.980321337911079
1.00157105059107
0.967716157108175
0.986810871235527
1.02483661758776
1.07249607974089
1.10577620872772
1.0608682813942
1.06966073516242
1.06232937855058
0.991999155625047
1.05782177510521
1.0558734295518
1.07292107287221
1.07719972884942
1.09626092079566
1.08022883486974
1.13459816073935
1.16983613764008
1.11625889347142
1.09015907081792
1.12304148689103
1.05007604179631
1.14457815256913
1.17681112555608
1.14666345802765
1.10471406660009
1.17298360677047
1.11096617325727
1.14564062851272
1.15321577185325
1.11556293154935
1.22141320780888
1.19540340879962
1.14767118002212
1.19242779452649
1.18040631073689
1.20847486323102
1.1440896018871
1.19330727629075
1.14994295925176
1.2820905112365
1.30744485964373
1.31358540996656
1.31583907257981
1.27023065163856
1.1796700618097
1.27458788731055
1.3097663567105
1.23528940033687
1.17962711062088
1.26044539582226
1.31015926404296
1.27164895436848
1.25936142331276
1.38387290900264
1.31488764193014
1.23881236888533
1.30188622767221
1.26953854015071
1.25651242542651
1.36428378391256
1.34440007285058
1.39529383212564
1.24302340961917
1.20577788945115
1.30970210598942
1.31870721180336
1.30894816401635
1.26852166408587
1.26382543815712
1.48468031727102
1.63575240884454
1.41925400628089
1.29995158493211
1.43269458180391
1.32714933717117
1.38259552574723
1.47249944150678
1.45481885984236
1.27695287170039
1.61780616561729
1.60855514531885
1.34363633620719
1.3430453312647
1.38596458350558
1.37799667590929
1.51087874044352
1.48556062221829
1.48972119195456
1.50793289921583
1.48858124064477
1.37374090603477
1.4215514441285
1.42829450859154
1.44755152296433
1.40227843510665
1.54602420234651
1.44298257401715
1.61176009338447
1.53894855440225
1.53689672251448
1.64597581283509
1.61759248558188
1.42302104543818
1.49753363203603
1.57696414772152
1.47358982531971
1.40077328083787
1.47210291492083
1.52327511956213
1.7918341672442
1.47139124738553
1.59240713524647
1.48042131291298
1.46817195501929
1.68963736754299
1.71418084830849
1.62745071555483
1.49103809024858
1.53810010470833
1.48500948681457
1.30938410214796
1.46401681084731
1.51589448496537
1.77872941625782
1.53647185465038
1.63640201137436
1.61670909218512
1.5818210527449
1.53854594055812
1.53650016815763
1.43739134373302
1.59807530205444
1.42795198394907
1.43398406337009
1.50155043355245
1.50969369062121
1.67382935038666
1.68111841107478
1.52824048822083
1.51720087421231
1.42135230247391
1.56610002537714
1.56049113687905
1.59406078883987
1.54053369967765
1.56487650078563
1.75069358801537
1.636795491846
1.55533291235649
1.61781422510747
1.62602050487868
1.64710247765112
1.65513927403006
1.60792966938689
1.66608981370126
1.62046431702857
1.43480325246596
1.52794356839274
1.5742856458213
1.55136285192072
1.45820349430758
1.62001039880224
1.56512040050884
1.74494717715154
1.6488774446465
1.55883215034961
1.67917027351155
1.5991026583649
1.61265764567872
1.77947916686951
1.60225426436525
1.64113480646386
1.4569648014964
1.54881760981517
1.67968966609748
1.69806560179793
1.60737100816019
1.48163983907498
1.46394425272205
1.6002669793834
1.55139809095596
1.89027259901963
1.69470057509989
1.70832020338004
1.69300695737431
1.63565460391197
1.48531905994387
1.44727654516499
1.63313496416769
1.72165134109376
1.60521374081444
1.64198478042436
1.60567788137048
1.81139288540722
1.74688668337699
1.72388611367952
1.66864351195003
1.67478458085286
1.67554582203845
1.7364302609772
1.60270234103723
1.64918936642724
1.66415463549285
1.74456344931395
1.68830777437385
1.78686554171324
1.59567546305018
1.67359058668477
1.70411284058434
1.79300869220085
1.70928292315628
1.62318279200031
1.46220249148682
1.59914014148099
1.56391181631993
1.51158669857707
1.50321763521728
1.66092509213272
1.62056786549497
1.74624704833916
1.76799944225863
1.73886810390628
1.65494365928626
1.95789021439288
1.63294251180406
1.72351758735069
1.64121200925781
1.71703188976162
1.60943162479505
1.57058848502575
1.54955686342955
1.68035957695475
1.45531356617343
1.50023969437253
1.64780507827101
1.64181013174156
1.46998246599942
1.59028903791785
1.41297597067009
1.54404782696731
1.7473300007978
1.52953016093616
1.47536957495048
1.62392738360212
1.55160575923928
1.94432768860649
1.69392870218506
1.47522549002634
1.55201258401682
1.54421025755131
1.61154391852417
1.76605326085128
1.49961363173932
1.49881896537395
1.46866521997395
1.53606139523848
1.5313972689829
1.47429874396654
1.47983782100082
1.65450171721182
1.57517029818052
1.49959063617834
1.49556559581183
1.39848324206574
1.43036457640543
1.65391804648646
1.45318963499986
1.44150298150293
1.50609349895582
1.5904369332127
1.50980825173078
1.51512863232009
1.50386223112962
1.44303568083106
1.43659830886105
1.47479119941513
1.38161118006369
1.52287998406257
1.4506705207875
1.51787695821151
1.39472908029139
1.40221167664005
1.42378749411281
1.50883374282158
1.53187696085655
1.44948494004842
1.3492278027982
1.38380780752717
1.39918171171865
1.57557810217641
1.42244522796732
1.4185166136097
1.39077039008918
1.47996287925493
1.44916254716573
1.49916930492891
1.3388092540986
1.42405974769007
1.43167905942025
1.35503673038485
1.39609877108852
1.38597941020652
1.36947644104756
1.33667437735621
1.29154660077503
1.35556624018567
1.33931524449016
1.35826312675696
1.32163608599921
1.38817619316689
1.33619643287298
1.34395818050679
1.2324059921887
1.30000968455666
1.28947872394951
1.28667076112069
1.30646807095958
1.27886090946925
1.25400681804817
1.26467562080788
1.23928792383084
1.2330959801926
1.19414724526256
1.2383325817705
1.26270421394643
1.31273861097419
1.23987721909207
1.23419307729999
1.21593218392502
1.32791283445697
1.28301895968356
1.24743426734283
1.14156767439266
1.25598026543693
1.13699380661447
1.17126690598347
1.21688085441437
1.21841679301201
1.14956470533948
1.15254479745418
1.18042507294775
1.22007838067088
1.15733677869563
1.14011356961234
1.12222896598798
1.19076790714723
1.14401790204733
1.14372494824675
1.12702915109409
1.15415377331921
1.07399403712758
1.10642926692523
1.07086891452944
1.08861123559128
1.06506687984583
1.08462327122374
1.05640527236052
1.08509758753442
1.07066052225746
1.06264354721328
1.02795840873365
1.05111155961024
1.03665283732149
1.03789265552989
1.03447759748634
1.03699802910637
1.00707021123533
1.02850410254409
0.999602554711215
1.03880820248494
1.02541232617031
1.02958242193798
0.983866860733055
0.994073377825454
0.957183969147882
0.966794160282425
0.965655831689639
1.0144352282641
0.968137770622564
0.992723875871523
0.930518417944431
0.948943012790387
0.926826147073964
0.95707922828061
0.933587864266337
0.966716163415494
0.931278124472821
0.898707717202828
0.919744462798435
0.947436390218013
0.911276082936142
0.919191681349653
0.897214818842686
0.901538906417653
0.878780260279879
0.91099705422034
0.87928121143134
0.896052926929838
0.867673363091228
0.869192101176035
0.852003018223233
0.875912257924487
0.867945991879192
0.879339698358178
0.844276988219209
0.852001904795136
0.846992356397859
0.856572763062658
0.836095252349688
0.825133536531802
0.839672813870211
0.857818378231838
0.804957451136211
0.817758556221598
0.810792810726944
0.796502602230673
0.796576050827553
0.826546134759648
0.794452815480956
0.798587103287372
0.775931060906068
0.811693211322436
0.7887898315405
0.786786044680791
0.772701044487143
0.783643010407209
0.750353706504988
0.789662395522355
0.76954012003624
0.761675559451618
0.765843359076138
0.762485681013512
0.734585586056694
0.743711115540503
0.753558006576598
0.751829487654334
0.725645915899359
0.741536010240632
0.721673788147117
0.726894090639715
0.703217672021642
0.731931504461937
0.7136394572633
0.689050758489346
0.690613359740025
0.705126436156036
0.686626743196092
0.696939180200667
0.690547441261293
0.687283207827805
0.689470816612052
0.704322371414424
0.676566839304965
0.670733081773704
0.66916292335217
0.669131097561592
0.65172324351084
0.67078849997071
0.654707434474857
0.655988669821049
0.646570932435599
0.64333007519136
0.637533504451443
0.640826221168151
0.620133074075651
0.649184741845317
0.62881510975093
0.628646527309623
0.61637221696689
0.622610632234689
0.619927795020287
0.620641781806296
0.600616529492688
0.602087639484092
0.587425083790167
0.612192658011364
0.594017164825609
0.600645857825605
0.574104919905535
0.593344970521585
0.588104313972715
0.592491983562376
0.575182912552968
0.582713462483582
0.574058765511638
0.58079792483373
0.567641296363577
0.576979795619058
0.571612775049896
0.56278314558466
0.556576992836508
0.566073452227639
0.554752711696807
0.556895344147605
0.545807605984045
0.552745450534451
0.543065214768448
0.566157851640893
0.542518828739323
0.55515421775284
0.545211602420534
0.554472878131258
0.536045148182466
0.541650930528812
0.54139713639082
0.545979552413034
0.526541665238432
0.539895752795705
0.526735333582022
0.544658349037764
0.526292543846496
0.534302885602103
0.532083257356908
0.553338986195477
0.532790823447388
0.549917334084825
0.533323421632862
0.537071662398951
0.525015891321319
0.546219655048894
0.529535957918074
0.541434568461521
0.535085959812946
0.544057439340399
0.54441189763868
0.543475963063503
0.543503379688194
0.561004271795903
0.546019950937752
0.56386532047709
0.55289767028154
0.562824445017685
0.556750871699827
0.574204218370235
0.558874761768541
0.572763497734734
0.558013593833506
0.579194427329965
0.564853972008063
0.569910005929431
0.569076572396374
0.583312234912693
0.576800619654042
0.590614430719043
0.565100210805515
0.59755689666977
0.590028016719877
0.58890917833841
0.594786524726255
0.608470067148092
0.589518722051874
0.617270621271469
0.608085923939022
0.623894907223404
0.600346679357839
0.620507986641947
0.615784309319328
0.616071035919869
0.620434247928121
0.650751581508034
0.630295378055715
0.641480150074596
0.636389190896178
0.642338283685485
0.644814208181152
0.658147544954492
0.638247698603998
0.657252576881868
0.649567918176397
0.681934408413051
0.68316768444268
0.674829339869679
0.668352096673192
0.694414016693302
0.676156180276473
0.684561372898416
0.694713131677465
0.707329054312322
0.689300741584775
0.705926005209243
0.687795845185619
0.714353722176049
0.701356357545517
0.713413801957352
0.687663378948225
0.724496805707769
0.67815067806273
0.700568363824714
0.704713604531924
0.700536338375305
0.68796813981401
0.696370003838389
0.709771937980994
0.712263239732307
0.684925223872697
0.701048678120758
0.690784329511555
0.712051886085037
0.684014010462233
0.691557707113887
0.686998285520989
0.689883774521677
0.674482574917843
0.707776609185088
0.685698491511118
0.705800419052329
0.675417260574731
0.687204334119145
0.680729547933517
0.683225706784142
0.677628117960829
0.696268565170479
0.694547712289906
0.694708031879765
0.685903689032154
0.687965963589359
0.687088496867754
0.705657960365504
0.684766725549522
0.706196438641811
0.689229586372201
0.702128259558445
0.689418860180089
0.709705780315434
0.692710346481967
0.689672214068647
0.689566331363531
0.707595935285072
0.669618422643092
0.697208855467012
0.678848641645555
0.687257747341318
0.677538397615131
0.676951509176235
0.68806711712927
0.684550496494986
0.686188113414805
0.690912721505335
0.672545058484412
0.692883568469508
0.659987844165874
0.682774670162264
0.672342827374748
0.660317226359936
0.661116206605414
0.665663309019585
0.646327207678928
0.64966989996322
0.626198440853567
0.654289569473755
0.626333223200111
0.628369334935529
0.634370832730369
0.648617041008337
0.614526015850091
0.636317445797621
0.602799901454983
0.609150563550949
0.603007805781098
0.607279597448249
0.582922456107504
0.595136321549205
0.584126164915276
0.590793150784766
0.572217579736123
0.584409904367082
0.567235269645404
0.576901017914817
0.550970289818116
0.565080383777142
0.557703812751519
0.559217590946769
0.548699464785967
0.557877952713679
0.533973612706835
0.540477333039888
0.527559520523899
0.536869298655942
0.522240528015377
0.529622404376569
0.526557108258459
0.529752319929051
0.517941810912088
0.521785519527162
0.504262959541932
0.513174484182153
0.503847702416165
0.503643561237739
0.49744013427194
0.505504786748599
0.498101146695479
0.492899901411916
0.485975578108657
0.489677301871099
0.479273821751637
0.489329818504585
0.482618716086383
0.47878581407818
0.477776149073335
0.483021538716464
0.466021178532346
0.476356467101126
0.469663236573333
0.479802507948787
0.465104517961511
0.460982821268546
0.465693161814378
0.46418555675371
0.452213464820072
0.457691941258635
0.44770489752467
0.459088271667842
0.445522632593254
0.457049596689107
0.439513143182111
0.449957204367671
0.436450718472165
0.45471183106128
0.438799967741005
0.442527457974501
0.429572097628627
0.437860764059157
0.429230089761528
0.444583028690397
0.41757226189391
0.43907120612475
0.423558026494361
0.435724699357501
0.420922091636873
0.431865537072182
0.425916220434362
0.426096334755987
0.415453354187547
0.423183474764787
0.424257254990572
0.425459663390286
0.416934849905246
0.420281411529783
0.413003649331749
0.419676992417429
0.403005021571247
0.414882009776273
0.407425861721649
0.416695036766211
0.404803138694946
0.408594869156166
0.403719665163402
0.410672652300345
0.398949713855151
0.408428326722486
0.40402843982797
0.407738453266649
0.39238621301114
0.406494039345346
0.39477502776292
0.396009040662981
0.393256512255336
0.403881967723893
0.389682325999679
0.397699690102915
0.390318886300255
0.39775403987178
0.390840074330867
0.39828250207028
0.385029849932793
0.392383621035169
0.379105143775664
0.391503166195372
0.379032493122129
0.390411007572058
0.383574038149862
0.393162078632794
0.377271680013631
0.387398124300974
0.377197932408158
0.391842426404874
0.37835866435625
0.386951795849952
0.378233982880552
0.374949333694444
0.373959089201884
0.375517572189385
0.367544675898498
0.382436021106791
0.368210405041093
0.370535863835936
0.36387115544702
0.380238459088761
0.369285997276304
0.378824711435348
0.358348875568393
0.372200174690622
0.369788656318237
0.380804041374676
0.367179359995582
0.369869558714842
0.36856976688748
0.371674555048908
0.362669340984735
0.376313720022041
0.358969715926135
0.373411193986176
0.362763086516893
0.371401049219108
0.362810702829435
0.370532972245827
0.36288423386153
0.369078795396325
0.361482406334685
0.364186619687431
0.354076203414982
0.367351477650132
0.356841371703282
0.361046818965683
0.355724526495503
0.355971226047569
0.350892459930587
0.359967217728373
0.358916023664362
0.357108520435956
0.35278624996432
0.358498309144019
0.343348173556471
0.350773778778403
0.344261874328274
0.358955409509942
0.350671263537955
0.352704539014259
0.345929757133501
0.355799301202681
0.344610053076455
0.35263090299338
0.345305593502163
0.355457778001046
0.342803841788319
0.344247352026368
0.334315041122078
0.345246917819024
0.332039483701821
0.34405028596465
0.333318164846018
0.345425934500553
0.331586879389975
0.33610175118306
0.328681299319273
0.338489223297947
0.331708835055177
0.336353466302636
0.329313758204848
0.33591929561189
0.330444768820227
0.335956119719541
0.324051658215319
0.331542118385173
0.320586417682184
0.326816688089788
0.3220570252387
0.324094907020526
0.316122276143518
0.327733863178109
0.318396317517546
0.327650711075158
0.321934616972021
0.323909350815224
0.312357984931771
0.321574781243468
0.3128729341538
0.317132007765534
0.316856541707882
0.317332066952504
0.308867779338402
0.318247284282346
0.303233424300008
0.308908697009777
0.309311257240137
0.311478658767855
0.30173931819064
0.308391371525188
0.307111450644821
0.301192048921511
0.299761030613415
0.312025701436768
0.297957784676132
0.304505713719139
0.295770781475458
0.299387305639051
0.288720531829801
0.295820988673731
0.289195411146692
0.294587511147967
0.286230530327057
0.2965934969178
0.287370925358784
0.290581852018645
0.284370278687883
0.291038107127226
0.285938064421969
0.289105830588339
0.279182098629838
0.28725688503873
0.271220315514813
0.28128233906768
0.278206133411946
0.277736494735424
0.271351567803718
0.281400201233146
0.269513455919907
0.281438778135806
0.267975090518925
0.283624887005731
0.271020148578897
0.274033801414547
0.26753241218423
0.279153172921937
0.267266255092125
0.274466279926606
0.261514081153089
0.276681063149335
0.260086907385862
0.269957687398211
0.263380590083344
0.273153702129881
0.26625572473642
0.261337185648454
0.261192534000209
0.264539833301437
0.255924276965281
0.263157114529171
0.251638703582817
0.264995103327218
0.251771664889032
0.268486244446658
0.253651542719575
0.257823386210434
0.247834339457407
0.255246236610696
0.24939534615665
0.255235921079842
0.247920096457924
0.256425648651403
0.248484965210429
0.255782547973779
0.24868446389325
0.252171842441681
0.2440549885126
0.25292103424727
0.238761306838918
0.252722479330311
0.242914739702456
0.249239954183866
0.244628705867749
0.242816227618538
0.237912790260632
0.243246789884888
0.238539734592272
0.248447307591879
0.237400340103661
0.250959806568676
0.233973021039738
0.245444620387969
0.240439956568495
0.244140345007232
0.234820005740879
0.239562923398042
0.235199137780106
0.236522856205121
0.235010616115362
0.235972550837246
0.228179450144843
0.237438755202877
0.23091090303209
0.240015907725119
0.232594043993637
0.234286667368943
0.228617165537662
0.237012058799371
0.2320980180734
0.231557330306574
0.229108584645995
0.2376741334079
0.230265594768704
0.234308509424908
0.223989351873222
0.230923741630981
0.228956803641438
0.233820232846733
0.225218138515155
0.229104098804743
0.221969709359294
0.229048667051073
0.222255049708217
0.231240280174387
0.222169366376188
0.228487937502342
0.220721871223143
0.229241392129215
0.220552674147451
0.227453726048065
0.223856714792565
0.227702382713636
0.217666101906778
0.22420927303023
0.21944034098356
0.223341372455046
0.22048335023041
0.225724842824137
0.216889389969971
0.222065979923343
0.21266371327232
0.218366066238319
0.2152633310973
0.219276337338125
0.217476238694267
0.217215849840242
0.209048351586083
0.219718803669391
0.212762717202113
0.213093510434109
0.208965510784902
0.213933942628286
0.211288886125103
0.217362184281722
0.211975602923999
0.219034881005348
0.212316013360442
0.214458484445987
0.207580359726466
0.213193175725864
0.207463381954282
0.21320600110579
0.203849414154292
0.212001718787474
0.20581878914431
0.210664921582143
0.20609634960849
0.208223524178577
0.204646957904454
0.205217104139312
0.206239321881542
0.208743138998861
0.202589998227292
0.210126900750897
0.201682755783853
0.203997450213526
0.200301520676621
0.207439474009393
0.194894960371421
0.208789220388597
0.198130790616527
0.206575707134604
0.199125924174388
0.207768771745824
0.198257556065524
0.199955094802206
0.192923561555738
0.201587651757633
0.19512178343396
0.203025458491537
0.193969506261101
0.199330832198102
0.193317713670504
0.20188153647068
0.192613197603654
0.194840608585189
0.188928903110743
0.19537991842077
0.19077285495474
0.196313136382783
0.186878151154251
0.190806472392371
0.189693887715547
0.191201354429724
0.185839374001198
0.192383460373231
0.185817455823662
0.187251425778492
0.180508417057345
0.190540710317814
0.179421564432731
0.183551844854754
0.177981803443397
0.183414616173052
0.180646484478685
0.185289319172096
0.175343498050038
0.183634063264591
0.181098681131068
0.184053372465566
0.176318952304112
0.182696056644934
0.1711654411588
0.176594954758793
0.17478284139453
0.181770899380139
0.170414261164172
0.175573619307243
0.170547362423213
0.178379670555113
0.172147696762734
0.174462529637099
0.168227996152054
0.172856874681145
0.167544881537264
0.175093902778111
0.163849157826717
0.171771382706342
0.159866496612228
0.169921666435123
0.165849884578625
0.170874333941518
0.164878487088761
0.169100511511024
0.16189115327521
0.168312718361504
0.159906454157995
0.16873109165411
0.163553642067788
0.163940265545793
0.15857486751075
0.168954658939285
0.156379448202297
0.163077785062759
0.157809934682685
0.163580680363776
0.157736655844728
0.157033496362954
0.154254791496304
0.158858975418063
0.153535130000961
0.160142681221154
0.150392311903704
0.156812126198484
0.151765528497995
0.152811830787446
0.146416268924273
0.156376822431789
0.152384353815544
0.153112486035621
0.144329986601897
0.151683985178723
0.144828564940711
0.154818110093355
0.145999361221733
0.151563368550116
0.142682155524357
0.150435088269503
0.142242386293589
0.151572502792741
0.143393364987395
0.149503801551873
0.143306376147279
0.147141387814022
0.142441486707476
0.149327057966203
0.140497086208
0.145824077007346
0.139318637921469
0.146564216537229
0.139272448120854
0.145898261293411
0.137845330370311
0.14583903066062
0.139972964437532
0.148305381655365
0.137896510572729
0.148580671997539
0.135047877693974
0.145284977580157
0.135425436577101
0.145629715057113
0.133655636866308
0.145660526659111
0.141340136177978
0.145277916864339
0.136801709640305
0.143474610428482
0.132490642364407
0.146041353285481
0.132698243382702
0.153133002600039
0.137052416647498
0.15286340833726
0.134673612131647
0.141076763101562
0.126115289676188
0.143758509665946
0.136261798332585
0.151344258601433
0.125991131684091
0.143981322616962
0.126867653630051
0.147018178660397
0.129396349117397
0.151459673411082
0.132583478691632
0.148147376990314
0.121965816102175
0.146696874546357
0.12684452516301
0.14865274173967
0.129248916030787
0.143846323343046
0.127600203622859
0.144322988765303
0.112764162124546
0.141108871046245
0.117801727721057
0.144166435096389
0.112773409002713
0.145972400147367
0.107586062504237
0.144615263818991
0.103690653577902
0.148345536834922
0.108956805972379
0.152830214144334
0.11086946872377
0.155569599739682
0.111779675801182
0.154472679485937
0.103987813482945
0.158838529200264
0.0991161658187071
0.160729176456294
0.104059815822467
0.16425057153684
0.101968724458255
0.153674807327198
0.0955849436732931
0.163230126048043
0.112794683196376
0.145876293808151
0.106273039245734
0.143242928383298
0.125724735408489
0.122025451136661
0.132424417658251
0.122026602323035
0.146081501014313
0.105834422464212
0.150790138214396
0.106256330081311
0.149823876664326
0.107780087032017
0.14484237063428
0.107864494353614
0.139953206832772
0.118729138551122
0.128668526868476
0.127137198537082
0.121903819997604
0.125983340254587
0.117545887522043
0.123678984368861
0.120402931637065
0.121419778074118
0.124429777203628
0.116840295295844
0.122924545872493
0.118632450156861
0.126384910191308
0.11814187306275
0.121127583990106
0.121042507277044
0.121165731677833
0.122560870818096
0.117908343256511
0.118126816944709
0.122332811756469
0.119888566721934
0.122159219136816
0.116700664880028
0.119966123378963
0.120463390799824
0.119687625607606
0.11980979271918
0.121099040206303
0.119104172391616
0.117457816046614
0.118955778182886
0.118591810203854
0.120431470122408
0.117071719155319
0.121473512152151
0.120801777886403
0.119963022406114
0.123260020559891
0.121914485900247
0.120380405392039
0.12277447134578
0.120302238687093
0.12037197948026
0.118466915436236
0.120149070434465
0.120911725212777
0.12038893437933
0.122486526214034
0.122837302971256
0.121892106745068
0.118704501871902
0.121476288158985
0.119113493998902
0.118693426649969
0.11889085648764
0.119980466070661
0.121635425712816
0.119491590292464
0.118856056073071
0.119040334816662
0.120407593128772
0.118854172021899
0.121690840167169
0.118301673949566
0.116805346527053
0.116989985292477
0.120932632200073
0.121357612781919
0.12306448460778
0.118810311459157
0.123423107076618
0.120949027242932
0.121427875069906
0.119575689591813
0.121246208556399
0.119938635192535
0.121763504231586
0.120904211351603
0.119665795325084
0.119224046054297
0.123701593980703
0.121454492566232
0.122161445587727
0.12305545749926
0.12096958784391
0.120638856003152
0.122094753476618
0.123967143436263
0.122815921545969
0.122172675486465
0.122063127969365
0.118584624968792
0.119812990253058
0.121869257942539
0.122856492934645
0.122208062103096
0.124773653163758
0.121063969468887
0.123761651897147
0.121813535060137
0.123946540260167
0.121549772030195
0.125208446316198
0.120420241625198
0.123561854520787
0.120909066784771
0.123938291999797
0.121969064652373
0.128316265110357
0.12387362072694
0.125174334179887
0.121933443491582
0.129339846808304
0.123949378065655
0.124779021670562
0.122422637108104
0.126526124778099
0.121141623639596
0.126962987853889
0.121998045096116
0.125036321725206
0.123892912212661
0.125301015247763
0.124830747464068
0.126313252820603
0.128847115947729
0.128373825900192
0.125080172270927
0.1277666616924
0.126933860706538
0.129912014344696
0.123650849520544
0.128835027341895
0.126810759257561
0.128769359823573
0.123861531496531
0.127693789525776
0.126180200201702
0.126593089841614
0.124328066112978
0.131145551349017
0.126676689997583
0.12937773518161
0.12728874562725
0.12942398460343
0.129849360576596
0.132786800330918
0.128229541694239
0.132179896787487
0.128539054596013
0.128013428912936
0.128876886384199
0.130017689490988
0.124206609049132
0.132033822268944
0.13200763390669
0.135244215643931
0.129361779576199
0.132118066804622
0.127838554929483
0.127265941654872
0.130182175227246
0.133094906632381
0.130182033017838
0.131954980841563
0.12937315736141
0.130775834207248
0.127806164111112
0.132220726826106
0.129906379427753
0.131343027635601
0.129277484386458
0.1342245428737
0.130094878939135
0.134153286115374
0.128978570502561
0.130282619596815
0.128811636453569
0.131145131688435
0.128637799363065
0.128805946116837
0.128099345726544
0.132910172193497
0.126972668261085
0.129219463455625
0.127722707466744
0.129721429528843
0.126546212767241
0.131087011006297
0.126723598613752
0.129295581040892
0.128147101701945
0.127291533272096
0.12326064203309
0.126782703210412
0.122822799818126
0.126955457584127
0.127675325286468
0.128165179608262
0.125129938344108
0.127008898128325
0.125512156780491
0.12726613819633
0.123999599686662
0.127147728788054
0.125292278686922
0.126428597664978
0.121209642575807
0.127169378126892
0.125073380138566
0.124642745861089
0.122537618181656
0.125549666493334
0.123492401512118
0.127307074404018
0.123435274600954
0.123756285267805
0.123554214935203
0.123919051731132
0.124033652506717
0.125003544629316
0.119966872505494
0.126548818138914
0.122404737812409
0.123535405615912
0.120451116095623
0.121062374601431
0.122194579622421
0.125821653969053
0.11836237310652
0.122965587123165
0.11902696675487
0.124871867225504
0.121485194721352
0.123193579109007
0.119948185844501
0.122570463738701
0.119424125457658
0.123360406915229
0.115714732168946
0.120745358745036
0.119683651112257
0.120914159561775
0.118696654557588
0.122290768027079
0.118844369202465
0.123157987153647
0.119609713302762
0.121540709829554
0.122792612884855
0.120644902164624
0.118686438937857
0.121063103383822
0.117084637432718
0.121322796546282
0.117873591385779
0.118398285570536
0.117151598725165
0.11806276938531
0.116487826767552
0.121706782789099
0.115612040037665
0.122296646973128
0.11772625810236
0.119346080067054
0.115470231734512
0.118102246841498
0.116919460473985
0.117762620314305
0.116036933863896
0.116265126128321
0.113492619599043
0.120623872867188
0.117313164164177
0.118328354156641
0.112757189487373
0.117085469727644
0.114256390568725
0.115645665307256
0.11447599741881
0.119507592971469
0.113990230090291
0.112965648233113
0.111423426641562
0.11504850873882
0.116325671757897
0.117874764078767
0.11075279031368
0.114294638660014
0.116428226018404
0.114605350696247
0.111903522787348
0.114274173934948
0.111481413596459
0.11182923271935
0.112078388360234
0.112464154341253
0.110720969222873
0.114227181430128
0.111215207284208
0.111621104868701
0.109989641912778
0.110541517574408
0.106159717183303
0.11012298569386
0.109282635606682
0.110622355705369
0.109368550442109
0.105765109403524
0.105020192831109
0.105188129912408
0.10980993122623
0.11052546376578
0.105926604332312
0.10874431995133
0.101359486662751
0.105803634638503
0.0993228573509229
0.10599510287697
0.102817675873129
0.105753876522437
0.101902166079431
0.103144862894203
0.102093847042064
0.103212031356333
0.100409929797797
0.103094412076557
0.0993984032942261
0.102979307811571
0.0968617100426327
0.102046579539087
0.0967305416176963
0.0976318729154662
0.0956919116597653
0.100374756594083
0.0966350629129396
0.0987285560293974
0.0924080594465644
0.105563052102054
0.0997025515099742
0.100503754429092
0.0964308523231198
0.102210804532499
0.0958498167909619
0.100636881952
0.0943199540062011
0.100342024172713
0.0946440534891522
0.099628224150266
0.0954677240964692
0.0966172758758194
0.0936483850424132
0.0982386431855833
0.0954441714157538
0.101183356716839
0.0946486706383847
0.0946944370031196
0.0953703859309009
0.0964210562873746
0.0917205094835671
0.0967840391560928
0.094189006074415
0.09923293749568
0.0904354624198725
0.0997708711163041
0.0913476543979098
0.0953458288341914
0.0932965048217268
0.0942015635741017
0.0905239794561367
0.0942476851725211
0.0925963867418236
0.0929526137720009
0.0920089731678789
0.0927313733351846
0.0905079904053759
0.0924606124985381
0.090262017823945
0.0935479102621433
0.0886021769613373
0.0923585881016392
0.0896726705873564
0.0932084305256124
0.0867894278567463
0.0903715017607052
0.0877661081652963
0.0900191689414187
0.0881123171556205
0.0919716178650661
0.0909883957093928
0.0851153096820941
0.104380588966008
0.0889197808303515
0.0925243228949308
0.0884540011507503
0.0872379899516184
0.0877532736600644
0.0849073688754051
0.0889359427375214
0.0860362714550375
0.0881123969504868
0.0875618587918257
0.0871779766398657
0.0874265055775519
0.0892692045901926
0.0869786115369428
0.0863907605042562
0.0874212120071848
0.0898394525750601
0.089046979678752
0.0867052083920917
0.0844608163437054
0.0944598379838856
0.0890812363365175
0.0841697395223365
0.0917815318676944
0.0785134108905967
0.0931375539120431
0.0969233575914927
0.0825202533613304
0.0894783537073246
0.0810266660974973
0.090897066980623
0.0831173385592524
0.0911193565188187
0.0829231083220688
0.0966394978541932
0.0832087821044163
0.0878749332922234
0.0823925843702286
0.090636893606589
0.0808502871466156
0.0905218967539554
0.0840503734890632
0.084636393761438
0.0848477487057657
0.0890687802739387
0.0850506582910644
0.0847978003141932
0.0822213446801593
0.0884138808244723
0.0810582390488378
0.0921156659550637
0.0824717600662735
0.0895283390425571
0.0835915962643661
0.0871396849255912
0.0756893711612647
0.104642043109531
0.0805892860455166
0.0866425272945554
0.0811147406392196
0.0881687196970272
0.080744256526066
0.0852173649250398
0.0838574895890072
0.088101422976879
0.0813935301636272
0.0851125630205327
0.0822537029173335
0.0867423178452708
0.0825596236973929
0.085984868636124
0.0829142158057555
0.084143770030576
0.0873237407660734
0.0841116920395478
0.0850653877339967
0.080207704454928
0.0789812360267403
0.104362613796999
0.080460186015433
0.0956735836924057
0.0829053558613412
0.0888870969405418
0.0773962545950655
0.090798740317835
0.0782150379258119
0.0895026593950762
0.0794544667759412
0.0904455882091388
0.0825020902811573
0.0898951006200657
0.07954209401084
0.0896127182247788
0.0800678416395486
0.0901891605047997
0.0803227276988211
0.0903678587683051
0.078970145552598
0.0893926633381212
0.0773798471658083
0.089932130787613
0.0795214662712438
0.092371506693535
0.0692911977343378
0.0878066559945205
0.115078173502898
0.0779076458990728
0.0975423628450482
0.0814332153770207
0.0862054910038104
0.086040621669011
0.0834591764776916
0.090289408476302
0.0883156049523319
0.0840633836666436
0.0874429381912801
0.0841192754361342
0.08970996643665
0.0820600295210711
0.0746046991546722
0.105185329917731
0.0908706869820685
0.0890232097876281
0.0927542196854084
0.074587122319458
0.106392246827644
0.0902913496726917
0.0883694421298159
0.0944207047333039
0.0835631279119606
0.0900429863355897
0.086486366222554
0.0888312004897264
0.0861837800577142
0.0965239148634577
0.0833086382363915
0.0935510353083185
0.0825415048063084
0.0934986790029309
0.0889046150290412
0.0950439246316537
0.0996420653512226
0.088538470561985
0.0906193495785611
0.098576388884221
0.0881566966118068
0.0957834484835093
0.0912367958950012
0.0975617998837743
0.0893184449677221
0.107431875829648
0.0863216385161655
0.0962310357397744
0.102660572544281
0.0935149537920384
0.0950786198274317
0.0995251143519915
0.0984481777169703
0.096763248687904
0.0707731268425317
0.130330838667487
0.081450648802139
0.121004086618997
0.0878035452757614
0.106680697890153
0.0883598808164554
0.107077617987721
0.0873504919626432
0.112027729555353
0.100653197230905
0.0979960302627004
0.0998064732477578
0.098730068297776
0.108875204039545
0.0982275686110913
0.106695759204768
0.102519412996537
0.101913513852007
0.0984148535016222
0.1136921008246
0.0817776636760964
0.12120162193505
0.119892039733358
0.107161331273672
0.123050133315026
0.0852325367567877
0.138129621378431
0.111896379333346
0.108998345279388
0.108293703875493
0.108868699465326
0.114279587072896
0.0918169958706774
0.127479235594449
0.122003655516755
0.10125884089598
0.123221848680906
0.0978753215010114
0.125022888259252
0.125254892170923
0.116842018605078
0.112499107777468
0.127145374067053
0.10319794199784
0.125306564586621
0.148897570560439
0.106071191932759
0.15306620230634
0.119841546111557
0.140451253254761
0.126656020175283
0.136327657799329
0.126117977814077
0.147138086925732
0.133612520751371
0.128034420000999
0.126273421480108
0.173031771779869
0.131464567569027
0.149813368853333
0.142032962525997
0.126908518304533
0.144880055308531
0.186500417972421
0.163790554265119
0.163259842656131
0.14291994084005
0.169260981312231
0.161145730383236
0.154760576551999
0.161267239671163
0.157689665920679
0.163092523848127
0.160237629157706
0.172789204102889
0.170520173907321
0.164702729163035
0.1757971153954
0.160371493458935
0.182410224754682
0.184961621239087
0.219711993790358
0.1698675448829
0.209647832286197
0.203377777938297
0.190881745455884
0.195331818655575
0.183016207008484
0.20382445854459
0.196209854166541
0.197624519832761
0.192891318433508
0.211126572233555
0.226827107651344
0.188542065318323
0.244493154287713
0.208321427539835
0.23509170011684
0.16194376657851
0.34516881800461
0.265105720116542
0.246164138857131
0.272307533805591
0.199340559537846
0.35507154989605
0.286632629963184
0.287678874166751
0.293509389839128
0.306455658324745
0.307425632941368
0.331445370513674
0.327397824229501
0.345055706916038
0.353356369087509
0.351257878155626
0.348693942012647
0.440606213138164
0.411388297889507
0.434222280307555
0.391837208995617
0.427308366634726
0.431484640704523
0.444124335569789
0.441262431533298
0.467898602974584
0.418908416723455
0.554657697644059
0.482451623671692
0.519578105996186
0.498155112093638
0.556262112161167
0.510463647451314
0.544523800690958
0.602220038745734
0.564492157139438
0.594645383251027
0.58585433477071
0.616818712534131
0.585815581732571
0.65029408196842
0.650127555299604
0.635999113173522
0.663653027761944
0.663371790314311
0.681614173684561
0.68608538511718
0.711073211743255
0.684807132104323
0.732590016268634
0.718412780965185
0.85746512327742
0.772876307946694
0.71274766301455
0.740580526127135
0.712070989587763
0.776209425725037
0.745953903408488
0.746476360168761
0.792944272534297
0.722979730358883
0.763763713745327
0.746912053539766
0.761633410404991
0.748359939141218
0.769216743274979
0.748558316880608
0.764898310655155
0.773898179302149
0.709623467481469
0.848563834161853
0.747175461713207
0.760685582945008
0.744939132430113
0.750863413188927
0.746746363186179
0.756684101016369
0.739639670524294
0.78967389433554
0.722072341539241
0.742927184362019
0.719559336501313
0.70217924384157
0.745801636038261
0.691654643160839
0.680025085043235
0.652654008547636
0.659834320077536
0.656317582613202
0.598188857286072
0.717059754791489
0.642468902376348
0.614893198035954
0.60925746374965
0.601464721077713
0.601558017934079
0.601482475237448
0.590182757721261
0.592865595534883
0.577237458495613
0.588889698186177
0.581443655513067
0.572102653118821
0.574077975351383
0.566695660506619
0.561132643623984
0.557455369705352
0.564484495010097
0.548249399173728
0.563062433970448
0.555397770299809
0.555123377438658
0.554559984842272
0.546474050601722
0.54875868372926
0.543466043390881
0.550162723024493
0.565169518623654
0.557713916736353
0.55623009572517
0.545652883732268
0.547815759899754
0.545480467575001
0.553098213064312
0.545137086358342
0.559333268303532
0.550167263289477
0.555914229530057
0.542946715915669
0.552559940065103
0.537615425007764
0.555301437481149
0.520523287061976
0.56151323452668
0.601641899330506
0.534507469535936
0.554390095729665
0.534022434365787
0.560156601426699
0.515936029814004
0.556631311885832
0.579810199345588
0.536718360809443
0.545666808207375
0.535556304537141
0.53825888416334
0.550466363474599
0.526218825853529
0.546110834632447
0.520723163618524
0.502648911134235
0.630239643471281
0.51154803486846
0.657240068215293
0.541228992965623
0.533907510761438
0.501459493506607
0.596935000467228
0.525364475876312
0.540516157216378
0.524814780775877
0.540729853027319
0.550880457298939
0.530445547569021
0.539714878526058
0.5185461277719
0.525962463914412
0.566359589072881
0.533842430363723
0.497859036040691
0.548501155475191
0.514643166185992
0.515555065140874
0.539324495589208
0.538562842298668
0.507741894523962
0.495999082444035
0.5008677636036
0.474248354106788
0.541485913140116
0.496842758020789
0.489251526657004
0.486401626354826
0.464600487748981
0.471750095096203
0.457228923156264
0.486796303362299
0.438527348643697
0.498893862846012
0.447255387834155
0.443375247115796
0.466787781268119
0.434772849091586
0.485707945993731
0.440532290472446
0.430457829184381
0.419073867688943
0.481702057248038
0.428031376579077
0.440221535547813
0.416310413057901
0.404237871627153
0.427298058553097
0.405053136803994
0.392442349351611
0.414672948874869
0.383448499741086
0.421284928739666
0.412434502224317
0.427247229657131
0.395626568478544
0.371911061566933
0.375345878089189
0.367470098844501
0.371571202814408
0.36248501692407
0.356873851697596
0.400487940689618
0.333092943897059
0.410494562037789
0.376737387235688
0.364279030904282
0.369960705869089
0.369452518313098
0.360381713109539
0.399570733322035
0.389886297705636
0.402510683566669
0.366895647131747
0.403147630552562
0.379093075548246
0.404534772132337
0.384096147416048
0.405379372531707
0.402121881305013
0.418818004954348
0.40824047396091
0.428895386250456
0.422137684275231
0.439366661737437
0.424742891726385
0.503265205629783
0.445900033418772
0.484027677150506
0.490455300682869
0.512660467471076
0.520733468001211
0.496344863100517
0.519944301821751
0.52056445801602
0.525146621273499
0.531209063906172
0.512204537318556
0.59910947822305
0.549199704958093
0.562459163259245
0.569955979256099
0.576724497879988
0.568755843503007
0.585208866702566
0.603183894821177
0.570956822678926
0.65982131708088
0.596627844577341
0.619692962963501
0.596832935923468
0.615345295256774
0.621838620189877
0.617060291156033
0.620411934841192
0.595901064866264
0.635180249633424
0.642076556963537
0.632572430248196
0.642228257477775
0.631488430646812
0.633506557361417
0.643868526899162
0.642247885427379
0.641197755269571
0.645650000528746
0.669383995220002
0.627157468700635
0.697023434767642
0.69319259804235
0.66111696221546
0.684805297123247
0.669996959927054
0.692629216098511
0.680508243183483
0.682858210542555
0.699687775453345
0.697617218589574
0.70588466777934
0.700311021606106
0.714613482457592
0.70635265885867
0.737522458657092
0.71981982086635
0.724573719145667
0.734270254069054
0.688637262004344
0.781441455333058
0.715087804702456
0.762223086351091
0.739861894428721
0.753823004987598
0.750728404948236
0.75800980496032
0.754610993419918
0.763708190104083
0.761720528107072
0.757941243261669
0.762732264947655
0.757195398940088
0.766242385409041
0.747884241381785
0.769834291715443
0.772581824224698
0.763656543842186
0.767812517808193
0.758464699363781
0.762899673246449
0.776870885972692
0.786001898509319
0.755727529181928
0.774710426174617
0.74456201719789
0.761329331704013
0.765432363784332
0.754487627676333
0.745614341175087
0.757579832361476
0.75591662062794
0.766809210577246
0.748871456950159
0.792751872142935
0.771253548763031
0.773948637787938
0.770506342747065
0.782695585172819
0.780798432832766
0.793748711460885
0.783328557508316
0.788615667101201
0.796694602534691
0.799808053007813
0.792289829973853
0.802102449135577
0.820802721562815
0.800957948617344
0.802550083864103
0.809899565490286
0.795169823485333
0.797478361273765
0.787036728953941
0.800775184633205
0.774794883203251
0.780060220651768
0.772254301339233
0.780124409383919
0.749770621843156
0.78143125645861
0.764045316075697
0.756593732308974
0.757005742342271
0.730834221574996
0.746327961686316
0.731177030530544
0.731721268059087
0.719423551316649
0.731134211311426
0.711606761455724
0.70784187887991
0.714463772967709
0.713900076577432
0.708025633082586
0.706626540108369
0.708042483761186
0.702713060423189
0.697735786438577
0.69512359639504
0.699641108326976
0.698212371048617
0.703973358947711
0.69852503952071
0.705891137120702
0.706516765107757
0.705716273930259
0.702807993162535
0.687364509415545
0.709231954450705
0.697785408030082
0.702013412026246
0.696025056821291
0.700891203363996
0.700072798159295
0.697663842460291
0.689177260541145
0.699103735801347
0.694765521615427
0.685917113288258
0.685499968782032
0.695414846899748
0.694709484735466
0.695439683723174
0.694677609922518
0.687485916293217
0.68828906422524
0.69535988872538
0.705362575189547
0.684783404760259
0.697561052587306
0.701470596140055
0.691117065365265
0.689780660917993
0.698809615321649
0.69853500896869
0.692011779525756
0.692186175838936
0.694580060151491
0.698330547708605
0.686697486511889
0.691404649222974
0.691719770678551
0.686486938924136
0.67984999263103
0.671805633518303
0.673105054174964
0.667265499543247
0.662522867336283
0.658601746921108
0.659653154786162
0.656794077783301
0.643237422508923
0.641023264515085
0.639192769891175
0.630727375242683
0.626155750992463
0.627157410528369
0.62019212251121
0.609399737150323
0.615489864641696
0.611411094330415
0.601965158716828
0.607776207672355
0.60930841651819
0.609120917669517
0.606787528777096
0.604602037824635
0.60347753229445
0.601813427778398
0.600013878164652
0.600253290920943
0.601048559543072
0.604559329750736
0.607598632402137
0.609392793741795
0.612419432351947
0.608065278976666
0.61136040171654
0.61147512946192
0.614288482519785
0.616635746096857
0.624229370127885
0.624315587383002
0.621829739635638
0.627494735885289
0.625971027031693
0.631157579063639
0.637259522286065
0.635808402093486
0.636262898433349
0.640912488650341
0.640162023193673
0.638703740390877
0.638145301545358
0.636092994165213
0.638235685941719
0.639462464236114
0.636801649438073
0.643820409719407
0.636391838503439
0.628014146756324
0.631607359726296
0.631770127571158
0.626364153381863
0.625615077652567
0.622371034901293
0.629978784197282
0.629579711105162
0.621467264868609
0.619468493960898
0.620212155670693
0.611935375284383
0.609109789261409
0.606312587703378
0.608351896520257
0.610754574455972
0.606973063504954
0.599808959316167
0.600940328476946
0.602306846062146
0.593730747527636
0.592572460778141
0.59335859333499
0.594107557597617
0.593844503490702
0.58882387782998
0.587237351776375
0.583543774361748
0.586772815000349
0.581667910947708
0.579197972164404
0.573186182132462
0.57449822029975
0.57155603822956
0.568619569209257
0.563405042968
0.557595764731737
0.554717274316644
0.552402124819488
0.549887326365275
0.545267601274027
0.538076953563954
0.531789545509614
0.528911683437331
0.526325921076174
0.524619712768706
0.517132224079811
0.513073040772168
0.514096445938673
0.51490350936618
0.509993813991625
0.512846574617682
0.514337756773821
0.509573700686895
0.507613455838705
0.499871151007895
0.498029901929601
0.49940474083275
0.497494374048142
0.490568111856248
0.482842038431434
0.478863920082349
0.47545244423891
0.468623457149088
0.46166900850224
0.453910355722601
0.451319733422604
0.450508284864124
0.445909205471595
0.446338863582841
0.445173410147534
0.446692804053483
0.453011233522748
0.459446899061118
0.467047090637964
0.47981925367643
0.495639684554187
0.507003029234655
0.518916257675432
0.536971525797882
0.557682029396584
0.575994604090974
0.595057743046518
0.612240399486968
0.63286383872462
0.652882257231962
0.669711195593089
0.691663283483249
0.719271168502698
0.733365308604395
0.751004470025443
0.780434038712528
0.801847905301725
0.811316464133102
0.833092703814216
0.847884371511184
0.863161055697855
0.880200885060807
0.895670687131837
0.90454308268136
0.914634566661764
0.929585505451681
0.929351916746939
0.93861116996604
0.959615588901306
0.967013747852269
0.97074407239389
0.975565565777132
0.969705094355368
0.970481496747461
0.973115295776519
0.976226508947479
0.967320572107549
0.972788188885351
0.987183817028801
0.973909963966745
0.978614179266485
0.975694290736493
0.965756801400202
0.986303255894403
0.982346100673885
0.987186963356415
1.00034911195257
0.999638908000555
1.00662323189406
1.00921347129042
1.02609425909668
1.03510705680539
1.04141918303092
1.07392305532546
1.06506833994006
1.07205609381342
1.08568815004739
1.08365227040326
1.10626571440625
1.12859268775218
1.16124457597925
1.17720860814976
1.18424562231991
1.20730901402604
1.21280926532244
1.20876462988114
1.22203801376486
1.23595525039708
1.24678299839641
1.23511565580296
1.23631454690199
1.24695336687289
1.2510485135995
1.23789231616431
1.22473121992135
1.22074637165975
1.2132817133656
1.2125142150536
1.21023844375256
1.196494749652
1.20120783599908
1.2362105374929
1.23313139811227
1.25407572137604
1.27194499855834
1.2952208382833
1.32634261274779
1.29685065370661
1.32554334665879
1.3591769479023
1.38473821629608
1.39591113790637
1.41329942772278
1.45328565785263
1.47493473345696
1.48347209133738
1.48095722875883
1.50662294142023
1.54279348847144
1.51658218896911
1.56237811079561
1.5901748147347
1.60852424364818
1.68167695121193
1.74289190483181
1.69455765988915
1.68754839571533
1.76732978818721
1.76911128326506
1.807009874909
1.88087603612853
1.87057254416559
1.88403683008027
1.88205407780228
1.90172319943906
1.96043021878022
1.98008630580518
2.07109855987153
2.06654680216848
1.96141531647806
2.05012386879401
2.01402072844678
1.93874811514967
1.96428899258641
1.98487411476906
1.92919123321448
2.06963867595674
2.08215865667069
1.96595951804952
1.96179530771485
2.00472693955355
2.01351789393757
2.12279114178503
1.91914906123569
1.97063654520957
2.01296400806102
2.06755933245358
2.14118581970074
2.03146489126393
2.01639774404364
2.1597995639
2.40314095688052
2.11369697191682
2.15457458773446
2.31110337466375
2.25613302912633
2.22261306202614
2.45022967759327
2.39050953369747
2.09705254313573
2.22904060951986
2.31744554777328
2.15167427195236
2.07752733932976
2.54844308932261
2.52277663902906
2.21171450056837
2.20915170285322
2.74419909538249
2.28726389004241
2.27038695004713
2.33018291955481
2.29628712990928
2.70838557595855
2.64419432544821
2.18404308504863
2.21446503227577
2.10647445697785
2.37114096193409
2.56426804994972
2.35549078351282
2.14589384753835
2.2062084829298
5
2.67680402839833
2.45049098063947
5
2.13749364186689
2.0838705834794
2.32043666446233
2.444387298788
2.19752700904121
2.00907835649765
2.17258001662431
2.10051324909453
1.8839943394744
1.94481471311256
1.88850028444916
1.76541737056226
1.75616302226489
1.7557511859305
1.65358773559015
1.81877346429177
1.74927143658469
1.6767112253641
1.67247888038962
1.58573211154173
1.57154845634544
1.63435523712675
1.59607433923475
1.60167437871029
1.53655030294985
1.56493890393497
1.57192561702324
1.5141607267895
1.50877181839095
1.51286319034775
1.45567444714268
1.49311065396949
1.43101873772757
1.3681953518665
1.32167222344555
1.3296007433933
1.28743306071984
1.21795378523066
1.18643847017382
1.1332142125982
1.09301760919369
1.05922101200315
1.02489938396543
0.985072882927584
0.934587798813235
0.901034584724502
0.870718382566885
0.827409447886283
0.810736283524135
0.780042573180737
0.749064242709243
0.732704808477826
0.708459765352763
0.689879480852082
0.671334455953967
0.658290385111833
0.647283301054985
0.632068452037839
0.625082487290232
0.612574444037776
0.612256948401971
0.610469394526211
0.599923428583864
0.598626981931005
0.59837153646198
0.600639906082008
0.604998331150963
0.600984302119372
0.602265207147468
0.613608437404015
0.610487987286841
0.605881909943851
0.606952500468989
0.612881951968815
0.610033150007811
0.604304882976057
0.604207892842257
0.600956460889105
0.601916341285985
0.589684083813573
0.585733489526928
0.584244206334839
0.579092313100975
0.575027109967027
0.569849920636769
0.566661407722379
0.568158116546624
0.562421423823084
0.562072262389811
0.56862568825334
0.566733230018927
0.578588521500008
0.578115476923111
0.577550161157455
0.590782468502396
0.58953087926072
0.588187190365333
0.590538550516815
0.598976246573516
0.592723329692445
0.593236573935514
0.603763328756019
0.60408086503552
0.601011369089957
0.604340758506718
0.61314390737061
0.61317453492264
0.615849148217269
0.621724650532728
0.625445028352081
0.603720186818382
0.606792451545301
0.618912957264826
0.628987609118813
0.617224336017296
0.622189986873718
0.641271122195445
0.639947891866385
0.643330955697721
0.652043094857867
0.659540874509635
0.683450642745856
0.709507066110067
0.719480362991832
0.719737210736824
0.750499493460553
0.765596321368245
0.786249170059945
0.779062461101438
0.808663115190738
0.795802598908314
0.806095563670001
0.806994791475665
0.804942907668581
0.797433921316084
0.788961560521707
0.790327955659468
0.759259425972613
0.752201919608657
0.74888079913029
0.736072485606531
0.742480931401323
0.740837380449632
0.745450381413462
0.737212674324643
0.733065443680254
0.744350855186805
0.758689218159317
0.722843340245478
0.741394660328896
0.770235196909428
0.74369276110328
0.743590306320703
0.741672598458998
0.725388365916081
0.713603991759877
0.694708943502875
0.696220348267731
0.703913550151963
0.706758665967725
0.692514093322813
0.697318381913229
0.677646520376673
0.67196911684484
0.658720535150504
0.676932940800662
0.67126022921523
0.663892689396644
0.669022858954266
0.665951841792424
0.659067384623805
0.678970897410526
0.665090619101238
0.634317690549555
0.639682912295311
0.649757285009797
0.652284492961986
0.630987543979767
0.653080735587509
0.633402125795428
0.641440522976428
0.650113898303618
0.637578927427527
0.629030897243942
0.638197708673386
0.640340133452978
0.623655919143672
0.611210895256811
0.613176317256894
0.615982116109611
0.609813958137888
0.615201694948824
0.632972282068229
0.635136042944893
0.601917596751284
0.598244717325953
0.584808144249307
0.616085543872156
0.608014594900036
0.599162666841538
0.61457315485095
0.604207035145917
0.609781366730373
0.624735123963284
0.627603987324406
0.619304548572817
0.608149893532419
0.614139689043624
0.619042445414415
0.606287535802573
0.628608198660064
0.632487708302591
0.605245688507269
0.632398492065727
0.629194043462527
0.638399027477745
0.637967062925474
0.640715479214743
0.655763389257233
0.678253005439881
0.655005465237531
0.653521773819458
0.666365581227929
0.692519976136597
0.688113333428263
0.695328328793755
0.705296694999282
0.71850123032939
0.734233229206977
0.751688116821439
0.708597638091333
0.736304244602226
0.751121649518148
0.800458079788243
0.817936719842621
0.791972551913419
0.789325803910549
0.842092733867119
0.822808838173341
0.865913828282392
0.867484462304675
0.955779218868761
1.0053410915129
0.991041357660523
0.961628742896267
0.948422834886209
0.976040843099113
0.994133480959204
0.965701529921209
1.00331489131149
1.02875453898553
1.05467400000521
1.00033873909754
1.09167704105182
1.0304419868174
1.03433541138091
0.946758937612467
1.06016024548658
0.978340136448068
1.00309618618678
0.974780663475221
1.06581992276309
0.99613770193129
1.00250535454521
0.986296272704172
1.04240910544563
1.01293439859636
0.932068596844476
0.939540058233967
1.01047866836363
0.931974321669946
0.990136868717543
0.896328239045799
0.927666038683932
0.895078116184824
0.959384593426431
0.889589732311127
0.950840041485728
0.884397644525208
0.939860316330189
0.883601588381592
0.970984299511947
0.952196311773192
1.01999759138613
0.909137338087493
0.893384590062811
0.943117334079163
1.05983090023256
0.855222430187574
0.877665753864331
1.02480131240901
0.905364999338593
0.897823143670238
0.896156914403365
0.86907054990998
0.985126892600718
0.846930609666149
0.975783052497565
0.932606390605611
1.04649003580302
0.946519486457683
1.03906597756346
0.818831209931991
0.994078745327334
0.992421854985206
0.956421732462754
0.983942009539048
1.07263175888494
0.916002003896799
1.05876960223638
0.970347470134563
1.16955966055792
1.01991287129427
0.917052532051434
0.89611941586373
1.10689837720004
1.20957539249914
1.04243973982184
1.02658249471323
0.937220578952111
0.977271800193036
1.17568527011555
1.05666450424459
1.09252699473632
0.968958351636512
1.20386451652586
1.32938853772299
1.38636025916939
1.22591400531962
1.42919250139216
1.44846468723591
1.96978811465447
1.03918873160684
2.31860131742279
1.29250809216652
1.33392833618197
1.24986436185673
1.3977391255931
1.11812429105473
1.48782830051898
1.18259761864184
1.577544757641
1.19482446065559
1.25338882253927
1.01214813228693
5
1.23158639795783
1.50842004661346
1.11670917225304
1.35393423163262
0.932896622878755
1.02591014915576
1.03076644392396
5
1.10859498505738
1.13972638199297
1.1202248646778
2.54833767349884
1.13102793434674
1.85302719190964
0.999596317388984
1.26379839728919
1.12371755929962
1.8220461891194
0.963910022747669
1.43104900672833
0.758969630996458
1.14944656705503
1.29733930105478
5
1.68897629108944
5
0.530129176174285
5
1.41260187535272
1.72714617967302
5
5
1.18359388592655
5
1.51576476669793
1.43657082905497
1.89196883402118
5
0.657301844341838
5
1.28882624097892
1.1081923158307
5
0.741639035084006
0.941011994821017
1.33763495023931
