3596
4000.36533379555
650.420452594757
1
2
2
0.0201996658665602
0.0270549863734724
0.0253809149425123
0.0266770119499178
0.0204487306849587
0.0303326782960324
0.0216556154150952
0.0235103339507738
0.02533297538467
0.0302131367729984
0.0226468200275824
0.0356948412508774
0.0241889229250155
0.0237584851316656
0.0199067602415385
0.0236933471608742
0.0144427035410709
0.0215970643395704
0.0223254612764424
0.0274125901573438
0.0250095880118489
0.0214963589959677
0.0246585510532817
0.0313141160983464
0.0250668364967197
0.0283810259532256
0.0170971200054535
0.0298633865405633
0.0219705189959814
0.0239094728405365
0.0225385079534753
0.02549791453545
0.0210902777962001
0.0280768486721171
0.0195925444043676
0.0346279375123469
0.023640328875712
0.0250054219259664
0.0188179924658475
0.0302728207328555
0.0208227363023351
0.0228022659626821
0.0241778410604924
0.0237944046010536
0.0250508219265418
0.0278209332774673
0.0230870797371403
0.0260331738282018
0.0192569248649144
0.027137399446777
0.0232621593010499
0.0254142755847882
0.0217974039026819
0.032587040334697
0.025810236298377
0.0293553417934629
0.0252771904841043
0.0312332308736538
0.0270295850274464
0.027018562815704
0.0266585182277445
0.0283862794192747
0.0175775649337595
0.0245821024225266
0.00837545603160802
0.022104730095178
0.0119594310762828
0.0247989473605805
0.0190322826652802
0.0237113618182472
0.00903382948976873
0.0255566639713712
0.0185821393049436
0.0207068112834591
0.0247096782203783
0.0273185710302414
0.0126758106248328
0.0297115347241927
0.0184047537591451
0.0246016952544909
0.0251517036768411
0.0271112655556417
0.0209568467226179
0.0257586814727187
0.0230586490655407
0.0232235697335594
0.0107113761850084
0.0245393337067652
0.0152633245414962
0.025849479432018
0.0153684812857304
0.0250682499088825
0.0211503385014325
0.0251118013865882
0.0133368934953715
0.0302867173880942
0.0161556688679954
0.0275777335255729
0.0181461779678605
0.0339145442208411
0.0136157130518441
0.0309597156026813
0.0219469329745614
0.0109336312389661
0.034446488846238
0.0226568629533393
0.0210041524129827
0.0376615645319035
0.0262134003905544
0.0222280969773086
0.0150495836201394
0.0240205791606751
0.0112385816295335
0.0280906258257853
0.0183001686077639
0.0361217760601626
0.0191269591780438
0.0266893517938506
0.018087128328693
0.0261009660562512
0.000726606344994661
0.0362527019232428
0.0243530114393774
0.0187061331984287
0.0169714352609283
0.0167867531316404
-0.00114584214974363
0.0333749632443344
0.0214679858578124
0.00782769819395254
0.0141294335554059
0.023192599644909
0.0156925659731604
0.0260789965911372
0.0350014301530014
0.0168969446399153
0.0147052014497881
0.0233896558561262
0.026495689642145
0.0245904036053645
0.0147328444129044
0.0276024902061776
0.0123467559664296
0.0199575306205285
0.0123250887388781
0.0171972434339976
0.0128635610928115
0.0179616508826053
0.0111673668979079
0.023652235095217
0.0224475579540653
0.0132045863691967
0.0227261738318382
0.0292607377011117
-0.00370606511209568
0.0374386068784782
0.0152427320046683
0.0210060570160189
0.0227039834764369
0.0109836469126261
0.0230648812463003
0.0212598800867225
0.0238943961773484
0.0103651768187524
0.0158861263114506
0.0142270671389982
0.01220006543263
0.0225549068231968
0.012516556103061
0.0218582589287301
0.0296534608570728
0.0228718932263107
0.00419065999700264
0.0438849111260022
0.0151289363217221
0.0227412655206224
0.025641458978927
0.0209264875239656
0.0121266405425111
0.0268450924431675
0.0224609665263803
0.0196726751477184
0.0153885927408072
0.02191492348735
0.0180661222167337
0.0206910667216671
0.0167752243246819
0.017911992188898
0.0159160572663388
0.0162833671231098
0.0198709522590883
0.0322541290925276
0.01983444199163
0.023070464001428
0.0294536880917678
0.00981292272150029
0.0204536077296637
0.0198486927095374
0.0207422930638483
0.0162938236814684
0.0138575469763274
0.019579470602367
0.0165288949097985
0.0200177539692193
0.00774636608150627
0.00782957775831033
0.0332389654217928
0.0172709267255899
0.0175696108414188
0.0208510322366994
0.0206748155289163
0.0101505335545926
0.0404312582741368
0.0203431826588625
0.017233139714477
0.021283499028363
0.0123252343050424
0.0292354385811557
0.020937199381324
0.0202364845231138
0.0222755667330651
0.0207151215560863
0.0179372804148539
0.0187197529033227
0.0159078563771764
0.0247895569318709
0.0176458363028113
0.0160705957214652
0.0156218285930709
0.024895851157494
0.0215279982725165
0.0198684561194718
0.019144551267066
0.0247924514314763
0.0158763945929762
0.0247348016185117
0.0220720297915752
0.0247032564351876
0.0185239482526384
0.0189500312370364
0.017798869833896
0.0166962473028024
0.0196750794987631
0.022168911773801
0.0167318296259739
0.0187376844558046
0.0284097650299933
0.0206557203980721
0.0217811585998826
0.0126486524012941
0.0308834804834412
0.0250817279423434
0.0189175193650188
0.0188526541146486
0.0189904363753684
0.0144375338158129
0.0100385325571622
0.0175185247870645
0.017057984682622
0.0183819551546253
0.0164064502457988
0.02499305453876
0.0197590152464776
0.0121858848076604
0.0119163711439958
0.0361853509635784
0.00785858092082083
0.0281043793521431
0.0313161661992407
0.0152354819118227
0.0251077427775167
0.0158393644032812
0.00445023222544593
0.057038814900733
0.0195644436629546
0.0222450551390426
0.0138486713138738
0.0310843896796568
0.013012589792887
0.0260476657305981
0.016263271437238
0.0250460788321221
0.0216934273110494
0.0302957825743658
0.0340598664779666
0.0102876801191602
0.0281336483062448
0.0158648518251367
0.0199645308047397
0.0249612203089742
0.0233212590011533
0.0202875162206747
0.0220108930956988
0.0208295932848884
0.0259350027420562
0.021662509362933
0.0164026256607206
0.0310785729579205
0.0220870904809503
0.0247555170117719
0.0214383060072686
0.0268667064450924
0.0164079266529333
0.0284237817664415
0.0223873993784559
0.0302190200801689
0.00693490380977378
0.0136997931333231
0.0333565384680276
0.0256282579165596
0.0269427959677003
0.0344217119438432
0.0247899718800311
0.0267774688331945
0.0223751258825329
0.0266884564642963
0.019207962628607
0.0245580069729566
0.018338374280639
0.0350991619374772
0.0186005061252352
0.0275389414584832
0.0223943029011697
0.0243690163998592
0.0285181383935876
0.0292772874912508
0.0235753594733859
0.0338788444630951
0.0273106333568142
0.0293490219719672
0.0261902132146457
0.0404701540343956
0.0157066431765405
0.041459647311854
0.0272262502994003
0.0276758901002258
0.0264990186737213
0.0253402326373511
0.031925592844213
0.0323737820978946
0.0231062999357844
0.0325885191594999
0.033072141652678
0.0407643415426006
0.0317816182585928
0.0247279709048653
0.0300995070422276
0.0457696980477432
0.0411795079968411
0.0378514669214841
0.0421953232836463
0.0303735181915763
0.0399554807994075
0.0294970150121605
0.0390137705583081
0.0468239574236891
0.0352488850716655
0.0471092911801298
0.0372059115559961
0.0524705959142153
0.0365011357906673
0.0468079911976644
0.0375779346511863
0.0460933418698382
0.0428268821517408
0.0578666417022825
0.0458324570496091
0.055249231929724
0.0627911662137642
0.0518384852035494
0.0502718970318018
0.0560022497200203
0.0370349778871343
0.0607866452543424
0.0488280207704505
0.083086436037976
0.0598036620938746
0.0576892466375235
0.0641682103682266
0.0654263537713097
0.0698798660385252
0.0578993844409858
0.0645718154446409
0.074485865778076
0.0680750866519464
0.0704511720274403
0.0763181694631915
0.0768725803757608
0.0798139340671431
0.0797717129197597
0.0822332256044157
0.0853158312973658
0.0943302946359216
0.0866095306659668
0.0896790639390318
0.0894282324704201
0.096898252153606
0.100773630887497
0.0968778733713872
0.0937283945349104
0.101952285231835
0.0914948555087678
0.0954594286821452
0.108120865105702
0.102518308748739
0.114649580638712
0.106207370396249
0.121726313523698
0.106430111700487
0.11360930910822
0.110121596345233
0.112632802427142
0.117507608135581
0.117355667844249
0.124648632196372
0.132554236035124
0.128883058062875
0.133902085348505
0.139726899389138
0.138694885466907
0.124724327961181
0.136365590529898
0.131949046056347
0.1417226323634
0.139213916754662
0.156141194001647
0.139420657595542
0.153425601924188
0.153179838914337
0.160983801970272
0.165722733545281
0.177201931463332
0.160819116680066
0.176513781713305
0.180018692436437
0.173880574255955
0.175958115344892
0.182467564023682
0.177067067939833
0.174424577189463
0.179829230679192
0.18328113232886
0.191425874705725
0.194864677527704
0.178637993801258
0.209530261278222
0.198119416187864
0.201236703501694
0.196760273456095
0.214828022366368
0.215349557031936
0.216089584622247
0.201636029693038
0.224364696878887
0.226476880489179
0.233636052462951
0.231082558774594
0.239113761443039
0.228513412866714
0.232847545746867
0.234673137676899
0.247208990578482
0.260194764916956
0.265240128615709
0.263493960034707
0.277126317228431
0.252580669874205
0.270561814708991
0.252782847555666
0.273555109818738
0.269531824383259
0.280824800006379
0.270358735562241
0.296448969329621
0.285684734376793
0.295408337604966
0.285771966602388
0.297420038150564
0.279206909943946
0.306289811353414
0.315570370615842
0.310589684186739
0.296931296346668
0.309767290922237
0.304261070541045
0.333617517702098
0.322982427051898
0.341575967042214
0.320121217054161
0.352980806256138
0.348885828816929
0.355367427801168
0.362398848788545
0.370557171324468
0.360272234796348
0.371023564377557
0.357404856919614
0.371120446753453
0.366466693327713
0.381483625738966
0.371350057737355
0.383175979156842
0.377904515209515
0.401430848352628
0.401581646939438
0.39068808419758
0.393767316437275
0.429451109874112
0.396381432504629
0.416180290259383
0.420810006911402
0.439295119414745
0.413966549049396
0.442900637852738
0.430192708807976
0.438027050268803
0.440918383937129
0.453525212338434
0.445973087634802
0.45600712437607
0.437089423566869
0.477294358276256
0.475669423009247
0.491214201046003
0.476270570416581
0.478341217307541
0.495507005683271
0.487793510726898
0.484638004416179
0.514278120798426
0.492092389324228
0.506187639668621
0.488941761382747
0.49991515696552
0.503961320463705
0.539596754035818
0.530746732674685
0.521948942597074
0.499372355845775
0.537392562440851
0.542042865597822
0.552975972756467
0.539240258604602
0.556089903546201
0.54533952007764
0.596064567848686
0.564586568970771
0.586091281386809
0.57191590198731
0.571964988435891
0.567713174119112
0.618001972818714
0.597457897605879
0.610059772602785
0.590449597260914
0.615366943417271
0.592382782901672
0.612037550878902
0.611246887442781
0.635382173719293
0.613365573558986
0.659442218648749
0.633628424354789
0.640251845429194
0.618060097944008
0.6358974999589
0.62708039718248
0.643489178687363
0.617836866276487
0.661473897918475
0.649161684993154
0.664747104023247
0.68311492364972
0.698757481312147
0.65270539917034
0.688694624590592
0.681190424941841
0.704575887561358
0.696237570874287
0.703985387865937
0.67553667868927
0.719875138897275
0.726290332206414
0.727263583445457
0.705452432889592
0.750481198623132
0.709784338252893
0.734160797230552
0.709988156030369
0.723047050734573
0.707082051303287
0.746024817995907
0.735241470033734
0.757633102881847
0.742599813024741
0.758882626531252
0.756915125319443
0.756188724921845
0.748501079694832
0.803939069798759
0.798410148685903
0.795819577168491
0.74981082166153
0.814143726701629
0.797211510091396
0.789030206167186
0.766736826764007
0.80186977650934
0.801007110601833
0.82091088495739
0.790900051147388
0.829946506763541
0.824260578405199
0.833774367652001
0.781409713663664
0.86617875436973
0.828256013596533
0.843035945596259
0.857102808185072
0.813035965399974
0.814317370106856
0.85526372918194
0.863983326902851
0.897549705380993
0.863837475212447
0.828204061783058
0.802797184869216
0.849267773759006
0.832734127017373
0.896112688796439
0.869205415646444
0.883547853105413
0.86201712292539
0.863897894289937
0.862370681088668
0.919410538815789
0.93054234020116
0.899477063728365
0.874706907606768
0.859195998598099
0.827452492060713
0.908987384265387
0.89063287290107
0.946929356438321
0.897308422120391
0.928029105927247
0.922699302210722
0.915928070832126
0.908109771058184
0.969708104837991
0.930101617340459
0.939172357578864
0.915945336754344
0.945890435427757
0.927023199087835
0.98070316042957
0.952135793644415
0.955521380030604
0.945924503437823
0.947894413625587
0.937937717200965
1.01363849296112
0.924476469621082
0.939155705274898
0.941463037896012
1.00098152201608
1.0175630308072
0.95761206060335
0.927012693231676
0.975857377457593
0.953387881412514
1.03474186117761
0.970295773019828
0.969757523712266
1.00271913349198
0.986073997219731
0.963591114591332
1.02235046126199
1.02263702758686
1.05044056385822
0.971455640685491
1.00560190518655
0.993597621229663
1.01887052662073
0.999975110080867
1.05236549020735
1.01612427197408
1.0608390816879
0.971607381859549
0.970792083287657
1.00333424896666
0.99363164325869
0.979643517566054
1.04414837747155
1.03008483897777
1.0316231698953
1.00395625776486
1.0497569909344
0.996964888057363
1.03232457983828
1.02557930568194
0.998085817013207
1.02829332516043
1.05815455503022
1.0240827435145
1.06153139840444
1.06244194714187
1.0046398811145
0.957425086930052
1.05720443590727
1.0265209858767
1.03635590356936
0.996522067337683
1.01621972196615
1.04218091838376
1.01105285468458
1.02512481205593
1.09757187696508
1.01346285605092
1.01352575920534
1.01292748360888
1.05245878803593
1.02604396968847
1.04772498280291
1.05001636391373
1.06173273446031
1.01604991907079
1.06479394328131
0.997892682319696
1.03010730463686
1.03614773192947
1.03309295528355
1.05049037703732
1.06657254173878
1.05025092396915
1.11060168316549
1.0452578012782
1.04425678861859
1.05278513400474
1.00229686061084
0.989099385837926
1.04773318270217
1.08885543249639
1.04721569885063
0.998876283522958
1.07950621088735
1.02019719165302
1.08788886831693
1.01749539111741
1.0621095238745
1.06455258702083
1.0981935005533
1.0542313388601
1.05660102603977
1.07204715619913
1.02560179231295
0.995624861084676
1.06240481626604
1.01544622971942
1.04825465848883
1.05094320035272
1.02593716338216
1.03762750899507
1.07282286986553
1.00485386926421
1.02867173796332
1.04464025053803
1.05730763421312
1.05886918932446
1.07661047304974
1.01438731777498
1.04267839920508
1.04675343991432
1.05736674353189
1.03093115897719
1.0069213735986
1.03030137719478
1.00536371280264
0.992419283726967
1.05516443554525
1.01633301029212
1.06767837682398
1.0238499476921
0.997145154207835
1.00921310425046
0.987645579783688
0.988545004761595
1.05053419724478
0.986775792724765
1.00928569451034
1.04153254697458
1.00626572894814
0.979741853459126
1.04550483782155
0.993756558092702
1.0094730518572
1.01940045435872
1.00175541143619
0.994354190106515
1.0530595009902
0.974911204539139
0.961922162551214
0.971851530295638
1.00259677644355
1.00372456609144
1.00673512418047
0.967277250353965
0.961333524981524
0.947097587326752
0.95955489813444
0.94275266413723
0.958599656591156
0.9768146437241
1.01225597401732
0.978063161589701
0.962818413852195
0.933024063279413
0.941347347822011
0.9640593999627
0.950785511055837
0.946345784056662
0.962448309205676
0.924391897474165
0.98684892298538
0.959899347964894
0.947728514853361
0.940305150717754
0.990585497348286
0.978384200484319
0.960909747783375
0.920294394027909
0.927307849303199
0.890080350259961
0.931396959922558
0.925903883329198
0.919126765957227
0.9168663719698
0.921618777143453
0.868928009375653
0.920470618510855
0.916438426768746
0.92112372203739
0.889737984962533
0.903378205939705
0.903403399398204
0.891358027373796
0.903068826895773
0.887232561410031
0.880472736221929
0.908423017254224
0.879342485668172
0.877248554714295
0.86146962362635
0.865298348900714
0.864419554979686
0.878367916004214
0.865044459466751
0.874727238408882
0.868120496789984
0.835556952044399
0.802725431109242
0.836485020472728
0.812889410333673
0.837190295969398
0.828338643416435
0.827842411896479
0.829722264586226
0.846510437812064
0.814340016775827
0.834129719146617
0.834007490250249
0.823754306778018
0.796911235062151
0.82550491479954
0.797707469738427
0.811907132259419
0.819203476190935
0.792032898653645
0.792455191897286
0.789131800406344
0.763666791491269
0.799862408571524
0.788099712738092
0.777507634155134
0.763330958607202
0.770078267388696
0.742321047738748
0.742423026775436
0.763159001677433
0.775509106617806
0.735794470771069
0.757071706691899
0.719859276586155
0.711829295804224
0.742788996747886
0.748897112848094
0.712368392041034
0.727988178951628
0.730270883846827
0.73538793198673
0.713648519252635
0.712581633557061
0.710124724421302
0.719711675857936
0.704856278802543
0.702604689641649
0.690463369983867
0.70789492384897
0.701020843336289
0.68168362388785
0.670740411933643
0.676682134819806
0.668242946557029
0.67235356387246
0.642803156416825
0.655364026994332
0.649598362615311
0.657430067744519
0.63520537881494
0.648265128047581
0.643725294867765
0.650668093659973
0.636416362226999
0.615474338546506
0.620583065897515
0.638129349954336
0.623220443848262
0.622675245238937
0.624742344625221
0.621907825699348
0.613379140172201
0.610487775499036
0.603402701904046
0.598722629147898
0.594234869134363
0.597554313195975
0.587619438911048
0.597159042346012
0.584763107378086
0.586307097372537
0.588812673702744
0.571400110179162
0.558127758133018
0.559585725634722
0.566717027833862
0.577838328374801
0.553210084331269
0.557074203385629
0.553909727352878
0.563418368919201
0.562708594927457
0.562763333402106
0.547046908575372
0.538744380255426
0.541602824401882
0.53382681681706
0.528841394061382
0.539982764008596
0.531539788543228
0.524669782445415
0.518348206981347
0.535271934409708
0.52120645670735
0.517211181419303
0.502967188857711
0.514375781176817
0.512505032162018
0.507980077351344
0.489939420998179
0.506306641388986
0.498546181665638
0.484764596412573
0.485687664805735
0.491580671880036
0.479550013190609
0.485800643716914
0.484376601422429
0.475488574817005
0.475197893241863
0.476503402474945
0.472110248533457
0.473790201533682
0.464454802489185
0.454494032763719
0.448590563597358
0.458088623993068
0.446267352169381
0.452807458130268
0.453737277846236
0.445561531119426
0.43440365656337
0.44394172732603
0.441760559119333
0.431225265488382
0.431387684313301
0.434984717915642
0.430578184702967
0.432864097372948
0.410276010523128
0.413852078618271
0.417503382523117
0.422080791218767
0.417786864297795
0.4083854925778
0.408893294121054
0.41898336420348
0.41182843867032
0.404913212384719
0.398915729224815
0.405651129315121
0.397874857921692
0.397570892753099
0.393133844344063
0.385437912237662
0.380553037120971
0.386108939660079
0.382517103822408
0.382737133202663
0.372739308353417
0.379549173731726
0.373186053794769
0.369682675442864
0.373972728866498
0.372212940571637
0.359561066525127
0.362846393214026
0.359237079899328
0.362875900767671
0.353421461998688
0.35803871727244
0.35723998078258
0.350454351269028
0.343798061653085
0.349663436872551
0.347746055294585
0.342232776376918
0.339624892354986
0.342169170031892
0.339859121581947
0.333920172876489
0.328594681090142
0.327536267104135
0.321144455673954
0.330804109074729
0.329508067007736
0.328465906150137
0.319997132399976
0.326010965808778
0.320948475320841
0.322872246862359
0.317614964753265
0.308586465899902
0.305012292074957
0.314403489863978
0.306362876879582
0.30648615458901
0.311938471827391
0.304319736907035
0.300209472844067
0.30515656531865
0.298447981054102
0.304702071923168
0.299329152851626
0.299398108819052
0.296222054956577
0.297475240468184
0.292605577604347
0.29663518936138
0.289826613269255
0.291753164973536
0.290253174173314
0.29603032297785
0.29321472102156
0.290368864943344
0.29081107832848
0.288605469340735
0.286861688509175
0.292288388461937
0.290025588064139
0.286318082646782
0.279623475585133
0.29209070577558
0.28665709930941
0.288924209165602
0.287293600656412
0.286013443574282
0.285201358891949
0.293387224942415
0.287616432902677
0.289325294672895
0.288776213700922
0.293297168292929
0.292879291061386
0.295860746691115
0.301612917148121
0.299356500612022
0.289195474802121
0.306227373917103
0.309848858412678
0.299001566598355
0.293290295315655
0.307404548305131
0.314639681937144
0.314864661720945
0.307380197881792
0.311387823542838
0.312088742191001
0.316291242439324
0.31250594037302
0.314041168074752
0.322601225366776
0.328458261890665
0.319294691569216
0.328241163810631
0.333330311846484
0.328869815304498
0.331080281546861
0.33866891562457
0.332170866406311
0.336010371214593
0.336579773905419
0.341411918058615
0.343708992639489
0.342726280897818
0.349282154304064
0.352518979527379
0.346716255248932
0.354199140009805
0.356219925620997
0.361354258619878
0.360916674199611
0.367799019283413
0.379073358908319
0.372601670803392
0.368036919894238
0.383597439867251
0.381222893540799
0.391260302592129
0.386954157582032
0.390260607096346
0.396714796105565
0.395650182582733
0.393593874435869
0.398605189928232
0.398909129816731
0.408244334406753
0.410743452573728
0.409006034715695
0.402446501118153
0.405505186798367
0.408026749095579
0.413431405166416
0.408968983993435
0.404232802397985
0.409372051484096
0.425009487671587
0.405058826131141
0.410484433245909
0.415263143041921
0.401352260309206
0.409776098151767
0.414538734714527
0.401118897040677
0.405588498405161
0.404501656649957
0.404493902040256
0.408915614445116
0.414981919410921
0.405297370432815
0.412474165641107
0.409397868357457
0.40457381490371
0.399395596583976
0.402051560501362
0.406865814718684
0.408227862765634
0.403587867465431
0.409644673352797
0.40401472208231
0.396006977072647
0.405703992918651
0.410146084807557
0.404552880029587
0.411485447159646
0.407207597689089
0.406945967923606
0.403824961699795
0.404316250176956
0.41101227655501
0.415134818983231
0.402981798376933
0.405603723059471
0.410442891945271
0.409030541759894
0.408525893290597
0.404540590101064
0.399030667373868
0.403078621524292
0.402466574954765
0.406467375492845
0.395985033648844
0.403370778314661
0.39686498030292
0.397053720122809
0.407801246407152
0.403244504669632
0.395438851368115
0.396188769589291
0.396944138343357
0.393000414126017
0.386344292822414
0.384326270513733
0.378894689883575
0.382467619234621
0.380172691292531
0.375392245594863
0.369232646192156
0.368373924914715
0.363873328704911
0.366717185704222
0.368367156485549
0.362079103293236
0.361225602271872
0.359582206610715
0.348864692171885
0.351522589501237
0.345900621157343
0.348778224333233
0.337450483121122
0.332356944381451
0.341105778861607
0.334060908972866
0.323866329801837
0.322209942824308
0.315193494969368
0.316721011352086
0.311571977260991
0.313919571053502
0.31218659830695
0.310709721100496
0.301950589748434
0.305917084430216
0.303011279822595
0.299608576881104
0.293571665264801
0.294000035278265
0.289814044871466
0.28998809881831
0.288612757104216
0.287341738166847
0.283672116627449
0.280805221552188
0.279098826389706
0.279389799713217
0.276333514115114
0.275348302291179
0.273070300878434
0.27718595655481
0.274920139406337
0.268014780191923
0.262356346020895
0.266851845698961
0.266027376195453
0.262938210288557
0.262427187125713
0.258027296564643
0.25573261357099
0.256982861002694
0.249908442412218
0.253887487236137
0.249877984784991
0.252618956997694
0.250604101486104
0.249505410449108
0.245237992780492
0.244624141422468
0.245658888325919
0.243896857950464
0.241468842511618
0.244068677933384
0.238731747499958
0.232885367584801
0.233111233365775
0.237695246447437
0.236313054385753
0.236671375233922
0.231210910041839
0.23635609030256
0.232980942914468
0.232579675832303
0.225608531849807
0.218404469367139
0.220524720867462
0.227392019533277
0.224376199267098
0.224286348698133
0.218422728596076
0.221498590197724
0.222069134606451
0.219780870210158
0.218990900546639
0.222755537440521
0.217607291974604
0.215489635623128
0.213353460704055
0.218316279050008
0.21023309321708
0.209737362730997
0.214211720893709
0.21914101644107
0.208451950934659
0.208989670259352
0.206415506512419
0.208551939538926
0.210009689814488
0.209897193136324
0.202977558250164
0.208076203733183
0.207806042561565
0.204193392268355
0.201510439405913
0.198925818544069
0.20432646337778
0.204861287516308
0.198530914732534
0.201748489024953
0.204241564509869
0.202275498168941
0.198814064794339
0.200630060609665
0.201763761118389
0.198556835670237
0.197535780150181
0.19673190221713
0.192716118771175
0.194845831068947
0.192033868915558
0.194811982660463
0.190830908944685
0.191066633823782
0.188626710959749
0.194116185009279
0.191644627009102
0.197014602698027
0.190257164858514
0.193447331081316
0.1928480698076
0.187566116147644
0.186811139991406
0.190356366878784
0.187709301394521
0.18824177316121
0.18685126814576
0.188110141767872
0.18615560075501
0.187967197614559
0.182957854238082
0.18462198573726
0.185837265408595
0.181703724315141
0.184061583498633
0.191317916875493
0.188693540880961
0.183925517737701
0.181351534200854
0.183306163042305
0.181399971973338
0.18345943297251
0.180666893157025
0.184968890440701
0.184132076191814
0.185029812122163
0.180411183684098
0.180197472476459
0.183145169564068
0.17876102734941
0.175906739923956
0.176931373812787
0.178373557617643
0.181438199855063
0.175278742630119
0.174679059210157
0.175449105978399
0.174991623544945
0.172470333380392
0.17414230240868
0.175043293701745
0.17585553787522
0.171523144242253
0.174095501555284
0.171503579559435
0.173028834336334
0.169884903272676
0.170893388324655
0.167929052253227
0.168694856612707
0.170720181303118
0.172356682566435
0.168052265678597
0.170010544217178
0.168750603547559
0.169530029065242
0.1711311003703
0.163697427625212
0.163443504458433
0.168435388054095
0.163434150046108
0.165575256593575
0.158759841822896
0.163686987973604
0.160447516075497
0.158841562167494
0.160790708733012
0.162032548701126
0.162767022079105
0.16232807863792
0.158274404054579
0.157944726662497
0.158270102409608
0.159461070424508
0.154403216456171
0.156438990884958
0.151648047055555
0.155730154293789
0.156414597306091
0.152913721965707
0.154068679844356
0.152186999905512
0.151616856745707
0.152341684292088
0.151600619947993
0.152966070985583
0.147177934416106
0.149924139540292
0.150005838822774
0.148538808838827
0.14799642268604
0.145279616463646
0.143078840913391
0.145153072546509
0.144524792737318
0.142855419278259
0.141116808509181
0.140704460615741
0.137737174979515
0.137795025151733
0.142060439818488
0.13970266400553
0.135444826552439
0.140428539831425
0.134783933756561
0.136510122027189
0.13594059781375
0.132274426524798
0.133461189736755
0.133978070481393
0.131552146489291
0.133259443211831
0.130291129928846
0.132685454010814
0.127848455853434
0.131585022540396
0.128578394823491
0.127590814377137
0.12638832243048
0.124570227210828
0.12539551879821
0.127421237009775
0.124641863319627
0.124696395410974
0.127899629039213
0.124051708997053
0.120864122150258
0.125515817962653
0.120575023081926
0.120209994046678
0.120390778028243
0.126973470306403
0.122632735919545
0.11848582420122
0.122512162265812
0.122369093849929
0.117216850866081
0.118634664633661
0.114248963740268
0.116950889415996
0.115834093878611
0.117831291975423
0.114807711201241
0.116733721279448
0.113351891768411
0.115043751425648
0.116520161245701
0.111852706839227
0.108072725995449
0.112648809934712
0.107741548700814
0.112607793355337
0.109757432600973
0.109522771119765
0.107909190085816
0.110326890065752
0.107868355472982
0.110010591436266
0.106756075011977
0.106555781322137
0.105412306858394
0.106924647574534
0.105610229183598
0.106238487331589
0.105999465726733
0.103521261280345
0.105093998785286
0.107999112357987
0.101096874657904
0.103213407936576
0.101780504107958
0.101827466946871
0.10328086966573
0.102212421896788
0.0996854190101363
0.102644095788586
0.0982541848468023
0.0990012756828512
0.102695444833888
0.10395713486356
0.0989544326897954
0.104520701536574
0.103223297100426
0.100792197474409
0.0995586651212613
0.101822064942727
0.0966352429366332
0.0961986659909788
0.0994003855701409
0.100672175520995
0.0955204741641447
0.0971418667415006
0.0971163060340229
0.0961716138029102
0.0947704777806932
0.0929329559436958
0.0967272371510811
0.0925521412544513
0.0918028118291375
0.0956509290952079
0.0933115739436543
0.0955407303589037
0.0950914861448373
0.094405865631862
0.0927609345972695
0.0959409469297668
0.0959427018393833
0.0959551622575049
0.0926133793186717
0.0926422312211567
0.0946350043747419
0.0908243575759013
0.0889563895591632
0.0951961518212593
0.0922895327853586
0.0920344793257149
0.090314916632273
0.0918163395778508
0.088921122043539
0.08932841748723
0.0902684779131796
0.0898876485643355
0.0880654036981811
0.0906178644816173
0.0872155432591617
0.0880385894652055
0.089491672076005
0.0895768646053817
0.0866974298152439
0.0889465235777108
0.0892605635954403
0.0886611085323148
0.0852227897404215
0.0876400398769781
0.0892609838010218
0.0871867646115844
0.0851295315404339
0.0881770741439399
0.0859607299102441
0.0854660070285469
0.0845722177882902
0.088363047874702
0.0855222622288998
0.0823209232563956
0.0853645895214665
0.087676687892848
0.0820234445061805
0.0840518688401713
0.0831403460549668
0.0821390183748827
0.0835107719647352
0.0865807104099166
0.0851200529657515
0.0819535817324304
0.0831434333687179
0.0829314164748154
0.0830416227548472
0.0796040920819452
0.0800765386381241
0.084254831581733
0.0801321624554888
0.0849150791599663
0.0809000526127482
0.0835817781932483
0.0801349051879238
0.080163933449663
0.0805818023831287
0.0809798485450373
0.0796182097200133
0.0820999619703217
0.0812263700299708
0.0788566068814053
0.0762396201796192
0.0764000204354711
0.0789381928723491
0.077549369981467
0.0740907020624322
0.0766266849383542
0.0789796425383573
0.077037340693495
0.074481486260179
0.0744210086664201
0.0748544416773569
0.0769399298273651
0.0735399365508636
0.0775042775642705
0.0741898856544041
0.0751667301420027
0.0742852409953177
0.0757989464198353
0.0730605133640981
0.0737276187910299
0.0721668294164815
0.07443384217748
0.0744409557103398
0.0739475029649927
0.0722848041904419
0.0715965457998436
0.0679610456032229
0.070749878586545
0.0686482631585413
0.0687620075585939
0.0720035862669734
0.0702790135789901
0.0707030783848626
0.0703988035680038
0.0676912309928909
0.0684119871181912
0.0697697651216481
0.0677899312446449
0.0658099807463744
0.0686674574500522
0.0656254279338775
0.0659456185018493
0.0675687896205198
0.0683273223299586
0.0630718481407901
0.0633427666015429
0.0619975176956475
0.0646975273974775
0.0646056494124155
0.0630399483565715
0.0613183983314227
0.0630459227318455
0.0635557188157789
0.0622792529983097
0.0618793662957482
0.0659251273623797
0.0630343818365627
0.0621284956358463
0.0599470524689457
0.0639471823952994
0.0617055785476064
0.0623909622918565
0.0590550686704177
0.0591809338701142
0.0592227672048893
0.0633299154156685
0.0607028863417058
0.0592678235509695
0.0581388586618127
0.0613680845749394
0.0578495654776685
0.0585487361882697
0.0580044729923295
0.0593682860928655
0.0595088846550473
0.0563846245785037
0.0540448344171344
0.0569484367745947
0.0563467336955698
0.0577565195559796
0.055671209860784
0.0567464634665945
0.0562899209030052
0.0571405526019674
0.0539075350995864
0.0580091231851802
0.0556555209341747
0.0549662648464516
0.0526344551470932
0.0550341276462066
0.0543002818200575
0.05460243499835
0.0529368042136936
0.0532716751472366
0.051313281962117
0.0542380088055067
0.0517590347163681
0.0547668181973357
0.0510285123887717
0.0528764808522112
0.0547869344480909
0.0504769578017926
0.0503364349300478
0.0510316884994025
0.0504354559931019
0.0521087619421875
0.0502572613802501
0.0539846152678906
0.0487950618452457
0.0524773780879478
0.0504037394114348
0.0505320863365755
0.0488961779121758
0.0523120760844832
0.0498739353133184
0.0509287965844409
0.047847865158487
0.049060107066849
0.0496536157671078
0.0513707549433528
0.0516687832690351
0.053630092202208
0.0495845326266986
0.0481390628065161
0.0459537955363151
0.0462264521290819
0.0498053160610671
0.0510599855030993
0.0472741417430666
0.0499963610769758
0.0464748832989317
0.0442546064572772
0.0454463200107671
0.0495443875048401
0.0437712958965044
0.0504346323370319
0.0466969183186191
0.0498227063776206
0.0443354127160597
0.0478890249447684
0.0457967612711049
0.0486176105621264
0.0455969221015574
0.0496770508886458
0.0443821390410308
0.0465545444233116
0.0449983579302755
0.0485495933196195
0.0481970906789708
0.0506179882965947
0.0446482680931865
0.0481991034251762
0.0452189407569351
0.0485641336857817
0.0420500944521321
0.0518560258487178
0.0429736257060228
0.0477240406825807
0.0458262160896349
0.0463654554962373
0.0422985120307756
0.046767507250319
0.0438494293662077
0.0485002347273839
0.0468963382095129
0.0473814970661353
0.0446776028841023
0.0478304255286176
0.0476927770803289
0.0448729617526529
0.0449045161473944
0.0447086331444085
0.0496090607588723
0.044573373548115
0.0459892245487717
0.0410906406259667
0.045501303211123
0.0400397617451856
0.0495757557412767
0.041831082688878
0.0508307377802046
0.0325837319023089
0.0541374110758235
0.0328767280208295
0.0558624509770967
0.0309054122248172
0.0518471261099899
0.0339313203851456
0.0543478360173683
0.0358568957511671
0.0525194394215729
0.0388954701864798
0.0487228389407878
0.0405774991277444
0.0399505812468552
0.0438684143432123
0.0439444823854912
0.0451625852134019
0.0393976586588671
0.044686351906082
0.0419688341915436
0.042607457294375
0.0417408429202561
0.0416683216177471
0.0446324470455044
0.0406081591878876
0.0443380204407198
0.0397061164205374
0.0417437502699965
0.0435402679846946
0.0438762047974676
0.043251280656912
0.0424778921253212
0.0426010164421179
0.0430911803571727
0.0402835887176274
0.0411876073124733
0.0396104544873673
0.040749661689427
0.0429616338136637
0.044225957916863
0.041500062269486
0.040934854411281
0.0415672888214238
0.0415917283299846
0.0405689293445263
0.0404706603853414
0.04185632749279
0.0425877682762705
0.0422881270527537
0.0406035595963969
0.0422576063799728
0.0423690951311768
0.041535316175646
0.0423763672973508
0.0428707493569617
0.0425204034066823
0.041649999661198
0.0401479310870613
0.0442741315898846
0.0446064665007983
0.0399184358570842
0.0411898923040629
0.0416251340826947
0.041190057474543
0.0422407870769262
0.0418662747311692
0.0427459687447404
0.0451387172830386
0.0411187413295588
0.0415755922335291
0.0416458930209672
0.0437970334365166
0.0400229388180954
0.0403288738542785
0.0423150235605999
0.0403578980124786
0.042310571309351
0.0420919665218525
0.0415183608522909
0.0419042807320292
0.0412679423939897
0.0416222342109561
0.0402175432042509
0.0405580551921922
0.042269516844645
0.0436426672823026
0.0438717318829564
0.0416533783767458
0.0419670910504227
0.0415700548790762
0.0423761837874053
0.0420817376371263
0.0455800745041658
0.043649202260576
0.041450248435053
0.042082731395873
0.0414717296424381
0.0430029171577372
0.0450175210839418
0.0407979621495113
0.0422525114174823
0.0449463772580517
0.0449609298085011
0.0421323840979884
0.0422189060463666
0.0445301782636486
0.0438972292754589
0.0420755564916729
0.0428687391539474
0.0414720632547349
0.0414299904728614
0.0428224801174675
0.0439818744071175
0.042746500869289
0.0443118699529745
0.0413101941852702
0.0417862887644674
0.0436787404707562
0.0428796284511495
0.0410190988831249
0.0443976382650667
0.0452871361962844
0.0428479711751207
0.0430153450919801
0.0433863738854744
0.0432611838091222
0.0452302573485829
0.0457162496123442
0.0444445395414111
0.0440666496577573
0.0449147386966978
0.0429103660338847
0.0442728372059766
0.0443075660393471
0.0444338606334337
0.0432115731683533
0.044350277821252
0.0441997972049416
0.0446648958406069
0.0431317776232211
0.0426216155045625
0.0446082102831118
0.044005643811174
0.0454971784777024
0.0449777251453274
0.0422257514696991
0.0439998694687804
0.0425343068277144
0.046910163590232
0.04540902823981
0.0448117218772148
0.0448912835168127
0.0456243983691411
0.0445409605677597
0.0453856391106577
0.0458981575692865
0.0448852278085697
0.0452827064326962
0.0456449830353467
0.0447891993507907
0.0451327405131778
0.045493662040719
0.0461117689327861
0.0459134984653659
0.0456794370529555
0.0460182276048518
0.0479880998351903
0.0469998901571517
0.0462172665206647
0.0452166035172342
0.0455739245722069
0.0460511530074713
0.0454242439775776
0.0475583417752697
0.0463476010723544
0.0455414239361781
0.0463497845520371
0.0461298732894954
0.0447565528013354
0.0450348135633288
0.047284849593229
0.0457744539788663
0.0475112739608252
0.0481025825374752
0.0478210401379645
0.0458104522927873
0.045757147421351
0.0458563259790881
0.0477388687194881
0.0464727565098611
0.0478887927690491
0.0470303061946895
0.0469114242594035
0.0466904415293822
0.0446645434577927
0.0443868811830105
0.0456397116214696
0.0466525375848609
0.0432909413541606
0.0459060050327201
0.0484056093853923
0.0444085959570085
0.0470335989882895
0.047290474527511
0.0442858574714416
0.0425053056811461
0.0465779080914047
0.0473868065615604
0.0451122967595677
0.0446850677687884
0.0430735585429973
0.0428694331531396
0.0442084515162504
0.041796696969226
0.0466629464105472
0.0467264192148432
0.0458671128789867
0.0444089707927153
0.0444556469624368
0.0445607034802434
0.0450801348205481
0.043662267657648
0.0447012451197438
0.044532161820567
0.043885151531872
0.045072303679574
0.0446685754251902
0.0438051999542273
0.0450814180498547
0.0430658620689935
0.0438634702118681
0.0443174517826066
0.0440688641768987
0.0444331077117679
0.041884154718938
0.0441707752602449
0.0449898358450893
0.0426109388350411
0.0436888116817142
0.0430651623010009
0.0451883210246902
0.0431514898444299
0.0423413360200677
0.0412728837718029
0.0438145027670616
0.0452075149013778
0.0442625142317046
0.0399147933745479
0.0415850757382657
0.0425142945569438
0.0448609077295825
0.0431574136014396
0.0440227925192643
0.0420868308043375
0.0431571572869412
0.0418547795402548
0.0420323016290806
0.041647702981993
0.0410708756987913
0.0423655594508308
0.0429763931004103
0.0416180153239432
0.0427306759676767
0.0423086689787003
0.0443411615749697
0.0413107187879633
0.042768245364649
0.0425778991850138
0.0431642647591204
0.0430248687904717
0.0431987576594555
0.0412161517372379
0.0425534426422424
0.0403318637880113
0.0410941141858143
0.0410438086878079
0.039695641656188
0.0388755328789962
0.0447838341074824
0.0408843274885102
0.0407811228785018
0.0435944682609271
0.0416081134961875
0.042879323373251
0.0429799535292436
0.0418461313246224
0.0411969921857376
0.0388886563097645
0.040795004696478
0.0404569354172124
0.0429704113622894
0.041062819111758
0.0399598817472425
0.0389482075043791
0.0413973010365263
0.0434046310093672
0.039454915572296
0.037313681524321
0.0426391011490805
0.0411488748502951
0.0390466356988513
0.0375504309000302
0.039601144154489
0.0436546670013454
0.0422461895587808
0.0380535317190891
0.0410470929567993
0.0385946265276572
0.0390391622126944
0.0388694844656278
0.0381442767268541
0.0391785040906844
0.0398162261947368
0.0387919300540898
0.0382139027221527
0.0386485989683873
0.0401878018792556
0.038182913261243
0.0374582959961678
0.038462650541914
0.039381934004568
0.0367854698950366
0.037603723976331
0.038267845668135
0.040674914718317
0.0384710794756582
0.0377145424502527
0.0354123001873403
0.0374823240229255
0.0386717196609204
0.0388534569127708
0.0375785719401565
0.0383632541574616
0.0339544022145
0.0340338648563204
0.0329277932352001
0.0377201811731382
0.035857023205378
0.0368037095033813
0.0353189020477803
0.034524896127143
0.0340000980955251
0.036281926168975
0.0358145879754951
0.0363497824986464
0.0340734919199431
0.0357292286030181
0.0337223283883628
0.0347812474957985
0.0345027454851747
0.0349673484920138
0.0325449291206715
0.0345207192498224
0.0334693070473148
0.0339491752490054
0.0337288380185614
0.0361515940902284
0.0333248415461269
0.0314681668659495
0.0349821683270795
0.0344480911067656
0.0340368255861005
0.0356484979080194
0.0339856284223428
0.0324305070261998
0.0329184852596163
0.0346233742436989
0.0314330416682125
0.0328352074824979
0.0343515675610427
0.0341055980572578
0.0330580224040517
0.0334797544679144
0.0328994246555311
0.0329162230766388
0.0330273769287586
0.034101071388851
0.0334517768757124
0.0334542069614891
0.0336018240416558
0.0347685462512063
0.0331981856589962
0.0337167772480378
0.0321580792458317
0.0345208951570497
0.0333004486255539
0.0313401886644641
0.0330567929327714
0.0339266593118003
0.0328208703050258
0.0322013996891852
0.0343312246640157
0.0336384346392619
0.0315858198674813
0.0336857463232826
0.0311890157978197
0.0328170187470429
0.0326049497115782
0.0325805817544598
0.0327428195720695
0.0306044779032316
0.0307680661437334
0.0311519111552395
0.0303751667276992
0.0301937185724198
0.0314923847271023
0.0318430940605049
0.0320721579137001
0.0305435278821284
0.0323317778769322
0.0332675167505303
0.0310066504202073
0.0316043290932512
0.0299537558777871
0.0305831217578791
0.0292179842721132
0.0310217837969732
0.0305043472088869
0.0309026347046796
0.0292559725901683
0.0317488395489599
0.030086256747259
0.0304097230640019
0.0316489612194432
0.0321946367428117
0.0307715096840145
0.0319609545064945
0.0317015168903798
0.0314458278935801
0.0294888347618109
0.0287386421174997
0.0297642751322699
0.0289641086302839
0.0300980027391539
0.033861572050339
0.0296888377518427
0.0347702593553563
0.0267539673854228
0.0328268450879743
0.0286989973455852
0.0298324469481277
0.0295125539780259
0.0323374573200351
0.0310492613091925
0.032031467616622
0.0300022798304771
0.0300987164690787
0.0335425113494961
0.0307385057587993
0.0261273534018185
0.0311200525566736
0.0320296403342576
0.031452212682647
0.0304992493994094
0.0293375376318114
0.0317545712304395
0.0304206179898461
0.0296494374191073
0.0318927964448755
0.0284677329711931
0.034815483427708
0.0306170138584315
0.0323004804725514
0.0320155794724512
0.0316124251213826
0.0282644695375031
0.0332309050311405
0.0312504020577225
0.0284904272873045
0.0296902003270104
0.0304453409037047
0.030910080130524
0.0322480180396072
0.0333250368348327
0.0314720290996141
0.0305368356830675
0.0311814175537031
0.0302838108824764
0.0323092235969846
0.0313941519285285
0.0344039019050672
0.0315948216779222
0.0286899551060112
0.0317104965028885
0.0333152506545216
0.0291633838754846
0.0292275792432987
0.0289010379086779
0.0332229398566555
0.0301258532842786
0.0319575215882422
0.0298196684188072
0.0317125869202727
0.0277592968783113
0.0316144418462436
0.029429715573804
0.0303955393817378
0.0305276436375442
0.0333211684810483
0.0297605868980766
0.0309884050109093
0.0317616414689954
0.0313237993941069
0.0321244267877448
0.0310904964270746
0.0309941781419867
0.031664590299581
0.033021396108525
0.0311057225432868
0.0314467027240994
0.0317953792020891
0.0315465249735701
0.0295401060064751
0.0310608934988275
0.0275003813643805
0.0399695709947339
0.0308704266393989
0.0337037534324422
0.0347624058927083
0.0327489679859255
0.0325787749207259
0.0316946704615449
0.0336183053643865
0.0339323390045074
0.0319560624289942
0.0323031175780774
0.0327084091066461
0.0337682654426739
0.0312056660114676
0.0316318947580039
0.0348640459280161
0.0333357966494975
0.0319562003500789
0.0355661850952841
0.0307112973839088
0.0350223389109286
0.0346439821839528
0.0295312052310991
0.0344190688691236
0.0310431123633816
0.0317816204407991
0.0338317829264056
0.0331097695378329
0.0316581109330255
0.0350534048791475
0.0321679027422995
0.0315388662146067
0.0300514938066924
0.0331517879440589
0.0361294657000322
0.0348868295445834
0.0363178260843972
0.034438483785622
0.0308163674170648
0.0366812995569653
0.0318688671829678
0.0343476993972857
0.0329903121632656
0.037990454796591
0.03781665058976
0.0394900198483192
0.0337401901678259
0.0330041251292756
0.0371536602115543
0.0348376898887351
0.0340661773729252
0.0387927627719257
0.0340198176253807
0.03755374004639
0.0316038887905194
0.0401783713858492
0.0371950736516962
0.0349163190801924
0.0370371263361599
0.0359115933111907
0.0371688282236849
0.0373362955241821
0.0388349977535571
0.0350429318609857
0.0411224903224749
0.0340959291349755
0.0406883662039929
0.0388676026034277
0.0384949798617264
0.0371278419164632
0.0415972880943217
0.0400996314554648
0.0416387254311032
0.0351942172222623
0.0423548598154154
0.0399617983079581
0.0398152797951353
0.0405665331252248
0.0383748392852565
0.0431569275516901
0.0362075277461512
0.0438299219234574
0.0458925838510399
0.0418047633780931
0.0425592999460514
0.0399398857390179
0.0432518500037451
0.038426070421326
0.0414787460666299
0.0475740602872434
0.0415357228430088
0.0426958837261352
0.0422566383866284
0.0445127254112554
0.0478258647498176
0.0428605815716397
0.0463820363426531
0.0462797190166075
0.0447440088884625
0.0373816651625953
0.0501245533800026
0.0410232812400964
0.055296463466265
0.0509475304603236
0.0494122209269094
0.050070327836202
0.0506217694941376
0.0489945813894022
0.0522140432912098
0.0505808584191214
0.051035852926057
0.052041932638432
0.056307505989258
0.0560370869569991
0.0547833832477159
0.0565501664446641
0.0522664745548693
0.0604037123421343
0.0619368784754799
0.0605541133342265
0.0613352882321778
0.0585666148705064
0.0582612692131362
0.0656687672129055
0.0615548370470373
0.0634267741732693
0.0641605948327785
0.0636488931469179
0.0635972509681622
0.0653309294429228
0.0686221860921891
0.0678203814993291
0.0698928114707448
0.0701066674908451
0.0763572729907686
0.0787982402549967
0.0761813903417786
0.0789401700158167
0.0753890697768688
0.0834597019732124
0.0756555089346365
0.0782846754213704
0.0776634788018361
0.0810830291233045
0.0816443685308549
0.0818747719279955
0.0822653608495081
0.0860219384898348
0.0873495956880658
0.0835407416220084
0.0899403182056676
0.0947354969018584
0.0920527001392732
0.0940062764985663
0.10711238496152
0.115998755654837
0.0998326245813445
0.114934405889713
0.0964436332414707
0.123686210589176
0.118595243186035
0.120827025135788
0.123982612202749
0.130791684241853
0.131251444216398
0.135618915421396
0.139219266946653
0.145983871111108
0.151039252852627
0.154421657761357
0.157550141611952
0.18221660919772
0.178672495921291
0.182753078825331
0.176584399360673
0.189977886730999
0.191930750697449
0.201989798947054
0.197778891778508
0.208337530793629
0.204061266605925
0.234293707863195
0.224930031258922
0.231055633504507
0.241089656436175
0.243382363532075
0.247269160857327
0.254077560271793
0.268074283285423
0.256746015721257
0.267907661658343
0.275141661782095
0.282191044667558
0.276316196168343
0.29125627487919
0.300701186304743
0.294666262462216
0.301291954988866
0.308695582895688
0.308477899763135
0.307419550615187
0.317257436464025
0.316620704233457
0.324338919689034
0.345116048959866
0.359240145150711
0.330599071844047
0.313244298963044
0.322616852741449
0.325148533188485
0.325163091500349
0.338385986085676
0.338258106965127
0.334966557607536
0.32450769708318
0.327271353302746
0.329688755285979
0.327881893455739
0.330193733078358
0.333890960765288
0.334028690763312
0.324506177624735
0.335011999688204
0.339569652989512
0.349554228582751
0.326505968483081
0.327613903833141
0.323100096410348
0.325271381172101
0.325907169830584
0.325785479952583
0.322674572451759
0.325839491964021
0.325578049432772
0.319615700223054
0.314961888272865
0.313372974271711
0.311957971509219
0.311393265636265
0.305770673111912
0.310864005820835
0.299277167378267
0.295756262973731
0.309226531765014
0.31171849845091
0.300110470745043
0.286356668460913
0.290778626740233
0.2926706704957
0.283719004072695
0.285699178765494
0.281940186500905
0.281110833599653
0.28535209272313
0.279475634708539
0.280356116232136
0.28151852939212
0.282362449653206
0.277449357640297
0.275416988683129
0.275292838788749
0.279594304553396
0.275546687344171
0.272626141262492
0.271473695078509
0.273198813385042
0.276636447648134
0.269918932390997
0.268857549809756
0.271395421570764
0.274518792733588
0.27625360610661
0.271761454363816
0.267796650566151
0.269065918414068
0.268675193009746
0.266926376344641
0.269943119083834
0.267415592641136
0.269157126241931
0.265019186624226
0.264547572016773
0.263934403827809
0.259899016031861
0.256791984773705
0.258332196127495
0.260984562876564
0.262035672903808
0.268333954785199
0.251650781009938
0.251288477829003
0.256090468303781
0.252785875891511
0.252086759927122
0.254552369983455
0.25545650640365
0.248169495072474
0.243146042420924
0.239909303699144
0.23568543941316
0.234150913802323
0.236216578096098
0.230236101119561
0.23078777072255
0.236137818156767
0.241893331580564
0.22450981198013
0.246920157579969
0.222065771180532
0.218616704511708
0.218126398225773
0.230899140991895
0.225100086015446
0.217136469647144
0.217658163642439
0.207302558427608
0.217230973889339
0.211833194650047
0.213167656626297
0.214635874375189
0.211725946623386
0.212557794577391
0.208826606835914
0.20429379658085
0.208197764856226
0.202501937985067
0.207439503368625
0.205042724926895
0.197346144056738
0.194953917770686
0.191055470257748
0.188937594891346
0.187486837631312
0.194498876081505
0.187320923246158
0.181750343163625
0.183477968533538
0.182269336291333
0.181014535893513
0.177082800291859
0.176867451487482
0.178132524299492
0.17509443001753
0.177185384688529
0.163946118135522
0.180054619951141
0.172321511015813
0.172295300357376
0.167458305560539
0.167254898338381
0.17298949051876
0.174783154474975
0.16380251922122
0.158521302593362
0.160398794909866
0.163011573312926
0.161037492296816
0.161016711227298
0.154610536085488
0.157727182050426
0.154772546231729
0.165413749725883
0.165728910738734
0.160823999698616
0.153614896559768
0.154233507320927
0.155734827098835
0.153806946095015
0.151755063129206
0.150988842890661
0.152056087910564
0.162533778259334
0.151619860729861
0.159287059413849
0.160769664957677
0.1611757327988
0.160257310809741
0.160188572366795
0.164289346701756
0.17622168985617
0.170818589924387
0.178240340109538
0.171995232851752
0.178238762265132
0.178820598363778
0.183633516702759
0.180460904541812
0.188190385512311
0.194678457913908
0.196601283982151
0.195606822442916
0.205289301157337
0.204709101443576
0.208411854092917
0.219998686120213
0.22328778537643
0.223835433342486
0.235698146008044
0.242500149942748
0.243370318716909
0.24846881298834
0.249120828355084
0.253878470394863
0.256036503557954
0.265957370852819
0.270513211350273
0.272134695740219
0.279554526384691
0.277143310283236
0.27873187572801
0.283738048086661
0.28537988156956
0.292497430912067
0.299120643999082
0.308143363752898
0.30541464714395
0.312950849062327
0.305743897916904
0.304864344697016
0.305861990322464
0.31167986218375
0.31141632011024
0.315142744300361
0.314117248481747
0.312399996140766
0.318460164329899
0.322080395956354
0.320356043645584
0.321934434256293
0.326910527398337
0.327206802961151
0.331808776136945
0.333719515079377
0.336767042690004
0.340380331532763
0.336323521064712
0.344922159730748
0.355045558666028
0.352722813302811
0.340740215329568
0.3531721419056
0.358084073843784
0.358087440239733
0.361480259040811
0.363379080132536
0.370239340499012
0.364245673233403
0.372288650270762
0.372373235540319
0.370597496694898
0.380933846965506
0.381431746941254
0.384453699063838
0.381129562326673
0.385488913090004
0.392912775514738
0.40277526879167
0.389651466436944
0.394938253587811
0.398284447933255
0.397696210500569
0.400493859892066
0.403348657681535
0.398672094690635
0.402455805590245
0.397064202933687
0.401578642879067
0.403738099675217
0.401946791325953
0.400884138763717
0.405533652708902
0.409076020070305
0.405249882587204
0.396438033126687
0.402229447322235
0.401151337692695
0.397792119789437
0.402312378185423
0.406047936863791
0.397084905432552
0.401253850324687
0.400390877399451
0.400289269059052
0.402302253364323
0.398286827579484
0.39190565467089
0.396575850629937
0.396995365263012
0.400243869222222
0.408267169390158
0.405314580312713
0.403382964670117
0.407040182417118
0.40793754354581
0.411657906196982
0.411026532639508
0.413933719983873
0.414803438977015
0.41778429998434
0.417836740745565
0.416452150746296
0.419396312483383
0.417423795783269
0.418736361555705
0.416852270613796
0.420013851808665
0.41365875199129
0.41156111169896
0.412471709934929
0.410466994571675
0.411638867041264
0.408187519103524
0.404246933223494
0.400227067561781
0.395240053400658
0.396543396089953
0.394556179511576
0.386412683346359
0.38698636674928
0.382782052001752
0.373807433768498
0.373640469552469
0.370654874175252
0.369260156827131
0.364862381209121
0.364930337076429
0.360601964494342
0.358359639378139
0.358251764667394
0.358810537545698
0.356118565628456
0.355744045487792
0.35807847044854
0.35054268634084
0.351095583578664
0.354283685301839
0.351691194058694
0.350490207629861
0.352183674885845
0.351852654042765
0.3524173655195
0.352466718541564
0.350584282137546
0.348107086190261
0.350232610878459
0.351551795692965
0.350377832204965
0.348341189067864
0.348867210466752
0.350576950502768
0.349235663421964
0.344000291622647
0.346959209874654
0.347834024863765
0.345570941245331
0.344414114801581
0.347381452432855
0.345021564136192
0.34572159202153
0.343744253146577
0.341306013631191
0.345278814137279
0.346680524021872
0.345038922551856
0.344154920742758
0.348354126373742
0.343048804771708
0.344094877359155
0.344347385480286
0.342440904322927
0.342133082441165
0.346595782177984
0.345295778843593
0.346553460424607
0.342028061733031
0.344326645373791
0.338503818782249
0.341640686900407
0.341503975475062
0.341354403556251
0.339276448041312
0.335925736307795
0.332905707680047
0.332055205536799
0.325909853419775
0.324635747870026
0.324667509795082
0.318745762861119
0.320721194278607
0.316172919171701
0.310498157391626
0.31039572781073
0.307002214703371
0.304886269538658
0.303006019304984
0.297384617166953
0.295871450638299
0.299473654779531
0.295386081061291
0.298858726140244
0.292796782641638
0.294219903264123
0.296030891574354
0.291335415301398
0.29396269979817
0.293903107956802
0.297284542874108
0.2942716512382
0.296706645176516
0.29541905638143
0.296003001771265
0.302540855412954
0.300434640789458
0.298992974992064
0.300663112432823
0.303750246512557
0.304655849973834
0.302809471065769
0.304926576997762
0.305105996988877
0.308942189084795
0.310013776361818
0.310455510558966
0.313444805593753
0.311549167158751
0.314219647232819
0.317149836669542
0.315253282906047
0.315462979670257
0.316272016037529
0.315732647023433
0.316557172992988
0.313815966552477
0.312066693568399
0.313605808119373
0.314675836788628
0.31094060123086
0.309545213893558
0.31116140724055
0.308096370757147
0.305996291202497
0.304526625726217
0.304721960890232
0.310239238313203
0.302763169937602
0.302832711933928
0.300632868750795
0.298523558083999
0.29852203988653
0.297544444708701
0.294950036387266
0.294499451753063
0.297779417064694
0.297090871582108
0.293620773516297
0.290689968768466
0.293699346747758
0.291297388970509
0.289754988400914
0.288350995637245
0.286783783670336
0.289750461633034
0.28602181090382
0.288225560852768
0.284665907783071
0.285012039675157
0.281131132121982
0.280968896313769
0.278921739733529
0.278557119201153
0.276863095003223
0.274886378147623
0.274765618355366
0.271525324472359
0.271501357483031
0.266819012474785
0.2657427443815
0.266177277712049
0.262005205003151
0.258056828664293
0.25818648961599
0.257516676606415
0.254295214324639
0.254515744564509
0.251272527331664
0.251096624396681
0.252765134125628
0.251407227354809
0.2498159934227
0.252590049528368
0.250148867427461
0.249808627936023
0.247362388666607
0.247899368954176
0.245912176990436
0.24265661657348
0.243018665895221
0.240316699342898
0.234990048837305
0.233468855990814
0.228959399293253
0.228102974415511
0.224741660840832
0.223612169891956
0.222256320526718
0.220930868543209
0.22109854721552
0.224386021665351
0.224984556647956
0.226254890821173
0.233898096675474
0.237963885580754
0.245193355634643
0.252983956767777
0.261563210464812
0.273005409091692
0.28348367622556
0.293378459708761
0.305323247121052
0.319657095734278
0.333179123393834
0.344698288669391
0.35426271196585
0.367872067663245
0.377438853736149
0.391377637977799
0.40440238925338
0.414285471927542
0.427241879796088
0.43818287497892
0.451711179673247
0.461900188720852
0.466947713717621
0.476204634025603
0.484050627985592
0.495290361820643
0.502796296735596
0.509335790895967
0.518008908130867
0.519184428902995
0.529471534455487
0.534311904050908
0.535950150254937
0.54432367515875
0.541500810121411
0.542363316841395
0.541596731880332
0.540788229886121
0.548910045836124
0.545582649921377
0.544291334767537
0.542535129088516
0.549050581465129
0.545856537436473
0.550621215111818
0.550353885470446
0.552287336410994
0.553331549169853
0.557837465268756
0.561008587643682
0.570312676284044
0.574855376428398
0.575084475955996
0.582023804842846
0.584657069192134
0.593280162979298
0.600280548206943
0.605734639027281
0.61003671244782
0.616124643493503
0.623756967841416
0.635081146299592
0.644200333106529
0.656027285156176
0.668556834705355
0.672211051591994
0.679601418327735
0.688962335477253
0.695791215524863
0.695983532791028
0.70367922613335
0.705501795188916
0.70629821956874
0.702026902499891
0.708100077751259
0.707431777759178
0.694160639731565
0.695977920487011
0.692602828793133
0.691210709716731
0.69091120392064
0.691913283401629
0.687616799789005
0.690842641631309
0.707775998493022
0.716660434142758
0.720913424164182
0.729915997611839
0.746753493082812
0.759488545319659
0.769281025323144
0.78082974969644
0.789201953980537
0.809226882630682
0.821205378529119
0.841290907129231
0.847374907877252
0.857298265186104
0.863790499015056
0.880951538149971
0.884395939918864
0.903689162407263
0.918136451174832
0.936662122066455
0.950072843086741
0.966640162537491
0.978204265736516
0.99034319611821
1.03161909346087
1.03680728740344
1.03845518432402
1.06028026624011
1.08210514469749
1.11429399048951
1.10194434559828
1.11529952070534
1.15326250967687
1.1441110283077
1.16648397730599
1.17739918521764
1.17559474004579
1.19659153822895
1.16801494083802
1.18790593257166
1.19059057188823
1.1738211435073
1.18218923361228
1.1960017138009
1.18129417920142
1.17329176447191
1.17061407864203
1.17762982362996
1.15462891715914
1.1585776422835
1.16279434706635
1.16134932085176
1.15903157230737
1.18818608045862
1.19091450783665
1.18666606111038
1.20340775247945
1.20322256642223
1.21818205628494
1.23244467628371
1.23080589115202
1.25062333540499
1.27218442042852
1.28168198700682
1.26004275885463
1.29729865714217
1.29795942727771
1.29078460983669
1.29644909336515
1.32087572661374
1.32672520308513
1.30937563137133
1.29934559718342
1.3270461132703
1.32569407069363
1.34395368011366
1.38537116409589
1.36152316760933
1.34982296116169
1.34980841772804
1.36302653769784
1.33010347723135
1.33423030136957
1.35687032527331
1.34516417217231
1.37151159814641
1.29487684677778
1.34382902424419
1.29843612528862
1.34106087760327
1.30840413859919
1.29182812806949
1.26548783582226
1.25658547971775
1.23997876614982
1.26023452265089
1.20063010926906
1.18038181079896
1.13650887869614
1.10732642644265
1.06761620352303
1.01647141921697
0.974866445856192
0.934230479041349
0.894330292071741
0.880294743586848
0.841611171226027
0.814773391571238
0.795655491967351
0.792132231122244
0.756615492709896
0.760487456406687
0.748768825152868
0.754578667442176
0.735654695045143
0.733899211001198
0.726175119102008
0.728396185373308
0.707191298003875
0.700238600510237
0.696705171790806
0.683403245817105
0.67739213503501
0.66832657144626
0.649780329104804
0.633639921182327
0.621447199572498
0.607573895259128
0.585124986428678
0.576346391561475
0.548829422029522
0.527048364803119
0.51837103166474
0.495586001995488
0.470315919398349
0.454334094260519
0.430872371902971
0.412770379427498
0.395497928738872
0.372483641056315
0.352406167056287
0.336821865850851
0.324719156464727
0.30991507740978
0.29650089701086
0.285482977521042
0.270095143940131
0.265465120256221
0.258065727460898
0.245845266995281
0.239657500419452
0.232628251222619
0.231513278136996
0.225384902963043
0.223249760913805
0.222548805523942
0.22335162087371
0.216335783120456
0.215599614635208
0.216080968736007
0.216004503731494
0.217389542980745
0.218838439960677
0.219662277024226
0.223224891423948
0.222955973470493
0.218307755545545
0.225464722563702
0.226748427179703
0.225943747016203
0.224889359180423
0.226751145216438
0.225986562629856
0.223509617571551
0.220654838683556
0.223379982969898
0.217849374384896
0.215046109175249
0.214205132381214
0.208677693845761
0.208104778678343
0.207920892026003
0.211388273375772
0.207745983953726
0.206917389338317
0.211372068591493
0.212586433810521
0.208549374357859
0.213459272711288
0.214174490110138
0.219406800521098
0.222449664403743
0.223120019200702
0.228769802515334
0.229127322579333
0.227472131946133
0.227684079342983
0.233921768093474
0.234098374297085
0.23499777276342
0.233124188056642
0.239265918456082
0.236080994164273
0.242226910033697
0.234372709741737
0.242128976418279
0.239232789287505
0.240739080913531
0.245351912807376
0.248658630909302
0.244316831767808
0.255186191672867
0.254770670520687
0.253639288371642
0.25711267584313
0.265987608166197
0.271643834388629
0.276757000622776
0.288151783567489
0.292597258032174
0.302385442238241
0.316110906603388
0.322104295537924
0.332734073721848
0.32848037596055
0.342770991751729
0.338370491517206
0.340059552413437
0.340769399205626
0.339391219044676
0.328481981830003
0.322051769022209
0.313926452868729
0.310485681915588
0.303225737340713
0.304074333737723
0.296806264431441
0.298629753958506
0.29466274567408
0.292865208586868
0.293053946289739
0.303755444866949
0.301824806340947
0.29901178862747
0.293538715436741
0.293676822050022
0.296475177798907
0.300317330959634
0.291866282300798
0.286193089249074
0.283848409650998
0.275725843675743
0.275161054813097
0.27093880268593
0.267317118172925
0.265732615803241
0.272078537324225
0.262279950150244
0.257712095109945
0.254344633392306
0.259785657328489
0.257802492421782
0.256514726991521
0.24914435482528
0.25174681702112
0.249677929111598
0.248896419314494
0.239068374505156
0.243072089974447
0.243275279587156
0.247316388335354
0.233503752328266
0.239333654727924
0.243695220955955
0.232239908896509
0.239661216669342
0.243494489006634
0.235614746004517
0.230666909004253
0.237246033305746
0.234258153439153
0.229133680962773
0.223592166318569
0.228084871138051
0.219477874469493
0.230420484004092
0.22467689992035
0.220566423009172
0.214475771750253
0.218678369891215
0.216983845107572
0.218413775409399
0.216506082715191
0.228678120231627
0.221700637236787
0.221087541323872
0.224417052166483
0.216906482481423
0.227180275989682
0.217148336803323
0.221931572848091
0.217283001573141
0.219168868238589
0.219474502051295
0.228497774379877
0.226643332909981
0.222136511984678
0.235915134201368
0.225167392329465
0.24248127145549
0.22783190776894
0.233936096688258
0.227971607667796
0.231202237131208
0.241038453274868
0.240753662954691
0.241278296882058
0.23974979896666
0.240632118075842
0.255383112241469
0.254610651141383
0.26221918482563
0.254724131654464
0.277679164439851
0.274307824324186
0.283279581958532
0.279740798931659
0.288903750206579
0.304283032796718
0.307962859456045
0.315974774337517
0.331436494566879
0.327698418412375
0.364985538601294
0.348419154832374
0.371260273858854
0.376878238197202
0.383586644719733
0.389249707119843
0.387251080684962
0.404956114734599
0.426988913216178
0.391465575894655
0.41357777071222
0.429887000574126
0.439638337691947
0.425241749972379
0.41421394394239
0.420659000500128
0.429954173957553
0.401804858133745
0.434191842940136
0.398445727183043
0.424941233423492
0.406508051798364
0.426514977056715
0.395395443485963
0.398829084329387
0.378492263920441
0.38291459956217
0.372464705095937
0.392500822800335
0.396137533469324
0.373457372301652
0.375922913566621
0.396207270862158
0.364850784903764
0.354901087068001
0.371909610363264
0.368413344716724
0.365625849361268
0.378343780668324
0.346172506072225
0.370847181576748
0.351318572758641
0.321207204481669
0.340084008463573
0.359990087490536
0.338535133214029
0.33649696015588
0.351967110858572
0.350133557064129
0.354158474516906
0.368712816661337
0.371273010511207
0.367921920783196
0.334680801328044
0.376924054015816
0.371360223117279
0.361846134362179
0.360012131135835
0.35697774958044
0.34149315982083
0.361820272376073
0.335433556170511
0.373165984177519
0.365887445020467
0.381913404260934
0.384298822932068
0.372568254272559
0.390829961376623
0.398267086808337
0.357910877124095
0.453511444265555
0.408234713088893
0.372619176155646
0.364324290265788
0.39644548138594
0.375542598740798
0.367598269423301
0.426088865929193
0.412665308239932
0.397790519234816
0.428773690553836
0.453923114669559
0.45853673191588
0.445456411642193
0.423989846086695
0.423175559501725
0.440851520968286
0.437200205462161
0.425887466575725
0.436958895200494
0.520381730986082
0.429801581428292
0.508962208376401
0.482561073190621
0.530035458362618
0.49353097961248
0.486739696219763
0.465223253764502
0.505152648563624
0.450488795595598
0.563057933896605
0.445555332594249
0.551603562426978
0.46002064353036
0.462596531732814
0.464319229788776
0.49969423501207
0.52724243728081
0.444288117351275
0.470423922504535
0.53424853024507
0.447252635532674
0.464877423375176
0.462787252676345
0.488132842011065
0.475191694974543
0.581358931296707
0.427024818690461
0.540568667150367
0.426577806080399
0.407425139336541
0.38946914902702
0.458954772546166
0.43092765383862
0.469764842454866
0.485501413641624
0.435917438383966
0.433836985061253
0.542227581218266
0.388649847498105
0.469364171778774
0.3813629195638
0.671146518019918
0.477711684411107
0.47159002149145
1.02288521329589
0.598548867788669
0.551284512050532
0.671696684791143
0.65425412841044
0.532181686740134
0.35292466126697
0.697519761190225
0.392362536369782
0.621625480161772
0.543918730068226
0.625328804767857
0.333869661357285
0.595622158264583
0.450474846777852
0.784106965188866
0.317405337218966
0.45481539508087
0.323783509740271
1.84257976130418
