3596
4000.36533379555
650.420452594757
1
2
2
0.0729748284014507
0.06917125826574
0.0785620214875312
0.0741829591266312
0.0823237169822445
0.0759425953865969
0.0855930892305739
0.0674570499647994
0.0761072113224832
0.0738643941246701
0.0756800374825898
0.0747643568945036
0.0902603146143368
0.0735635687398258
0.0778438204484053
0.0685302828025325
0.0705821639321515
0.0685863399191112
0.0807688992856688
0.0677287837902854
0.0787370466695103
0.0576389708126757
0.0768303211763179
0.0719123056626083
0.0752069827348466
0.0695394334175491
0.0787626973213737
0.0704110306109574
0.0734052023122515
0.0683286707485015
0.0808002843285634
0.0675907617824286
0.0746642437490878
0.0678367209792991
0.0774912326768588
0.0717117723318281
0.0888650543722217
0.0767861518474202
0.0711377265502641
0.0766228416957469
0.0851685487752249
0.0741030079375956
0.0806362052079102
0.0663204070553719
0.0757781777478735
0.0718344320097964
0.0827520507509668
0.0732246651098254
0.0834623719293346
0.0637402115928185
0.0767388731493757
0.0658294875537488
0.0859422639926593
0.0689698978901386
0.076181484106279
0.0802087759017922
0.0787929673462909
0.0671922223174521
0.0871173915604715
0.0682886964160893
0.100937776518508
0.0778256847633347
0.074955147366346
0.064332304129872
0.066537307694805
0.0697151516446203
0.0772287109383192
0.0622589998119439
0.0687561360288621
0.0717986768375491
0.0648096015700238
0.071898999982466
0.0881532058001416
0.0755988246209288
0.0853719689202485
0.0686398649769472
0.0682480435499401
0.0612624182274141
0.0632447000105346
0.0798120511722556
0.0784757769456459
0.0702515950221052
0.0769923977148151
0.0623245879632958
0.0724604114130702
0.0814276325998341
0.0647268352256691
0.0662266636751153
0.077986980772023
0.0734080888146859
0.0791883885652289
0.0674915147782288
0.0737468164269289
0.0621165139477401
0.0676343396759719
0.0738950386353694
0.0667821674859147
0.0726643520310002
0.0640110745904278
0.0723427269430453
0.0607298189592556
0.067161604074833
0.105956090083481
0.0426986764240675
0.135734987934273
0.0657427258915724
0.0689405871713635
0.0943640403682923
0.0872165877862116
0.0662358337567275
0.0693476877485989
0.0676233136692383
0.0707979159374107
0.0718108214858994
0.0512354144832924
0.0833953681585118
0.0837461264723991
0.0689334622159761
0.0733946918673066
0.074470485827919
0.0313905979760411
0.0879395426956257
0.105502756345285
0.0574428302687118
0.0852789552644766
0.0585040767178511
0.0427161197875634
0.0952862784609651
0.0928199952398726
0.0579346162037901
0.06410455799874
0.0687261264626447
0.0573806581597843
0.0577166054815679
0.110637385765798
0.0597618127697841
0.0712274536384613
0.040674263300455
0.0824611054788169
0.0996713835819143
0.0839489921383868
0.0733959756476637
0.0547457651370004
0.0607564685996253
0.0886485221107468
0.0735848178866768
0.0631111417490002
0.0703975799058656
0.0682647652226706
0.065456045252707
0.0698089634492534
0.0499422775045943
0.0849440563677481
0.0746296963347214
0.0062422519318853
0.0975008131174557
0.104646907922269
0.0703622370681757
0.12242485425056
0.058953681952957
0.0881754941993564
0.0623013703594242
0.0809644559264471
0.0508305243938187
0.0817601462391366
0.0386836247287051
0.0791910933397439
0.0718140136852343
0.0608565612560644
0.0599029077285209
0.103276678542606
0.0760084588775438
0.0485959704029675
0.133831743173299
0.0730178368250361
0.057387372328074
0.0968936947509902
0.0749996792955956
0.050195654251968
0.0640193804793653
0.0920634995431976
0.0665662093538759
0.0760781700787405
0.0531433683271725
0.0684301170340118
0.0778764530359035
0.0661594158491582
0.0651525286513504
0.0678039972656186
0.0416252941726017
0.0665745930366972
0.102462584764297
0.102214779946562
0.0656443885188993
0.0878801714835697
0.0286659237465603
0.103940086370954
0.0938203327634253
0.075738907587161
0.066581817589248
0.0681344430170176
0.0649295825611792
0.0653084620689639
0.0603963054336136
0.0525150986602564
0.02521317472751
0.115742832114907
0.0722600642505437
0.0721482711595721
0.0545591012625229
0.0673948451236829
0.0233827119963288
0.133951105576576
0.0947588779416925
0.0782637414404855
0.0635319556154844
0.0537906760727442
0.0772504810305272
0.0916953847445874
0.068223896589315
0.074907898673933
0.0587336772429087
0.0677058354274567
0.061801064364764
0.0769384780827926
0.0681497121259356
0.0692644172363647
0.0680512248478707
0.0700189825626728
0.0664840810250021
0.0812715682119622
0.0651746473745345
0.0683051725135063
0.0755718050770843
0.0564469606615328
0.0663467986951338
0.0868424546880865
0.0683015323204305
0.0774988800835503
0.0645701934212388
0.0714989087467141
0.060032326680723
0.0745877724167201
0.0647628493542586
0.0580090021009575
0.0438918477098708
0.112904795554208
0.0631682258799057
0.085585317611111
0.0388481449286047
0.0974244976077145
0.0732403905031319
0.0747930835429213
0.0601990517372518
0.0747529522496893
0.0556314379885542
0.0633858998061093
0.0860456624311092
0.0775230626999036
0.0584506749561912
0.0883598927925027
0.0675344319265248
0.0768939330123285
0.05235566141515
0.0501203337535906
0.143908755584213
0.0615989582732048
0.0493593662175935
0.137101895887626
0.0671875411358984
0.0998306279537509
0.0535430360154094
0.028076286577894
0.178608859552047
0.116454963058688
0.0684325796692746
0.0707564714048837
0.0967035165579649
0.0651517660223755
0.0700175400806452
0.0601663192203099
0.0689817080938768
0.0822983457246888
0.0953105041934481
0.136749880133991
0.035551916561019
0.110725351562179
0.0896719276776738
0.0928431300104907
0.0709323824074611
0.0758107956472336
0.0573621946367312
0.0938849181391789
0.077431660159812
0.0979885079594939
0.066618577104959
0.0678428731588987
0.100547731532397
0.0928656004145296
0.0661466321541882
0.0856637952524922
0.0838953344039639
0.0675021088220889
0.0767724187721031
0.0724061870356458
0.0799393304262926
0.0666044556390233
0.0514838761398084
0.124134747698569
0.0760920393648654
0.0768809372597716
0.106226022340525
0.0878324675049544
0.0769686419186664
0.0785371050581342
0.0781603196546543
0.076448739026259
0.0719518710654198
0.0657172072302772
0.111115517139828
0.0918775756882672
0.0764239495279385
0.0758591331449793
0.0738647112053661
0.0847687167033768
0.0826392239561381
0.087287223043108
0.0802135353182981
0.0849799270212532
0.0619578073849738
0.101444406205869
0.118030890544972
0.0478489505759904
0.112054286133199
0.112924438958176
0.0830455169536916
0.0879683468045815
0.0776293400604367
0.100995828904523
0.0855826767448392
0.0952561445853733
0.0877716210478031
0.0829557297189891
0.101137801541237
0.107593501971632
0.0752573213222776
0.0852038951371803
0.127345370334952
0.16744300452673
0.112266442679904
0.110368030233589
0.0650726018120958
0.136083837172718
0.110509607973044
0.12402182264323
0.127750315286455
0.108682916454874
0.117504703521049
0.101160204074403
0.124477500691337
0.113477529154922
0.113196984169776
0.105841776977575
0.116255461922797
0.113438461675836
0.12431701419898
0.111933154597478
0.113779162501454
0.173535099922515
0.12364569788417
0.126434230340844
0.130398341262578
0.104761951535368
0.146096192875225
0.137826666900456
0.171590151463113
0.158947608484699
0.150570913882572
0.189731110280772
0.143134340635899
0.154128296841351
0.140222590277964
0.160656246918775
0.152116303091523
0.164395168355243
0.150095902561133
0.1600509321289
0.150529025480193
0.168002997887135
0.160769697839631
0.177307230000122
0.147924520841725
0.194607124113036
0.163798074837186
0.190997528191216
0.16864003646842
0.180930933741767
0.196094118016337
0.244011611609279
0.197120587316082
0.215163399349068
0.186402838615104
0.199208941288564
0.197941435188862
0.204150040933975
0.207651761938628
0.200184532361927
0.241269114087097
0.216293446952041
0.225135523353238
0.240045740039923
0.19468861737422
0.241164982687706
0.221952195516246
0.227504965099456
0.24336501234217
0.258740241802495
0.215858748850338
0.273448232948977
0.262639544297267
0.25734457041608
0.258151880693543
0.253556620220459
0.26283728449126
0.249712920457485
0.267552335541907
0.275309995787251
0.278553970713563
0.298105824982078
0.274456592466834
0.298302211611028
0.284247725467185
0.283934805451201
0.317162340884816
0.295576433068557
0.299576660899998
0.321476926841286
0.284301462611044
0.321747545544958
0.288712216963393
0.344582532264501
0.314056964898866
0.319695957723576
0.332040415548611
0.330167691636307
0.324892455722939
0.346261578342747
0.332522929567276
0.345546039761997
0.351720291947437
0.367159604354379
0.354895886551147
0.359068745259467
0.358453320174085
0.368324935473304
0.36020219724762
0.36975642940553
0.371222899455404
0.388688060469124
0.382165534664892
0.406762543655701
0.366684021173042
0.415451067984654
0.438180220649141
0.437811550257043
0.425347500427585
0.427379340344269
0.416619658927805
0.418345980113137
0.404196111691092
0.418554609008679
0.439170497560163
0.459296415190292
0.440236803434315
0.457211910318916
0.45814678986311
0.473173968964023
0.457317182229329
0.462541313817533
0.456742397507542
0.477458868702764
0.453533913932178
0.488001950193599
0.463524921041982
0.488909129860592
0.518118036603472
0.495336224308179
0.504999594257723
0.519488467486542
0.510816726635014
0.53046020837581
0.51848698777126
0.561767541282947
0.510790965781284
0.538560642653234
0.517008491514435
0.544501475468736
0.53890781116126
0.595512314225966
0.571120305791829
0.585323414217635
0.568374742736391
0.573631087083801
0.548583154883778
0.612136213375051
0.601598441725396
0.582364057730061
0.583479041056775
0.626486168341572
0.578403130710611
0.568826915842832
0.592866707108586
0.627385097208211
0.616238140141306
0.621207210223197
0.602769280773161
0.657489044603405
0.618290128843103
0.634852553770305
0.610403694927248
0.645111666597161
0.622809860256029
0.684005831960418
0.681949975815519
0.678468003106773
0.618788035734551
0.755222337982593
0.713720090663735
0.689018478708246
0.686703659224798
0.742537563360932
0.706164479626544
0.726013796648548
0.672969273516735
0.719522210522136
0.707067466392918
0.746205536533019
0.723532075505055
0.73298505648509
0.726294334566425
0.777615443222282
0.723515343498511
0.754823590866377
0.74995080707745
0.780182504140512
0.751957225616774
0.84900736735432
0.799200971856987
0.816922058890958
0.785628070102174
0.801607566475932
0.797199365851189
0.796764148248532
0.780107028877501
0.832966396778541
0.77440372316471
0.783066413823757
0.786755602113972
0.863430453775963
0.856908976949575
0.887372689941013
0.83663185955238
0.841101597870864
0.805407188337242
0.829035524047914
0.865178201625777
0.895588643564948
0.846984954733396
0.898082630993006
0.855174594437154
0.886358741808689
0.905281547441931
0.954471170501388
0.920581889064693
0.964261760682128
0.921387227481644
0.901287363731677
0.856929280227842
0.94667693317141
0.933391231975098
0.971806656116419
0.92372439077838
1.03464686456203
0.916263108728631
0.973877100472356
0.946758444645053
1.04299173531195
0.906821277936938
0.945804324092654
0.979703971883531
1.04171915645168
0.971085117935766
1.01393231976001
1.07575789071161
1.02903755442677
1.00219783112046
1.03485103754001
1.02964837708711
1.14374541466426
0.931759868764118
1.01788805801017
0.978843625514136
0.984032527218875
1.00557384983838
1.11898569430732
1.02730809497365
1.04622101210761
1.0100330207539
1.01618563572419
1.0191163527442
1.03416753846963
1.02432285916918
1.13714915571728
1.12810870054378
1.18479478675109
1.13209045963008
1.17722005162145
1.10416163087951
1.14502074169408
1.06221582510964
1.1843355238078
1.17165634698043
1.1696207890287
1.0392733581111
1.13391173623124
1.17149908833882
1.20045122432696
1.12150844290194
1.1500865970489
1.13263081016791
1.2258988530142
1.07920918704317
1.11085284776158
1.15080824718747
1.32994199091994
1.13516653133918
1.16253870298264
1.10657397466018
1.19338858504511
1.1607601102085
1.19777950202542
1.08981092005966
1.29014262038774
1.18179592886895
1.30162028784839
1.20701414100682
1.26522549108121
1.21147536426349
1.26391765790969
1.27235027959285
1.29926054872351
1.30209101667323
1.19360593831133
1.25711417217418
1.32091678684386
1.23116273819408
1.29221215804159
1.21628389101128
1.24699968854675
1.19885484593147
1.17090371895698
1.17649181905635
1.36140423052687
1.24593144370284
1.19282491543021
1.22048843039357
1.29900906395576
1.18916807024049
1.27923766424793
1.25430851208846
1.38215953955909
1.46928433381949
1.42492973854625
1.24438230467017
1.32998391511748
1.17488204606581
1.37383169632974
1.26110453547176
1.2354840918178
1.3235023423244
1.42973655978663
1.28984471606881
1.39079858989349
1.29745269541709
1.35402592542271
1.20500205702922
1.38504153751901
1.31742775363371
1.31365161634981
1.38633280768047
1.2830400035705
1.24986558521709
1.37982056675472
1.29570691353525
1.48001685006885
1.31776502296885
1.28605729875456
1.50187562331771
1.45650799132107
1.26437454071216
1.39478579972218
1.30875272717794
1.3611316299921
1.35467424400517
1.36868824811929
1.38766648613565
1.44509944108236
1.25655737312355
1.28456392945671
1.295729435074
1.37399373211987
1.35622073177682
1.26894524506062
1.3134660633449
1.49032502147927
1.46860263097579
1.41837794875564
1.40445323088468
1.38857934167449
1.4534030096331
1.54655667852896
1.40944087220989
1.4651783615586
1.35494106931839
1.50651719231569
1.43460398480182
1.39264482218576
1.23364697772772
1.37768680179716
1.39776472706978
1.48338617991945
1.3300901889042
1.32644258913034
1.37305957337305
1.45784123394632
1.35975431347586
1.39322439919124
1.33100661730039
1.40532965190631
1.40435256760681
1.38901218792898
1.33826932567405
1.39334564819655
1.39351787046795
1.34311400738262
1.39054517494052
1.5453292475965
1.37311926867689
1.31863733293688
1.34816256157744
1.34132340859479
1.4480327187573
1.48339044681184
1.34866639797532
1.39036668245797
1.37979975151368
1.41110597155749
1.30896169676884
1.42241627765968
1.36362466607278
1.5340744955966
1.42792040720504
1.43525992531071
1.41816151690744
1.29873844035584
1.29571912410943
1.35986003916724
1.36575131132333
1.41389509317841
1.36887148326577
1.44516938764831
1.35039826530216
1.42737375174651
1.48337423653528
1.36201681487514
1.27809979641421
1.42654912517648
1.34239514759078
1.4083410178886
1.3308323085607
1.3862484864583
1.45345378257222
1.35815194282612
1.36224291015417
1.45411210931489
1.37761316384554
1.50933636324797
1.43054768211379
1.45559233517145
1.41531727172087
1.3882792095854
1.29028762388944
1.39962185284455
1.4404469862977
1.36647445265681
1.31979010187925
1.31150057426763
1.27866849200733
1.41173509652538
1.39158882886645
1.32293508940162
1.37499289430576
1.38843281564103
1.31064303023181
1.34610630795957
1.36435439240673
1.39603287198532
1.35293711264625
1.27881571530395
1.37735310099177
1.37402942936903
1.30494839045468
1.52350386170788
1.39362548498642
1.3134218853201
1.3506021633729
1.35027542186012
1.29443717844503
1.3153753223762
1.31715801398995
1.30930342269601
1.2796165110576
1.32541835541938
1.3210935658068
1.32611140217294
1.34873976931806
1.33463624004031
1.36262246247163
1.34128127794679
1.24067344908472
1.29596380872154
1.30241595916186
1.33695254416094
1.2935833838433
1.30935565388189
1.32444852320289
1.25635505275116
1.21982404179586
1.28634919799745
1.24027713401518
1.27866081419077
1.26306683792696
1.29368820381506
1.22341776783614
1.26849593257785
1.22364394819242
1.26860260684436
1.27014292929412
1.22249830484397
1.28957818825158
1.26075187697227
1.23046267309308
1.30248967535651
1.23147065472962
1.26241582778583
1.2541540880771
1.21937148033371
1.23981563228774
1.2121784404035
1.20053769943284
1.22328917218547
1.16459929421964
1.18326234094649
1.25268055650876
1.29877386925736
1.24822211187201
1.23381235075312
1.16063757871706
1.1685498747409
1.09397909698184
1.14540364450495
1.19020497321361
1.1643148541058
1.16941279028152
1.14775749841469
1.1235801468322
1.14216588575712
1.14963140416708
1.13446093049514
1.15211829519064
1.15622512581208
1.08152420344748
1.13242019647685
1.11608788235079
1.1259304022681
1.09636220573952
1.07020429486488
1.12899793099614
1.10709594547988
1.07839453792047
1.08982940161191
1.10788788385907
1.15018215229656
1.07610431030827
1.04577809994416
1.05326365929774
1.053171377499
1.03836030367521
1.02999965233806
1.03627127797976
1.05843241046174
1.04472193811042
1.01068759786067
1.00173991218673
1.00914727044229
1.03155992593049
1.03655482526923
0.988642126931179
1.00524133014826
1.02562090683663
0.991002583751315
0.997818180714602
1.00206526127787
0.945558517961143
0.96219967017766
0.96739537274351
0.971376890712214
0.954455621008688
0.945319012948914
0.953427235663436
0.957452280798598
0.938898135674176
0.938551944653096
0.929613884448161
0.927164523477887
0.941931611708186
0.935539380673975
0.928163460748967
0.910885361007542
0.90245960482758
0.918742609653732
0.899917345580243
0.881271494414315
0.903183774438346
0.915385947314286
0.884035968555412
0.896741954609993
0.879903182720621
0.880775131333621
0.878851672749297
0.88977229292969
0.879636890434225
0.854283114670032
0.869444461117595
0.872423733120435
0.851959989205045
0.848290340180627
0.832101273893882
0.818858742328093
0.822521048573692
0.814404003852836
0.831541011162147
0.822426834725512
0.803632864974251
0.800897663234051
0.795936070741353
0.800275780363762
0.816098761148171
0.818650456991091
0.788506998348632
0.784115377399241
0.775249018683024
0.778294666464993
0.781866539658868
0.777951766872595
0.763597151785065
0.755370556339464
0.759657576478229
0.765336139658416
0.766595091077508
0.756082319903999
0.757203711750822
0.734625000412054
0.724018027739436
0.728874942351517
0.732063366590067
0.712021883722704
0.705709848671106
0.729074998794552
0.714654981518173
0.700588178915831
0.717722358064253
0.70666178111263
0.691280537345146
0.695545347104674
0.7015111630907
0.700961815675451
0.69113246011144
0.703831746708664
0.709064346348215
0.686559651977549
0.671127342842493
0.670837346740753
0.676273376888054
0.669031036956945
0.662593307688808
0.649635579480539
0.653009244874663
0.647713090970266
0.644517624005286
0.637303718639985
0.628890514736416
0.627725028912862
0.637986178068906
0.625263583125838
0.631223048194553
0.625820784254985
0.619031324369281
0.618290399549561
0.619644879961449
0.613194805775832
0.621960225368817
0.620881704199948
0.597140250393338
0.597609670099363
0.602408796980618
0.594236962830996
0.60098556996736
0.595454725117259
0.583056931878867
0.581267576578887
0.577247136119524
0.584397938281279
0.580895631350194
0.572976009835238
0.568023931269827
0.554437227315625
0.553575608968878
0.55331106487867
0.568026054244752
0.560981383075119
0.554967573390932
0.55573489721609
0.543896959831322
0.545083312708183
0.54528717896947
0.534366109119756
0.544504210188833
0.533682991157269
0.536629321945533
0.538360379670481
0.528872712474647
0.514262447725767
0.527966488665952
0.530285942442298
0.515378798155175
0.506460452927497
0.510116992370923
0.513059632912081
0.512083323402725
0.506072968597482
0.505684766941718
0.498948434487828
0.507416970474524
0.497666261092589
0.489540469016352
0.499312439296102
0.496169166967522
0.487036937812541
0.492346251508162
0.48432031698526
0.485785745600417
0.483942684120423
0.481524107017087
0.480688766609942
0.48727908424652
0.471070480000466
0.476382700784999
0.473197789694654
0.465753881199003
0.476980172481673
0.477746762517811
0.474359517338811
0.478010695302973
0.46070769416623
0.458673034865718
0.464991709002236
0.469607464847461
0.462961831517157
0.467048591548532
0.456698738028289
0.467320341465844
0.460459850252225
0.466443282334847
0.471268761053689
0.459745390861694
0.460616521647119
0.469062954632901
0.467202943211872
0.469833968249086
0.464310269837164
0.470235077335088
0.466612506173775
0.465758985791901
0.464189614214248
0.470021941717676
0.471822913726369
0.472491217176072
0.472272383567582
0.470903772782808
0.476046653185924
0.488924447049058
0.483439063724451
0.496672921213262
0.48429668892488
0.480327094664427
0.489637810322477
0.488567037953247
0.478800533253616
0.488251537281829
0.492050305548807
0.504130782215707
0.497699943903133
0.491830223340755
0.506888537138142
0.500230803422005
0.503086643498107
0.515263375459562
0.497962739348514
0.508254206971676
0.514219511256354
0.520544114405723
0.5101305547544
0.517354301688827
0.529173190202623
0.522618260964581
0.520476728176591
0.529246082338172
0.524484733133297
0.536404384980927
0.542036630382665
0.539653145701853
0.55039624050483
0.555954708719849
0.536014349741149
0.558200578496783
0.560809768705708
0.563586614564776
0.567179932002254
0.580892655220051
0.578685617611133
0.580402235172044
0.579487010146116
0.590871771801747
0.581268934120467
0.581995518590601
0.593201524269613
0.595024327360611
0.572395122365723
0.582501857415166
0.596022245798479
0.595424261756907
0.596462788610228
0.602875958373708
0.595041719979375
0.589749782370434
0.580034314875661
0.599200852810089
0.588146620282868
0.581917378680261
0.578844491856589
0.59385555886101
0.592464370506624
0.58366228522988
0.571929082923019
0.582010228380264
0.577196835820356
0.59155467391593
0.592489396006277
0.594621191322821
0.58351785464224
0.583211641482365
0.574117391277636
0.586367467883889
0.575369392095336
0.576042236337256
0.57214724388989
0.58084975572794
0.584675357545281
0.587703213003959
0.581622507093897
0.57511374478901
0.580871986879543
0.588266295857398
0.580581851740913
0.594999969238201
0.584535508043936
0.594116817380304
0.597801908474844
0.600752009670746
0.587979074816529
0.592448151603437
0.593525332263301
0.583817595073468
0.582559776491653
0.588806707713992
0.579314858418779
0.588906297011705
0.581820094299796
0.587998559142193
0.582930814219888
0.587973902272989
0.58586238700581
0.580756075937496
0.582015528934618
0.575344450080217
0.575563268136091
0.578857925614151
0.554216466875458
0.574987085425617
0.570581584482751
0.560504238312858
0.562977651868379
0.55660589814377
0.553262319852244
0.559685301997797
0.562915429737254
0.557773355910635
0.54179006475355
0.537185567468674
0.537899695245646
0.548291871541175
0.529710417235231
0.532222936322159
0.519688481608651
0.517396528933951
0.511382730107054
0.513731900969946
0.510029974171033
0.507098122684745
0.507205378950645
0.504818883181989
0.495879091829084
0.496951783558343
0.483780891551535
0.481744893652338
0.480134655574905
0.48469456155458
0.478716797983289
0.484538468937462
0.47963965149176
0.47184981610387
0.466045167077309
0.463433678347571
0.45644947326734
0.463745619853468
0.456616034944257
0.457353095643233
0.443179185821893
0.454558094334237
0.441599303203603
0.442469208885001
0.445978099072999
0.444481068931976
0.437530885869683
0.441017960908286
0.435743388381023
0.437791904659524
0.430610725348388
0.431165213029597
0.41143369567461
0.426605341474881
0.434578138327966
0.42428092349748
0.416839309989245
0.424873125039519
0.414285305269326
0.404661294940744
0.403757204126329
0.418689793344978
0.412550133402258
0.416337083172142
0.406478987192198
0.404561245978513
0.403413489496346
0.402261906331359
0.395343704619578
0.398206716813641
0.393542267239263
0.403120175280882
0.392334582171093
0.39085172739374
0.388925260575895
0.391916977771193
0.383948953423384
0.395375636405641
0.385698087572643
0.387034290779018
0.383283585202914
0.383042935715956
0.376581168872057
0.382534946089772
0.374479911568282
0.383825745277537
0.382049072430605
0.37578445914573
0.368126891555458
0.370156908305348
0.370482762155017
0.374906528639105
0.37318642803171
0.375577022462065
0.370425709872591
0.368276284306544
0.360694020892234
0.37440059407835
0.366815427228289
0.363501285392333
0.361022013197645
0.364583463844819
0.360234216961253
0.361084276643835
0.356574768678207
0.362012228045629
0.355718108870515
0.360685492498562
0.353332750775864
0.351771594524047
0.35738209731353
0.361455292809992
0.348720494110704
0.346398513442194
0.346981350967381
0.348401980931429
0.348639346853005
0.356863216597888
0.342665128387616
0.348529477837499
0.345885997044401
0.349464750843958
0.344160860227542
0.34354971670183
0.335243872079985
0.348988642176988
0.345602978519702
0.33880275517363
0.338079223170853
0.344486510112611
0.332548574877745
0.334242593015193
0.335216528016862
0.342075560426461
0.332215843278991
0.339643616567362
0.333394477823166
0.336229983859344
0.332015563563516
0.336127848295106
0.330643706784863
0.340750990705389
0.329174959209842
0.334014982723868
0.329575098216685
0.329712218759293
0.329051829694667
0.334243043548101
0.329576329127239
0.329721452030592
0.32987641538218
0.337544881155199
0.322211418367297
0.326531285804201
0.329075132879867
0.329911745327736
0.33219401649157
0.328183309018745
0.320933811025548
0.333147422920471
0.323712662776931
0.324437210165899
0.330354076535508
0.332505004626119
0.323148773702206
0.325558031010783
0.320842859305049
0.318852577369403
0.316803567840823
0.322253874843296
0.323020346502134
0.322256243640732
0.313525441549512
0.321471226745302
0.317904701633987
0.321411019063461
0.31915855460373
0.319360585179156
0.31210821531261
0.31361251391646
0.314146971278093
0.319546614702908
0.308215870081443
0.317165496912278
0.312674844384201
0.310471760646639
0.30803358811039
0.3118380992823
0.311874441493602
0.313721735084298
0.306589527394239
0.317887559915782
0.305474667037279
0.309058906645321
0.304219547302442
0.302547539670482
0.299137775030138
0.304109441319303
0.302890525443424
0.306708059853823
0.29554336110623
0.302065382323824
0.298835926388887
0.305376475370419
0.296481781470258
0.303713030628136
0.299648875575585
0.296462483929066
0.295095000231743
0.295440227564007
0.294924753757482
0.297667780177023
0.291877949556833
0.296708751161855
0.290801761318375
0.289381516601619
0.288136588742933
0.291560306722417
0.290384342083972
0.298228894602368
0.291626691695745
0.290554604386006
0.285683783400431
0.288344071730649
0.285144389008115
0.282930895658961
0.28554508415574
0.287313540720796
0.282532018360679
0.285674835605546
0.279182215669926
0.282146439612254
0.27973119229637
0.282501061811892
0.276945576520475
0.277934707016399
0.273187285758736
0.276487736300813
0.276998389376722
0.277174169385726
0.270921271434419
0.274968917668885
0.267557546915477
0.275609360977795
0.270182324375218
0.268058911354369
0.262920981478438
0.26604099904285
0.267524288554058
0.267292360726235
0.260346624571801
0.269380090553782
0.262471940714898
0.271577576565142
0.256862427322645
0.258185252188863
0.258509408378707
0.25950017081663
0.255477668632568
0.258927541941783
0.254087741953838
0.260670338213943
0.257510050922456
0.257184857194073
0.246854312313509
0.252421750463491
0.252051606156776
0.259940196468677
0.247691252821781
0.253410668645264
0.251714158157612
0.250018632275934
0.249355621036123
0.253129097097175
0.249961483489183
0.249550237544385
0.244999564626244
0.253838713589961
0.245272462837476
0.24787132810745
0.24121912387657
0.248536729431219
0.240296335837542
0.246256620461952
0.243934133446452
0.237541828860817
0.233189652309377
0.242642374588307
0.237086179626636
0.241856024628807
0.231863893442587
0.242128797363147
0.237844004767015
0.240675741239581
0.233666494746365
0.242092024813418
0.231555659442165
0.237853960843975
0.233366990269405
0.235921064877815
0.23167408294615
0.235642714628694
0.233702640921472
0.23013839257566
0.22995249501455
0.232680899352605
0.225031506096384
0.231653513113332
0.22493764748577
0.231163402932806
0.227478604908778
0.230116591179854
0.226043694084552
0.227059566075327
0.223023939291911
0.227346095875267
0.220212262245716
0.229287625329262
0.222769930567154
0.22845927895292
0.223644926263076
0.226995646429372
0.22119051678587
0.225757953688997
0.219158974716319
0.222076835972638
0.218264169023221
0.224927816417392
0.21946389667966
0.223824210911366
0.219871335212728
0.222868314454924
0.218938387835931
0.222123807341223
0.216594176412083
0.217865017520136
0.21544584342087
0.222368293015898
0.214459984050705
0.21797101245804
0.219747284957501
0.221831030657807
0.214678391196281
0.219526582121547
0.216434136499363
0.219917964294614
0.207950641244746
0.216692697637824
0.215069668443213
0.216628030607331
0.21545910212306
0.218238889844261
0.212823624977142
0.215895593131758
0.208293096381628
0.217158900736667
0.211862462106378
0.211126434163183
0.211909477491301
0.213714186345775
0.209553396907374
0.213747908191322
0.207173356091749
0.210918759497368
0.212216441930104
0.213518160723165
0.206814070625504
0.21105820194379
0.208706224129057
0.212737111409297
0.206071954087378
0.20863847980475
0.202249123145851
0.205920562921471
0.202221611739844
0.208992028769623
0.203174417430588
0.207059325905498
0.200352868767684
0.206821819520209
0.200141746544088
0.203170441792526
0.203421095756826
0.206243618615438
0.203068228416948
0.20384327387896
0.197063268516991
0.202234307820735
0.197294762459367
0.20296554179403
0.196879187051524
0.199969926465153
0.199670799055455
0.203424967597488
0.199297514387936
0.201158177163071
0.195622819824932
0.201003943913468
0.199351567729391
0.204355372402714
0.197008402583555
0.200889455201097
0.195542719390941
0.196346983935032
0.193811421430414
0.197004724590268
0.192898704338748
0.200134744250198
0.193729982561814
0.194117140686392
0.193240146400166
0.193380257255269
0.192939953077222
0.196987283997229
0.189746726716585
0.196392786723881
0.188886117598491
0.190203527639338
0.19095321865172
0.191616588927088
0.189877040846961
0.191173423353566
0.189613825432943
0.192258756080391
0.183840753594946
0.190372328832302
0.185274310806498
0.189020708930993
0.182811722081729
0.184991279648124
0.182042886201023
0.186637623190132
0.183453132242646
0.188503662471387
0.182879479248438
0.187056522709543
0.181446107391772
0.18316205724947
0.179104074980603
0.183500681708084
0.178863779792152
0.180942945026338
0.1796667139194
0.178920037653005
0.171496409257448
0.180126926498395
0.175277116456467
0.177745115235857
0.172265360633852
0.178341974681928
0.172982727391837
0.175370014047375
0.174196011051429
0.178726023821519
0.168691557575798
0.173259075976498
0.171213399517562
0.175363451164444
0.173480380863852
0.171573433011106
0.169671920569967
0.176379170004586
0.169423944185668
0.172390725282527
0.168405933663086
0.175386505439588
0.165317461086521
0.166887364768257
0.163113317730792
0.170691779882626
0.164215652498987
0.166880771229844
0.162171875830431
0.168392754111524
0.164315160998888
0.17091764702589
0.161415679524863
0.166183381059562
0.160658844958116
0.166040794063454
0.160053483056754
0.16440927475401
0.156311193103314
0.163871354083711
0.15640619291111
0.159225683141545
0.155766810349703
0.159329817054038
0.155825920618892
0.162469160341372
0.154003129454496
0.157373625244306
0.156297962996725
0.158435687691558
0.152568240332612
0.158229320509476
0.15453630158324
0.158349007984968
0.150545539741936
0.158717358547226
0.150039623158735
0.156824798880228
0.152579927561597
0.155629863653199
0.147564700969711
0.151563010047654
0.147900689716822
0.153218515624108
0.147466024742105
0.151030906920595
0.147909479594342
0.150375237230095
0.147792720712703
0.150069191487035
0.145870605707065
0.150520577270148
0.146704780719489
0.152051988845116
0.14523646729068
0.152201818241823
0.1434464475999
0.151831695513227
0.145132067928903
0.148760789916199
0.145055375036619
0.15131030276139
0.144476555973916
0.148413016925432
0.145571627983474
0.146100032272246
0.142818686318852
0.153550933985008
0.148681659185756
0.151056313104286
0.143362861569235
0.14888326897588
0.1455798270211
0.150395329336192
0.138606915947793
0.15505678428222
0.144103869559756
0.152861171722632
0.14640708094928
0.149586837208233
0.133331666899852
0.148936125735139
0.141504628397685
0.157073187613477
0.136912813218728
0.149873569488619
0.141795765104212
0.145247138215424
0.137121850244212
0.149815933443368
0.133045185829619
0.154684699429787
0.133241700371741
0.157836202526504
0.131775572084416
0.151536506882905
0.141784404498039
0.150630529673251
0.140277086548642
0.148599436115899
0.129189975290668
0.142329747868246
0.130017737836109
0.141584615762928
0.12174652023168
0.148683040781765
0.121504649451891
0.144270073279699
0.125159772549764
0.15079813142867
0.12558082499017
0.150055817978278
0.123857388415619
0.158762692697332
0.131432752750451
0.161687855406346
0.122633057364514
0.156518013992759
0.111211638616717
0.155195848096226
0.118417078642148
0.172938525848302
0.121092839616623
0.157387259151715
0.108810863652839
0.16519921113677
0.124064014991599
0.163323224925323
0.116490610441392
0.156739820086571
0.128270051056905
0.144792987981225
0.129836516525514
0.143612138901909
0.141651934033161
0.125993792874949
0.149982733703787
0.129063709548643
0.148725067016404
0.124080726412242
0.149007395177688
0.126173673260524
0.146308845545755
0.131446645196721
0.134842151087559
0.135183809925083
0.132384748845944
0.133874295384461
0.127710547462254
0.135662719253384
0.131472343102979
0.131450672503741
0.130128161139297
0.130448177109906
0.132402346657872
0.131612620704716
0.131257817377495
0.129429780566659
0.130237739494256
0.132228040600508
0.132206972224874
0.1288423805627
0.128250409809763
0.130088734285914
0.128506410820181
0.132081911413693
0.132424864984703
0.129401121016182
0.129821338354955
0.129827479855559
0.129396522344722
0.130097244622859
0.127752996385078
0.129768476160264
0.129168509237922
0.127367223211512
0.126991550393216
0.130047216983842
0.128322488648814
0.133127253810565
0.131854269943041
0.131358562115932
0.129143679548208
0.133006093651483
0.125596528244033
0.13094505606336
0.130613320318928
0.129554328839928
0.129171302086257
0.128069894419049
0.131829772849224
0.130995067783379
0.130851110275487
0.13092926608184
0.12866404923585
0.129833975417731
0.127587340705883
0.128744555393105
0.128379394185089
0.12872930818964
0.126587840274685
0.130214036816292
0.128161377992661
0.129302686788207
0.127084909672349
0.128859819600066
0.126643997931681
0.130476104964436
0.128823068011294
0.12724362455018
0.127037248415833
0.132829049743112
0.129414705883048
0.130917767658028
0.128211883564402
0.131825935706901
0.128697488614716
0.129657741040304
0.127437183555424
0.134136403763944
0.129041313882313
0.131400683557195
0.128931434171701
0.126340063210802
0.127768270344902
0.131821729266767
0.126875449256197
0.131983382920141
0.130956343238154
0.132354390310925
0.129881357814022
0.129111144728833
0.128446318505429
0.131689635363132
0.129268240631379
0.135574314430356
0.126867332215076
0.13058323043558
0.129347541600174
0.131043352072105
0.132631379080438
0.132262025855822
0.127356500014804
0.132406561929587
0.131324085026169
0.131685133638742
0.130587042501317
0.133935325640663
0.13255243639636
0.136016550770744
0.130024406785254
0.134111785547282
0.133719907698829
0.135517350872486
0.134362901263398
0.132752949925089
0.132229534041454
0.134695514030061
0.132808262619407
0.133206403386474
0.130525478162189
0.133836806278125
0.130809442822395
0.134403441901001
0.130665301101813
0.133181504020509
0.133407809887268
0.131498417347576
0.130155990871209
0.134254244099081
0.133346227117353
0.137066904414476
0.129991788890221
0.136796175109833
0.133176986497436
0.133317243286701
0.134067146395932
0.135153525228912
0.133237474419285
0.135527824062424
0.131505543508623
0.134988943668172
0.133057840134471
0.133061279406571
0.133277985663583
0.138810743607748
0.131346692898228
0.134002400325943
0.134153038699117
0.138252190130757
0.132443245147391
0.136992860710564
0.13441876130125
0.13730116357534
0.134285751889178
0.13939218890125
0.134028064543948
0.136377066400576
0.135747275406734
0.139238655162784
0.139107440502648
0.138502147998675
0.136396477109176
0.136923109643794
0.138135993942783
0.139449567039996
0.134600630309622
0.140340543948425
0.137150141450362
0.138489892407433
0.136667713602001
0.142520300742775
0.135720412997465
0.136811424331619
0.135801208729466
0.140275237362903
0.135820621419277
0.137336769854626
0.136990172838416
0.139002883038498
0.136895811303852
0.137624859333001
0.133908963915712
0.139581644208211
0.134093251112055
0.13706981484794
0.135017781678475
0.140171725000869
0.133661772280598
0.138866271401551
0.133522716964955
0.140937815505212
0.133392756767792
0.135073344129337
0.132714071594599
0.134394493893397
0.135251955461623
0.133774022609207
0.13097707598049
0.134284788443132
0.12717213072338
0.134133556638757
0.133632656706998
0.13451014651899
0.130281718738957
0.132709811674173
0.132524400926569
0.131674145987351
0.13020127840291
0.134132139808588
0.1329423926015
0.13342547505821
0.131154470300461
0.13664354226286
0.130003147767479
0.134982039775681
0.130283226328864
0.132393018153802
0.130689248395825
0.133532727769495
0.129725599219174
0.128926608819327
0.129377580036141
0.131901530711881
0.12795704339442
0.132960390024599
0.125448698625991
0.135070253160519
0.129706989856638
0.131209591158333
0.129523331210266
0.131996937714805
0.127331956212984
0.131208072655479
0.124246705297378
0.130056290370275
0.127199654082122
0.131878595861272
0.128753929392859
0.130673239340932
0.128315352553226
0.129845843780481
0.126243919534046
0.130454871116389
0.122945698939617
0.125382763809972
0.124157212601253
0.12940186913315
0.125023623656447
0.128130187063213
0.125803623331646
0.130699398853873
0.123335343177553
0.129865368275404
0.126046867851138
0.129798402761684
0.12465435730187
0.128627322120014
0.122705923197782
0.127375933264257
0.123365577286226
0.128256518176074
0.124062736676192
0.124658075524015
0.124239549878658
0.128215267798967
0.123096635104512
0.127554184445174
0.124895938497985
0.126994369645628
0.122772336754402
0.125034393456013
0.120852315868215
0.123578139234211
0.123176909417499
0.1205387649497
0.121746307511084
0.126059975844168
0.122794293138763
0.12503609200729
0.119717387124885
0.123331556387702
0.124639754316752
0.12228798100429
0.11764706730736
0.126886025127126
0.119582856545276
0.119870053732708
0.117698945923534
0.119388382214428
0.12319177153877
0.121768640793103
0.117895441034824
0.121550152341608
0.117078841954954
0.121070502644216
0.115746028663387
0.118664138262213
0.11769948069186
0.117594473318545
0.115250265672338
0.118507922191214
0.116482845062719
0.118457157077128
0.114673130514601
0.119342654614171
0.112597974033177
0.11362835158196
0.111644113601331
0.113760048270337
0.113914466046578
0.117554284668487
0.110774300151814
0.114215010000036
0.111150559007111
0.114051344660888
0.11593842999707
0.114998873545389
0.112008571791971
0.113863259234317
0.10528365063625
0.110694988246189
0.107269190192996
0.111294087434156
0.108346390840955
0.110332879618142
0.107204803720935
0.108501404417503
0.104951323249235
0.108824973761892
0.106224331949823
0.108881609213527
0.105341444218698
0.106954826612505
0.102277422620224
0.108463948664514
0.104977338942005
0.106645454477947
0.102905408723992
0.106522700766779
0.104671084611542
0.102642527745983
0.100135526910399
0.111814668786077
0.102090225136027
0.107268172693554
0.101225710081112
0.108263676965345
0.0979417204014694
0.106488315927998
0.0984640427486849
0.104110602834764
0.0995591439801718
0.104563361979413
0.100137938533598
0.102960216834355
0.100131536014331
0.0999727625566601
0.101874611394123
0.104552875883488
0.0993347437726359
0.100406168324007
0.0985692491732646
0.101041387822069
0.0998113699434302
0.100696321576988
0.0980798349981674
0.104381868931106
0.0955722498868246
0.105148438758779
0.0939817916656561
0.0993263042397697
0.0973315785689905
0.0987604406936698
0.0948702651591134
0.0972701556299502
0.0953066613897134
0.0971229047448555
0.0959765874363849
0.0994851960769944
0.0952430740648448
0.0967994092116851
0.0930343194691302
0.101286187685308
0.0932404570075684
0.095076466954618
0.0920788138466208
0.0968535429666777
0.0921064086168551
0.0982195670215676
0.0911183383288384
0.0958000415113069
0.0902507885434822
0.0979782502738065
0.0921153669650809
0.0916264877543191
0.109171458631939
0.0939790549399966
0.0947043383152038
0.0897865739933017
0.090582082444972
0.0929820554078747
0.0906292556907216
0.0929714434788135
0.0905238834704046
0.0909462544113189
0.092570436129286
0.0911907814072532
0.0909156695266723
0.0910067549088129
0.0893247921445561
0.0928270836906857
0.0913652388546599
0.0929802915442587
0.0906863101870877
0.0898941552997424
0.0891177577980205
0.0978810900269726
0.0925336221135246
0.0887270619915023
0.0951952179037269
0.0814709685118629
0.0980365301543828
0.0986023758397071
0.0880587332797545
0.095331911107125
0.085315258842705
0.0903847679079573
0.0866371505882745
0.0916468695487254
0.0839775262531098
0.100273429052866
0.0823865556604024
0.0954467517336999
0.089432215451587
0.0915571309100304
0.0825024815279695
0.0937300627799478
0.0848743452710283
0.0890912982833413
0.0879949580304334
0.0901178609751869
0.0881042896766969
0.0872020650924614
0.0906096284540401
0.0909595741184934
0.0822813361343274
0.0977581342298143
0.086886612467942
0.093383279325776
0.0875373130454066
0.0877762915068504
0.0788353279963177
0.108878356743592
0.0817362720218537
0.0920269289475912
0.0820528720882225
0.0922049088444224
0.0844122710475979
0.0923949992843343
0.084419859884748
0.0904091934517749
0.0856698755241809
0.0885338715236997
0.0847008727908041
0.089983633252657
0.0852666178017979
0.0908079511441554
0.0835079265100607
0.0870069455081371
0.0875423080801578
0.0886531833545684
0.0893418019432876
0.0838680472078523
0.0844821281496938
0.105170463119384
0.0854704542144157
0.0958653878586417
0.0843049971026907
0.0932443378057402
0.0805533110480807
0.092252544111519
0.0790962717918693
0.0925716327945116
0.0808101334338662
0.0913812941272413
0.0812010691816106
0.0894591940926425
0.0818228525891591
0.0897637484693515
0.0797844069401333
0.0931179318862854
0.0797398948704597
0.0922845226090028
0.0802664024369703
0.0951686578185388
0.0776026875057158
0.0979831906219324
0.0838841616351971
0.0983311442106549
0.0667805795570439
0.102237285557787
0.112273541957095
0.0814206610515673
0.0989196310952184
0.0838922621984201
0.0879628588085635
0.0842015881580239
0.0857277286169622
0.0922719327309249
0.0897109735125689
0.0872042149953442
0.0894191360022817
0.0855467823372508
0.0904653064635947
0.0823430768301877
0.0787372475124861
0.112487367897453
0.0905620052142126
0.0924231194151411
0.0906978142945185
0.0797444746765549
0.1106574206557
0.0876025576034406
0.0900541881957754
0.0930024231273062
0.0850840547956484
0.0889820388305944
0.0884385506593376
0.0865999895893576
0.0857999232651097
0.095075679558052
0.0828249546615019
0.0942060385362779
0.08158242631452
0.0940584257423223
0.0871769716611259
0.0970955789121054
0.100142777664608
0.0882879560837911
0.0902618145559599
0.0965319005918895
0.0888458535514314
0.094141882416117
0.0909726094508519
0.095511989528885
0.0920688396920799
0.108087323372242
0.0822252662127249
0.101002549418497
0.100102812202977
0.0881710612282964
0.0943709783901475
0.0952261238027695
0.100379077956234
0.0908691510511097
0.0757742212174985
0.127908405517539
0.0804517502249161
0.123823570353092
0.0834750497413031
0.10720248351195
0.0865904433705941
0.106962333928934
0.0785365533254434
0.113566895988593
0.0939137692834531
0.0995251005165852
0.0911121476595648
0.105051243956273
0.107785392374447
0.0984613237495265
0.101977215088712
0.0998778707356406
0.0989824323539079
0.100989182155487
0.108613972828586
0.0790335407697611
0.116993111268423
0.116976536112485
0.111437087230399
0.119610478969084
0.0791683784433833
0.141499687981833
0.101078357037718
0.10847383253845
0.0998066867552684
0.106260657880566
0.106096535976939
0.0907255709820361
0.127247877061162
0.117012042992687
0.0989940416518523
0.120986494891006
0.0893308571105931
0.125129496380324
0.116071077653487
0.111935928933099
0.104710326928696
0.121761059769105
0.0897160831441466
0.135729291956546
0.129659655293115
0.102258360104925
0.146407928499436
0.115126613347943
0.131384963399655
0.118162611393815
0.123461770922483
0.118028198968465
0.139960668366777
0.126462597938961
0.115953745372849
0.118443146930771
0.160959806690368
0.114977179143659
0.139097929706698
0.126454648542205
0.116082689066342
0.143477845232775
0.180067830387294
0.155780348929576
0.146252536602444
0.128406084158705
0.161352640660492
0.143194331345478
0.14113804950768
0.144534950676064
0.141678894976205
0.148502504863177
0.145951233471043
0.15774059340804
0.154939907631252
0.153767624374191
0.159333750286391
0.144056605974124
0.165610456742411
0.172996814817632
0.211441909713614
0.150477518516083
0.201059212965861
0.183703331627164
0.171794036866048
0.174176413564801
0.161746326533532
0.189658150043105
0.176461712004175
0.181618459333352
0.168068578546085
0.19665775796945
0.202391019512052
0.167744775141239
0.224082306644887
0.18600974175232
0.209641133682901
0.128632464770236
0.376006469483656
0.226444120917983
0.2194963440996
0.233497227349412
0.176113627257924
0.312014150996824
0.238574300702846
0.241191271139829
0.241704728815024
0.248984845863584
0.258105072609098
0.270550660936093
0.265729507610761
0.281666653998908
0.289518045330942
0.275378706544602
0.276634271935806
0.364109476685022
0.329762043867107
0.351409497463486
0.314046956147313
0.34605345468921
0.35143034335651
0.354976026570696
0.348568505930066
0.364252394246436
0.32028089930584
0.464370736349115
0.375405288803432
0.413078111332317
0.374083227063556
0.455307521340564
0.38790174745789
0.453815163378085
0.471731070528068
0.44120375034114
0.460283022912625
0.447849758534445
0.472705348797837
0.439039128376859
0.502449908089563
0.509984140132383
0.484764797939465
0.499692077974517
0.502396329430432
0.519731238567896
0.508987398877339
0.540250889564583
0.505264687525445
0.559354173734239
0.514447499651368
0.711346091800519
0.598898727146078
0.536985799003872
0.558766336340582
0.541244579918652
0.595731512189165
0.563627138790742
0.552094679400266
0.613983728033489
0.548772646262976
0.577010548564066
0.548561426413395
0.581333166435831
0.55705530682037
0.582925939795867
0.551787994678804
0.582494545937688
0.562891668659714
0.509370963778456
0.665656829140749
0.555027012409269
0.569526519593776
0.563979882582276
0.577148433560758
0.562965669901605
0.577368753084052
0.545479446058736
0.589246586477303
0.542977571098831
0.563562580387984
0.539336043919346
0.5493830242639
0.584609250193839
0.525128587703959
0.534940588833604
0.529236440327801
0.53014281566744
0.517237354856266
0.498425376900754
0.600090872837529
0.514981672286951
0.506167280673145
0.504705446637684
0.490967458735196
0.509899019903106
0.497642445885409
0.488052721558126
0.495777213961106
0.480039443719932
0.485828143581816
0.476415472647504
0.482912181464564
0.476349660482893
0.471345035011523
0.478510710184814
0.470340372437788
0.474629193922518
0.463748140226315
0.467895341549668
0.463119585828628
0.463765342023913
0.468104722832696
0.465303359847667
0.469163269604009
0.463752075369764
0.463156749159363
0.466806631518641
0.459052925124843
0.464537614802121
0.455710761653521
0.457219761141291
0.448427576112373
0.458604344605963
0.450732410402867
0.456129687843863
0.453386433891953
0.449520849675126
0.443809700173133
0.456839153915262
0.431423967508515
0.456414126673379
0.417581622633075
0.475793135077445
0.484885566016312
0.421672424272765
0.447778289488679
0.423213205610518
0.443665484134899
0.399297965483447
0.460083716465863
0.463452409453677
0.426640184452028
0.429043909547908
0.407541973293337
0.414422760344672
0.436242613658738
0.401092742942213
0.418851252586748
0.385851373416238
0.395596427936148
0.49739869253878
0.36633352550653
0.494344315543298
0.405831202917003
0.402251918873788
0.362553139476867
0.45088157664019
0.375587953959502
0.395835808228058
0.368960203930913
0.405029568047369
0.399237828114697
0.367890610003933
0.390109003590046
0.365848950655182
0.37377021501443
0.401336509077642
0.367533419725348
0.352243915555334
0.405618783207411
0.357014492933379
0.382739110300236
0.402332208054333
0.390044456301469
0.351815324001554
0.347564030121992
0.350540056402985
0.321170395405636
0.4052801144596
0.349755511214635
0.3439682511073
0.338455290171188
0.317947049100963
0.335961722759221
0.328600852874344
0.348596236670604
0.300512842201737
0.377485624214862
0.312224735736717
0.326290006041877
0.329507227474557
0.319506999593534
0.363155126763845
0.317997037747559
0.305058459082787
0.295063692988942
0.36095703733586
0.30331160046726
0.326811389880678
0.300052438915294
0.293432660657489
0.322345754460896
0.298034226608016
0.290298350733529
0.316900671775465
0.27805912737008
0.33461584558676
0.318418638444892
0.340428420957475
0.308125463364181
0.279703763726217
0.292861987931929
0.285381501716783
0.297484554148677
0.27908049754714
0.283414552759589
0.322291556233864
0.254596278254358
0.35577611820322
0.304953463584547
0.294857092037843
0.297433366610158
0.295277563423064
0.294387512022993
0.318672259303702
0.325910704330898
0.335728680623268
0.299180657080341
0.351736711799357
0.309918573386505
0.334895104677408
0.317021260865046
0.341063549447046
0.329015668314052
0.34785284315365
0.343648681921861
0.355049595254966
0.353918494691143
0.372137611692949
0.345144373431086
0.427977681537588
0.357239427936961
0.416629992511075
0.393732171288626
0.441572251988114
0.436019715843376
0.412676121996456
0.432977216090179
0.428088871319955
0.437718921780872
0.445703418096951
0.428455331973782
0.50434500485249
0.445911025097345
0.472222099320168
0.4566483875767
0.478998299565521
0.461088551748155
0.494081952122893
0.49918137528738
0.490303574597427
0.56897555417293
0.498773536371949
0.515851320609976
0.484058810075626
0.51058177560889
0.504031568042715
0.495996715539532
0.50334688616851
0.492261222867795
0.53703054977615
0.528453605400338
0.517111026584442
0.524094286738503
0.517208042148862
0.5193013566916
0.527897884718526
0.529066553049843
0.542248173489476
0.53357188436571
0.548569522702811
0.50540808968747
0.623272297693559
0.573350766363289
0.55392389523099
0.572112454057258
0.551575274394543
0.576340423428654
0.558475545608312
0.581657910913249
0.595505189308459
0.579834622913476
0.591010446838054
0.582196742108161
0.600053627199301
0.580827794556896
0.62992231731429
0.606059948230567
0.613814538602812
0.604822507229128
0.576792316681526
0.687170742789095
0.612613157339199
0.651349466220822
0.62472253035171
0.6349178166213
0.623025535696149
0.630554862627766
0.620281625642785
0.636762695485699
0.634651812992668
0.63645737747695
0.638714470971649
0.631775342192485
0.638473965999324
0.626436314948253
0.650348727203585
0.644716885027494
0.629077870261298
0.641916177929671
0.634040567256395
0.627067775506665
0.645676769854509
0.649986625878836
0.622485246175773
0.642910233162803
0.618586147218361
0.643213894122819
0.645387675932106
0.629674923159788
0.627962785259615
0.634099304349204
0.630382490413027
0.641657888422021
0.629524042369772
0.677521452318657
0.645642550667476
0.650301161805455
0.642927628347026
0.659741706926258
0.650706340421513
0.661584819446795
0.658796940789343
0.667893322927146
0.661057713627166
0.669345329279458
0.672427055171065
0.678154068912403
0.687224280624684
0.687379039526431
0.689245360620168
0.673727208681549
0.666783197834735
0.669627595724951
0.663546050525253
0.678975344080484
0.664241004951718
0.668587588371887
0.645234780966781
0.655548960589185
0.625708181948248
0.668009613368138
0.644685497833492
0.630195753533078
0.641051375034395
0.616064407935798
0.631837041058002
0.612358236367293
0.609647817599413
0.611537205216605
0.619402573090047
0.605869702688262
0.602413461914781
0.601804912386393
0.600902023854518
0.599182563968973
0.605528082555113
0.604680151911524
0.595363457876821
0.596180378556727
0.595470612375159
0.597505636322978
0.588814580794446
0.598477061066305
0.592484445364054
0.592016468590317
0.601450660326044
0.592777118829911
0.600639602448596
0.586576507690388
0.601822139403421
0.580302292750444
0.591088647584596
0.586434906206822
0.591144179892221
0.591073519370966
0.58670384690856
0.585027515210041
0.588603342771141
0.584267660961864
0.590999828398547
0.586994102467256
0.585634921657834
0.586270712410929
0.58887413467811
0.584402537923254
0.586223922065714
0.585717734493389
0.589061637405967
0.586009600842466
0.581705370247242
0.59116746656849
0.584013901329906
0.58371578202425
0.584906698304639
0.587117176181031
0.583543186630821
0.580182706230335
0.584672152633024
0.582516206785335
0.587893712760675
0.577457605880129
0.579786752625771
0.579382598214792
0.57317472622481
0.576482850123713
0.57233122556953
0.570926257506109
0.56477127084417
0.560299154283224
0.55802790680868
0.553018502104723
0.553973862876583
0.547901700879201
0.545034973761001
0.5389986598537
0.535752044983289
0.532742784295989
0.525606965569702
0.527183961535669
0.527568826811918
0.516912690629025
0.512572930953932
0.514671625910525
0.51573844511941
0.513841913708136
0.515928732675273
0.515581129541677
0.508373505688611
0.510093707553152
0.510831701426343
0.510133622550341
0.515741851072115
0.51649113285616
0.515462102901437
0.512795774972057
0.516526060629998
0.519682355219893
0.514980166593214
0.521374745377393
0.520474677157718
0.52315594146485
0.525046193550454
0.526118818971943
0.527643803280717
0.533261531818609
0.529894046751201
0.532680716010988
0.536931654799252
0.536920520876819
0.539434783998038
0.538128768884395
0.540136181884611
0.5385112504795
0.539007923559646
0.540647457526007
0.542491849827252
0.540570058829728
0.541825186410461
0.53445989292396
0.539223548635113
0.535285478027751
0.531171610009797
0.533716675181182
0.534999586838705
0.529467396286124
0.533673776315766
0.527074405118983
0.526779896056825
0.525650604946627
0.522569391748553
0.51795889726878
0.517112398332193
0.519250266639566
0.517451465256688
0.516403172062251
0.511270948819421
0.509586364539824
0.50903756939724
0.505206736182948
0.50652057432289
0.505201968054588
0.504427842120459
0.500344603050853
0.500327623934634
0.499473322817333
0.499687043183791
0.49688395704757
0.496527138155055
0.492635690675401
0.49240364761851
0.491936600629499
0.490226417150875
0.48757181612264
0.486888636614022
0.483520717115055
0.478714460950435
0.47735177544977
0.477821915783376
0.474935370375595
0.472160777246378
0.466489999536819
0.461134090099404
0.45835591968327
0.455747511319982
0.45320764369966
0.449624242161813
0.444828904771565
0.443319015886692
0.441787441883928
0.439001780754197
0.43630763716311
0.439026332535388
0.437597206217207
0.436026877078448
0.437357944141531
0.438720380563701
0.435622146444227
0.431865845525191
0.429417349193239
0.425048395374084
0.42091179740511
0.414154038826731
0.411342033533755
0.40700713388881
0.403710355266889
0.39915677663614
0.390661708777186
0.389423668783055
0.383087356290687
0.382376962340132
0.380970095885111
0.380447743138256
0.384180106377983
0.385229785941343
0.390051143756435
0.395977702094225
0.403532462776405
0.416079479453407
0.428573536869533
0.438892682556862
0.450939024085295
0.468441018148305
0.480659895825721
0.497159350144562
0.513715605692759
0.530355854002234
0.548909864232568
0.57093885816357
0.584595915158406
0.600894895118898
0.614555374415385
0.629022054126977
0.650697925881279
0.660700728330764
0.678247349052917
0.696540968045294
0.708563805604261
0.721430335820569
0.734126689130637
0.747168686326323
0.759325535794644
0.769488190908387
0.783365996361134
0.782833050794781
0.789357768463276
0.805402532906978
0.808152866635752
0.814027680005042
0.816471695739549
0.821694024126021
0.829004342375983
0.824733394752061
0.821257326193519
0.820243754321983
0.820360841165185
0.827291794501657
0.828236026511661
0.82690763622843
0.823606354833789
0.831532977123233
0.836944479451473
0.832192662144275
0.840663506912845
0.847261335801713
0.847002914626057
0.85361476084504
0.86717533512225
0.863325297418701
0.869406037985858
0.883279918335272
0.884459843642983
0.892171505025837
0.903279088664815
0.911918138544453
0.914631779286704
0.931504265922479
0.952547435266362
0.960584164387569
0.978232571306171
0.986877160855388
1.00445806872186
1.00804929990602
1.0086472467424
1.02883481062723
1.02332654304071
1.03506442640183
1.04752904041856
1.04263620782072
1.04636493909026
1.04911375628456
1.0235379961147
1.02624317827581
1.02402624240573
1.02242856569582
1.02841219743223
1.01055232357729
1.01874757682879
1.01795941500476
1.02144996012104
1.03892182590469
1.04366156197935
1.05067505300064
1.08340243091979
1.08842101836843
1.0972688087303
1.11459140448857
1.13010835036132
1.14739219020316
1.16650878595356
1.18348560738286
1.1816634802473
1.20250273552829
1.21601811720968
1.21155694316964
1.24802646832747
1.26430699466211
1.30997030172329
1.3002738910013
1.30271063666844
1.3563078042978
1.35437067322211
1.39356608165309
1.41251857323397
1.39965542545168
1.44975314096892
1.50828555832597
1.49345690655812
1.52949275954846
1.55230988054441
1.56953034905023
1.62800529989685
1.62809592977904
1.61506827991276
1.62256300730814
1.68120246838788
1.68788990452609
1.69438410993965
1.64886758052309
1.64562896302237
1.67890193374007
1.68933041907388
1.69354931334299
1.69361235896726
1.72620785860584
1.67683074094488
1.67832738131287
1.63696599396671
1.66958779077128
1.69331210788184
1.61818285393039
1.66630778887253
1.68688184065743
1.67328521291653
1.69962460795558
1.74482573139897
1.67694498506276
1.68318215458733
1.80405012669343
1.8195038926747
1.79155344053676
1.83832419125157
1.76036156628179
1.85125556150591
1.94797738803802
1.80578949653477
1.89705681449813
2.02036680132012
1.91493707239888
1.92035276938949
2.01243356661222
1.88650394303952
1.88032911431692
2.06488916175222
1.94680088017056
1.92773711145505
1.97914497501624
1.94979595278474
2.05227956783489
2.01094147711287
1.95446681475162
2.09658088543828
2.20355069382295
2.15890328598073
2.00643193040428
2.0005592030811
2.27295760444001
2.65630161953082
2.1050509178044
2.02284368799077
2.17972994660403
2.01547247567898
1.93425728884572
1.95953647540579
2.19699681317226
2.24539376561147
2.13802157690655
2.11215446426124
2.03845779908376
1.92527242999339
1.86230504635354
1.89475431479434
1.83040664839088
1.69407826685113
1.65523901748421
1.66175842719117
1.57770504279758
1.60357284076674
1.61521396144757
1.58594789718939
1.56894310609095
1.55686179433147
1.57372203421845
1.55065494959721
1.55909267261555
1.5447120728124
1.47498314413865
1.45670291508621
1.47598630697799
1.48562834030524
1.46339061004305
1.44724724836138
1.45119185581955
1.40410550896986
1.3918034243432
1.40576500162552
1.40154185022557
1.36743960195816
1.35163582481001
1.32460094118025
1.2648808604549
1.24956467332399
1.27295660679161
1.20180005304277
1.15879267503774
1.13857751865189
1.08768110671072
1.04719816713212
1.0103472600387
0.96209944119032
0.939554178948263
0.910419361213932
0.870430101784236
0.836488931513729
0.811462194627211
0.787777239832193
0.76817354197535
0.742449597568098
0.706717680497055
0.691434981432797
0.682396646030764
0.659592111213875
0.656057607961021
0.656248149036989
0.636257599096266
0.628163438627317
0.631418928374123
0.620623406345786
0.600324413559137
0.598766864013615
0.60507052587975
0.602159389188673
0.606805434412785
0.608346607712191
0.601796542943271
0.612280914750468
0.616176268598509
0.604568133758371
0.608982115261107
0.608220331935427
0.606462584662181
0.60482625210429
0.59086004420799
0.587888718679109
0.584282649059044
0.587667260213142
0.580187724826213
0.574174246576809
0.571051580125495
0.566688985878653
0.556486824565537
0.564758386166577
0.568493323787677
0.556624786352561
0.554964127876878
0.559560195802135
0.554551408837233
0.55680481629145
0.567573692018185
0.57137914475069
0.574226911902347
0.577737583493553
0.578645688611783
0.581850129352861
0.572818078724344
0.581917716123269
0.584897172469529
0.582831811743601
0.58380725628825
0.587290329597269
0.592184980480999
0.598007699562269
0.593567068145477
0.586631889163138
0.601715951258307
0.599758764997496
0.597695656769224
0.59372192859477
0.595748640030288
0.597557619027866
0.604209766870342
0.616354399346315
0.62035251160343
0.62039138104133
0.622130672846593
0.639095095001104
0.641607294484887
0.671991097741261
0.68240371200646
0.68885279908997
0.700155841343984
0.735353973029161
0.752544121874537
0.752535934711076
0.75974876665772
0.75378807023575
0.761395421092835
0.770981292405619
0.778335827852185
0.753324294564999
0.730096281078308
0.739362827274989
0.741491738916802
0.730046820352882
0.721977157859283
0.701711960504058
0.723227634173872
0.70954291468146
0.706546600986015
0.714820024925315
0.713963043129351
0.715184208660619
0.70723263620132
0.703377083939054
0.709964399019422
0.703862287326956
0.716415293711936
0.705823548208597
0.709199789789837
0.709906114579427
0.68337521318079
0.660706423721569
0.68870012755641
0.69020916506432
0.665045933941473
0.679598664712514
0.681883503933418
0.651079478638671
0.661025713644876
0.659945758425301
0.647336623588296
0.647725972191257
0.635309370918465
0.643275479267763
0.634614598386073
0.641217504858741
0.636228700032731
0.623599665576492
0.641736557479782
0.633631354616346
0.641274324684635
0.627848799230257
0.628295285801182
0.622912318589529
0.616164720083343
0.632821818461434
0.633444489474274
0.612795989341331
0.614554798915609
0.611941737091806
0.607739949804439
0.611609413706651
0.609834310163219
0.593179668676676
0.590675760264208
0.602473297571774
0.596747645610999
0.575480382104054
0.591530004848686
0.583905930407258
0.580941682025671
0.591455112578521
0.600464357316744
0.592782815308589
0.605035212238389
0.598413711496983
0.580777867594435
0.580264664087499
0.605409128871877
0.609551193340378
0.59128635570221
0.598848078923422
0.591318394429289
0.593971796075082
0.608380802777
0.605480883801686
0.628209632839402
0.616721930119738
0.622059901205496
0.610082860683173
0.615847085302717
0.600290287088177
0.623990476160674
0.614365947557012
0.622969858412784
0.637359174286729
0.603838771297856
0.622214502204262
0.640924410296752
0.643982818804017
0.681568446215216
0.656081641048502
0.663769415490251
0.659169230555307
0.685151283866716
0.701835485765454
0.706399210809275
0.696365281726623
0.73471155287298
0.762954253344326
0.748940353485825
0.797010543213988
0.795629304511743
0.784842865040995
0.832662427160201
0.850040022803294
0.879404050965928
0.854901879912961
0.940284113948981
0.90532776301573
0.853821579987738
0.893086466039503
0.966313985805687
0.913418647544488
0.953862177381425
0.955188605200471
0.959073436910784
0.937954065851347
0.894486603156096
0.955500506689632
0.934739589134293
0.913996720500942
0.89895636595062
0.928883771295751
0.963518658126639
0.899937063763744
0.96382972577452
0.946473816784074
0.978456839797987
0.927802333980718
0.912136021184114
0.907907610854357
0.987022510977885
0.875779160900521
0.895102424344964
0.899422642875404
0.930465029941381
0.922108601617289
0.861652277183354
0.835387079488786
0.925424010891648
0.904487847403312
0.913069604425593
0.826599219138851
0.903780515724444
0.923481579549826
0.869570060480798
0.898227543790756
0.910503988128874
0.839846358178664
0.866884267648911
0.914621801442872
0.902680924957392
0.905125168243021
0.867647415056881
0.815765550544923
0.824778511475658
0.838347012348218
0.95733082808221
0.910607053870941
0.854976166226405
0.818320162260139
0.892290484101589
0.88949703619515
0.944177782169049
0.904825205999459
0.897540735851075
0.869500874400489
0.880103427681999
0.904165346065387
0.950406208026052
0.925807194551206
0.951361461374623
0.934366718777206
1.07466839111434
0.98315160774798
0.994339374929295
0.934375609458565
0.997570326184525
1.06115653468591
0.96375004735315
0.941615051199959
1.01143569997304
0.92240301127926
1.13560662919227
1.03290802922834
0.988899203355773
1.03001947331056
0.918875159426888
0.972660992353757
1.66519999048865
1.2965972808574
1.2389914256105
1.1273020002494
1.09078493976447
1.00172238733668
1.07246121223816
1.01978363322489
1.03750527650925
1.00319946976624
1.33475180250881
1.52187121725369
1.17018797238311
0.954686428596745
1.11983255530034
1.26898786590881
1.05812704703708
1.00783558213541
1.21041779385677
0.907625210211502
1.23327429441021
1.48330145401178
1.04647173516483
1.59520228981772
1.86174701448707
1.18057971718917
1.12112544674899
1.23580566396797
1.46201787996483
0.927637251087727
1.08866112414734
0.754935775581823
0.942152296195601
0.908365489326957
1.22016903984752
0.909397715985104
5
1.02612303687122
0.837963977918064
0.98284827826042
1.60124354037137
1.5925456812913
1.35644797861487
1.21435439995757
1.06195628042537
0.82071874997517
0.828452904343519
0.643655254637701
1.74963214177645
1.45109593510595
0.767888205166995
0.887105539730664
1.96469727108693
1.05128769902966
5
5
5
1.31462426212567
1.90095170824507
0.740016350941964
5
1.61235386552036
5
0.98443223722665
5
5
5
