3596
4000.36533379555
650.420452594757
1
2
2
0.0719574859162782
0.0552248331472528
0.0613949376736279
0.0590607478404166
0.0682800844063245
0.0627519112887466
0.0673623285848625
0.0574423507293541
0.0615627517894208
0.0615266959192145
0.0644728196927944
0.0707283298659105
0.0648710471464973
0.0554127526003737
0.0643690894417256
0.0533760143346593
0.061077960536219
0.0543123355665445
0.0657163147015005
0.0568617717589597
0.0656916391102855
0.054273512275783
0.0658038737405472
0.0514672358894749
0.0598845810900391
0.0519418588426478
0.0617019816354379
0.0638889274857693
0.0712356711812482
0.0578670877075372
0.0778078275749383
0.0596970734373129
0.0708228563150297
0.0598399183281678
0.0652408229324611
0.0688640482438111
0.0691163416628191
0.052577399727577
0.0597491394140385
0.0533332551154312
0.0712412449883811
0.0567299083438246
0.0684215095570979
0.0615173379205408
0.0590683454530056
0.06345034604618
0.0704993504180119
0.061843540522186
0.069908618652755
0.054584875254207
0.0675229135733417
0.0425929279069051
0.0688984769924131
0.0655693165130832
0.0635868235092684
0.0699702501514849
0.0630247245326215
0.0580889535819005
0.0717939697748216
0.0479791568773498
0.0831454443708659
0.0665812902352652
0.0666520243756804
0.0524087816030014
0.0519809988135822
0.0535630119817581
0.061930360551363
0.0565177884868318
0.0595248393870193
0.0575754788769941
0.0543154657597035
0.0637903774001763
0.0754622914825058
0.0626930487497207
0.0706474286217652
0.0631158583898731
0.0585946341237445
0.0568967177912226
0.0463026842548183
0.0590559710288097
0.0766986678265426
0.0657306691750297
0.0630718410817174
0.0529573637309191
0.0599786445803134
0.0676092479135089
0.0491558689534195
0.0623432546542792
0.069515175434459
0.0642947946764757
0.0624658772255934
0.0632566697855166
0.0594024805299709
0.0504656543120292
0.0493158040455055
0.0504369339806952
0.0517768208083297
0.060976426567736
0.0470854891388985
0.0680352093894443
0.0441244307274189
0.0683826398783104
0.0926097410550809
0.0302475986085603
0.118739285625812
0.0520289411127628
0.0655000764195114
0.0795446546502532
0.0799947719942456
0.0621581546162984
0.0562784469891547
0.0533696563387295
0.0593531967551999
0.060152046478689
0.0375923678688341
0.0706721390628279
0.0740326419558976
0.061156411446081
0.0671825308987807
0.0606906521952469
0.0163771110310318
0.0808211760972524
0.0871909154238851
0.0589554262795199
0.0721020890047844
0.0431577956091796
0.0327305784183184
0.0818343245806356
0.0779402559335076
0.0584818798279897
0.054847540446961
0.0600172304344801
0.0415938258798114
0.0459838632010764
0.102913794867291
0.0480534206318529
0.0618468742691754
0.0267868901274445
0.0729131114346375
0.0890028015932313
0.0730787655939829
0.0619659575262654
0.0430833287765893
0.0454635772738343
0.0789018873974672
0.0578525768478279
0.0492038025565629
0.0719748824696529
0.0621387046330177
0.0539925423908703
0.0620445070686997
0.0371217933361328
0.070146220368099
0.0635798871686641
-0.0141911056729946
0.101558279621145
0.0734538389607058
0.0690088529210202
0.110616830364084
0.0457793860782528
0.0773347340985352
0.0510411053429126
0.0662827219466982
0.0447476869364615
0.0654101426119925
0.0361092826106018
0.07082311594207
0.0696323539202984
0.0533209750250412
0.0423144015940038
0.0916404350393843
0.0580279364295683
0.0413691026799642
0.120798534550695
0.0709615399094436
0.050372434358162
0.0736535167618179
0.0627883675502267
0.0387147176956085
0.0667884376932955
0.0774488721054434
0.0551718789128483
0.0709031885093266
0.0378250152290009
0.0500236017701618
0.0672459645791261
0.0567238658219991
0.0545740739576057
0.0585250859496303
0.0271114461688013
0.0556533241441543
0.0977094641589459
0.0826521079839554
0.0591488944090149
0.061782369861486
0.0113270987601813
0.0918375225821088
0.0745820480992117
0.0669311979064677
0.0527098241541644
0.0563630461112787
0.0477924918638249
0.0545506542034399
0.0504250268776283
0.0426835642960603
0.0150790641172371
0.108690633155839
0.0651920004917734
0.0733545876325313
0.0452744703174948
0.0583722265775288
0.016776586527193
0.118551742238702
0.0762490676488773
0.0666716171604845
0.0544770830719239
0.0474556256225312
0.0553100795707353
0.0718892847946137
0.0526025540434751
0.0632061630706058
0.048487729373688
0.057761258266879
0.0433970323684807
0.060553335361145
0.0522973666386168
0.0577137664140385
0.0550714620195614
0.0552823822427185
0.0491175529599137
0.0671552446362385
0.0488112557961991
0.0537879755206641
0.0575045808904956
0.0451608744437179
0.0578344615888625
0.0757859155308865
0.056412064742778
0.0647272433580342
0.0505337296335315
0.0579898001989422
0.0500897081208362
0.0560285578352666
0.0494063000012408
0.0457331722927375
0.0426142838605957
0.0961913227204541
0.0475677551354047
0.0699889258587913
0.0299784112699495
0.0870626178071777
0.0508723620872541
0.0659542717496091
0.0413697701268111
0.0678006764202431
0.0307001239288975
0.0522598026079037
0.0731555496569233
0.0668837358851263
0.0477199628434101
0.0816051488438664
0.0521559223708716
0.0623433787825489
0.0324917338632848
0.0411043867496661
0.11749346874324
0.0496219481792262
0.0442847753890621
0.12245889662935
0.0535208577609161
0.0831838565104559
0.0382603506567464
0.00964886744386472
0.154916523368052
0.116756452869465
0.0524890107347707
0.0596776705070091
0.0812458786085643
0.0506594428241642
0.06073373898719
0.0400787428615945
0.0544418040087305
0.0647158266204191
0.0838411129208825
0.129395086055415
0.0209423200921967
0.095350067322505
0.068207864114381
0.0706075721898826
0.0595543266408624
0.068275794632278
0.0413322104026565
0.0824838279002631
0.0594388578293121
0.0881675432526806
0.0514708663011497
0.0548032822341849
0.0821545980212889
0.0748474404718286
0.0509525235974976
0.0766793399957515
0.0645887780933944
0.0580302829836029
0.0602727118161346
0.0587359140812332
0.0728223901114546
0.0442205054790778
0.0379081664342289
0.109935527187018
0.064876063455108
0.070448193418575
0.088901777315648
0.0662605722391031
0.0571311561210381
0.0654631406960822
0.0555484454490565
0.0616959900371321
0.0573942975111601
0.0582369225318184
0.088435238127435
0.069850539602653
0.0655534544429043
0.0645718423510194
0.0607500400019449
0.0741345823193947
0.0631316718121981
0.0621425608201621
0.0651782945612228
0.0705465589081104
0.0410457145904875
0.089261088914591
0.0902751582911841
0.0370780651813487
0.0974224038252364
0.0947272084279014
0.0750825489532838
0.0711878859356002
0.0706702624210086
0.077400919167411
0.0599964737356634
0.078345117201257
0.0679077427711638
0.0769666906574554
0.0821712316573879
0.0881006332104939
0.0631607968062547
0.0650164719193933
0.105351126873612
0.139153055903
0.0933370415215821
0.0927257979620405
0.0421745703081904
0.112276387856842
0.0838932388701279
0.109809600275171
0.101826410419475
0.0880493988485141
0.0854165731677839
0.0795019864648279
0.0965956445769828
0.0866105714610941
0.0940457224109615
0.0900904003049968
0.0987994739642678
0.0886722429216138
0.104061801980378
0.0855040531994129
0.088509299232607
0.143660342518824
0.0999452018346081
0.103561498431027
0.109350057516109
0.0761290608531676
0.126419737355069
0.106070602926884
0.171280704343827
0.126273858818919
0.133464169033652
0.153439941807253
0.116299581571969
0.127928216429597
0.109233301750478
0.130824056312938
0.12135486109613
0.136461569409051
0.122595194808412
0.131664865799566
0.124610035731836
0.143935626873455
0.136616595841193
0.143564051052927
0.122447133566225
0.166616404593252
0.138702275961712
0.16040543512912
0.134400375651709
0.156404284150783
0.168083782447107
0.210824036476195
0.153624483726953
0.175025814534472
0.155920092478434
0.166355526668964
0.16158106799491
0.181989697180019
0.169945581639261
0.164575607821073
0.20316310258694
0.190827997288323
0.19757781980692
0.209772581707015
0.162164011188924
0.21545381686156
0.181506799812553
0.194002695358127
0.211256215803859
0.209354936103969
0.179885842708748
0.247782953248679
0.205390685182304
0.212665669450179
0.219372592491253
0.219448854625457
0.219253333210161
0.218210436140296
0.221177592615509
0.223991935984034
0.234824740849682
0.241655154430429
0.237660528947652
0.250870822916378
0.244666175503904
0.239668363493494
0.261992649414393
0.269466924078411
0.253436415158044
0.280289390223041
0.253601560613554
0.280983356908474
0.238905110235497
0.296081965759196
0.263804339462195
0.27854674605691
0.298987490400158
0.287668060269226
0.282181822751576
0.292577310058028
0.291563766868414
0.293265992998374
0.302582417429233
0.317540427783615
0.296876442949664
0.310420547125279
0.308656693016075
0.324468333646834
0.305256671833312
0.326067674311912
0.321851135576142
0.344852649962826
0.335973311418931
0.366605682745345
0.312928302295524
0.380686380615365
0.373567543733637
0.37934906191997
0.373327092681251
0.370908396028377
0.362144656042164
0.378448399731581
0.391189467380561
0.388792242411687
0.39105334175595
0.404118877645262
0.384007640397632
0.391581847764446
0.406068103523769
0.401265371331637
0.404056592751281
0.423296202374178
0.409071300110244
0.418809027643061
0.403667678061913
0.427933803687957
0.417821064796656
0.439986516730313
0.431620547164164
0.454758632044897
0.467732116289661
0.50032529623662
0.458868846487147
0.471503426798337
0.460626148660245
0.480453565977719
0.478952958806195
0.486966884417815
0.506013771340477
0.498913474851682
0.48693894399464
0.529309676003323
0.500950264048385
0.519283470265786
0.502716796099434
0.530903212281213
0.518265657185247
0.558785252274326
0.538637463925415
0.533826888576333
0.540199792853324
0.557414367786952
0.513314947671109
0.547377367568106
0.562324598618234
0.581590866757488
0.553605330430032
0.610263168266944
0.574908501695052
0.621768106818271
0.564356759935696
0.622491289340921
0.605828960731249
0.626782164268489
0.59741482934945
0.644157141812851
0.638862349661252
0.636310449644518
0.610970399731356
0.68170596142794
0.617296555313216
0.635947829609932
0.631547847426056
0.69558750636576
0.644694189594683
0.672183451557776
0.63840123555251
0.718973833865892
0.67702040730764
0.681523714839469
0.662260060448327
0.704386196263657
0.682431668210871
0.759922524616792
0.722817671072313
0.755154022982958
0.714398265024223
0.762938735497211
0.771305454127228
0.757234560733192
0.737116493993596
0.730237283935225
0.721123530561131
0.795655043058427
0.773645983712207
0.81237698599776
0.763232673137277
0.831359619423626
0.763379712709122
0.807811796578445
0.80454776168971
0.851533667593785
0.759894508230324
0.796992734223286
0.825484777029115
0.860306665496899
0.805397997334676
0.830926820766178
0.822585282678937
0.871877001137767
0.816620239641919
0.854521240167524
0.809522669483906
0.914396140541129
0.858234553134577
0.871069836637378
0.872095169246773
0.900884170758421
0.89515632694746
0.895459800811871
0.85928145308022
0.916488039293606
0.869296657616551
0.947225987021364
0.903576366546794
0.958294587915485
0.88375596315843
0.987006554799468
0.982626548820746
1.00798561974695
0.908992580497025
1.02622956908583
0.915069057795233
1.02110628080545
0.952062503977003
0.990845194115675
0.974149055567559
0.981839922205352
0.999779495602444
1.03143745916019
0.960490347717491
1.06107987246656
0.954508216039414
0.968907643576093
1.01587061844414
1.03820858166201
0.980681403577327
1.06570493229988
0.96907570161048
1.03141171817681
0.97813822892882
1.12013715623337
1.07746342097597
1.05812369876573
1.00329536566988
1.17222886029021
1.09259401547454
1.14042434103874
1.03857310154451
1.13588721665566
1.14395022686674
1.17797687934232
0.988447071523546
1.20015425672539
1.14603043356681
1.16435392369088
1.08389332385904
1.13890537848394
1.18234303930059
1.11780671554533
1.05868912880385
1.15142532585809
1.05355119549504
1.22095586477004
1.14008647172849
1.19876385163612
1.11917317436622
1.22952437167821
1.14366177011386
1.27195487982506
1.06575496099531
1.23778334764468
1.12780243326905
1.18362003776402
1.05612034035762
1.26045487339962
1.25270038719534
1.24573974265481
1.13713012484881
1.2569224519688
1.31522350584861
1.22948089759986
1.16540428279772
1.23601875212977
1.07320142809015
1.23879971469608
1.23878347364268
1.35472758943952
1.20216600788163
1.39729039982257
1.20663354057901
1.26226817499693
1.23800644399695
1.39761874741692
1.13153317872589
1.35189804564016
1.20285344270111
1.4330133687351
1.34571229402206
1.48216504872435
1.33410396474639
1.23285117683373
1.20684011924345
1.3054842457164
1.18685078608058
1.31255309632234
1.22761039748264
1.23636042538415
1.1369722060064
1.29847575611737
1.46249303151175
1.41606409779981
1.20396293537977
1.4180713978983
1.33791403837184
1.49860070576597
1.26189815008698
1.29775603312665
1.27174770900932
1.308559150066
1.31117585161357
1.27564132514269
1.26615293421027
1.53939204969876
1.40910133490215
1.46463913511245
1.36761411218461
1.40110207063831
1.22934374555088
1.41647225575563
1.43336418651973
1.38903910652142
1.31694798446224
1.42636638422297
1.34710213298772
1.43500923445025
1.24937989979779
1.35547320612527
1.41652072845466
1.21258406588193
1.25916370203578
1.48049727996582
1.3402676178869
1.51764328614575
1.28514315456866
1.38711992923307
1.44051066071078
1.46710535385464
1.31245624269721
1.41637535703729
1.28677772071126
1.35632393953027
1.33069928618687
1.41586294013072
1.32373729897548
1.41532141878313
1.3730883544319
1.31041572488874
1.32878976494013
1.56902273624002
1.35102418257778
1.47327546488098
1.31054749400279
1.4427287128085
1.34840047943597
1.44242486842002
1.38789013360025
1.46648563106386
1.36161760016182
1.51760900964552
1.32472925055445
1.36599493166539
1.29188935888966
1.46870429864767
1.37126597276565
1.32007794817829
1.32958976406811
1.40417683114507
1.32224694687815
1.41443785390271
1.30355738958929
1.42143202720976
1.44462018452787
1.40016772258881
1.30535000923461
1.47180918192551
1.35699630776274
1.42625402218027
1.36181953832411
1.47155160797859
1.3869663364967
1.33416396169103
1.38841541754052
1.43156343273218
1.32828551153201
1.35724437160173
1.30219776911936
1.41640656121853
1.34746137975833
1.34279116826728
1.41456464306672
1.46470536224347
1.30707917685631
1.43711916400639
1.45307728966283
1.3724362126315
1.3569392136015
1.42631211809595
1.39912024881401
1.45156040142839
1.36948664685304
1.39529713284267
1.24582136369433
1.34058873555529
1.2847324232024
1.40766057692292
1.36843111744915
1.37927291004983
1.35815075355642
1.54241658809664
1.35971091553841
1.38387866193851
1.39200365919074
1.49150805960295
1.42238407876979
1.47065667461432
1.38211100829289
1.31350944364162
1.3104050307905
1.34363124681116
1.32077750995359
1.30261774048146
1.39925309672312
1.40659084061245
1.30769879641756
1.47077704586085
1.2601738026994
1.32964202792619
1.31504796066819
1.35008745303167
1.30512944454627
1.37003981725863
1.34810398933439
1.3100234320553
1.28409915604754
1.49343699993523
1.28684390258871
1.29116557798947
1.32309237527392
1.23875237564291
1.19241174543631
1.29435416253214
1.30659896300445
1.29917544528293
1.22789450376359
1.30708911509857
1.238980795467
1.30344648511528
1.33894316640692
1.29977469773413
1.27883302318437
1.33733244102367
1.28034874579568
1.25501604798671
1.26222768628672
1.22460152286668
1.20928667551775
1.19740388143818
1.24298569036049
1.25495983749573
1.14124709038499
1.21809732831244
1.22046211393535
1.23583393313556
1.17373421992461
1.2203046025544
1.2023184934306
1.25823755829309
1.20093726053624
1.26381348039495
1.22485840756728
1.17659592226735
1.17162685921972
1.23653242696393
1.23182004163389
1.23647328317123
1.16694978130647
1.16325365460067
1.19641332169922
1.17249094516653
1.14529820652225
1.20348135770297
1.12142056304383
1.20387610870981
1.11447745664255
1.16191951040372
1.15168867263995
1.14139226316332
1.14630420209348
1.10980929765272
1.09980867598953
1.15306979932332
1.09582470754744
1.08166028195721
1.13974936714249
1.13269680959232
1.07651095037335
1.10772184105282
1.07720371150431
1.09999879003686
1.09929696877732
1.05957881604151
1.07646287486164
1.08766832807575
1.05832985712025
1.05262193203164
1.06238129783835
1.07136395469196
1.02028774206686
1.04992644737565
1.02183822468929
1.06543400068227
1.01586683673048
1.05302642343712
0.977328350283252
1.00754918110622
0.998846653273551
1.01098373679039
0.999642904037661
1.00405504421102
0.95372928744558
1.00337631189482
1.02423389906225
0.998431714545719
0.961946929615925
0.945802595203275
0.932805308394965
0.958264805020703
0.964262189121828
0.933413905897311
0.932586547101434
0.949122938722806
0.938335814443036
0.955073600895277
0.930850846618221
0.926093781733745
0.893739432746168
0.918842597710928
0.92356420209338
0.917804382190935
0.881261664790967
0.898165587235356
0.897532756097976
0.855771339879011
0.878156774486308
0.878605760037044
0.846750518160779
0.861736711646238
0.871891533374061
0.871014195984433
0.869949508254948
0.865931720270423
0.822525812089158
0.826622079149565
0.857123652000924
0.847907861862545
0.823760759743918
0.833638273536932
0.823034153159516
0.816816353551779
0.809363969334398
0.798662648955669
0.802211251369663
0.812550439333254
0.791257248914236
0.80207295192158
0.788612991591101
0.781181543729985
0.771734656936346
0.779750731713366
0.768157937869481
0.759325064987888
0.746933387958203
0.760942858806046
0.754998476411382
0.76286277961235
0.736652673354204
0.76967562929211
0.75343492043787
0.726998363410991
0.717918227364307
0.733770074247262
0.724691436716321
0.72068921174108
0.723781215407934
0.71440747117745
0.714564670046567
0.717324801520302
0.699709232109363
0.710200540327189
0.708541248755769
0.69023006993757
0.680759483229767
0.700225149475132
0.674708898163723
0.674143839347253
0.67512756230569
0.670834745500003
0.666723253764357
0.651774245293246
0.664789656738818
0.67073815141727
0.661499837178473
0.669320052235234
0.646845153734146
0.643595990056162
0.650658108304937
0.644304681170147
0.642381875630879
0.6475808732451
0.634454602780843
0.629061444400182
0.623523812402633
0.62207907074282
0.625033436272034
0.635750192595903
0.623227856092577
0.601597514913152
0.600095214844982
0.606332650598661
0.593979399399298
0.586716187664826
0.591402491053129
0.605911957743123
0.59002073793806
0.586305874311845
0.591305890794481
0.581816532772419
0.568814450172751
0.566783662287221
0.580164540923201
0.572027884310191
0.557047162080738
0.556758364895162
0.559478908330583
0.565046385565776
0.554683969531287
0.547553764439319
0.540227619201229
0.544232291845377
0.550765281197956
0.548469968138757
0.537963590026264
0.536025487671009
0.535191412633186
0.539069025370953
0.534768785231842
0.519129145598436
0.524634265580484
0.522463669616114
0.520532865662148
0.522360837712832
0.518101280019964
0.514387618977449
0.514447325620081
0.506018490375868
0.489976050557333
0.505500494639801
0.499850711201617
0.487672007521033
0.493754630101336
0.497671580714825
0.479477116677104
0.477833741590361
0.479148404937208
0.482822982256044
0.477815362278271
0.461252781328009
0.468554225591251
0.476021693211583
0.467642561584499
0.46859311027295
0.466605983058185
0.464672876322428
0.458028545828238
0.450373703002909
0.458819502809181
0.451996874260581
0.454849324371116
0.454455628937188
0.438680348278469
0.441054953363254
0.447571793832257
0.449517381603547
0.442883690597096
0.437349236664103
0.434052391873739
0.440670986346559
0.444751336485103
0.434284309834648
0.429734621948105
0.433091592468309
0.434642965525052
0.433078018250141
0.432275729292125
0.426794930487046
0.423953483424178
0.432293835831725
0.426488989803396
0.422810379376588
0.429530717613911
0.425552816272584
0.421382871575826
0.423840992738116
0.434121424297542
0.429195283633975
0.421810603446077
0.426668330183637
0.425663929626647
0.425109378313918
0.427357381879297
0.417789105150464
0.429616568741463
0.434054267494563
0.424244766204348
0.425180208917356
0.430220721037226
0.43641322220548
0.430845249574546
0.432886105543382
0.4377164991686
0.437262575067484
0.444124080706076
0.445701047480868
0.445356117884792
0.445567891685523
0.452491411853196
0.451987680803576
0.462031406194286
0.455087118043358
0.458675051720093
0.463524712097262
0.457269694379309
0.468085321211132
0.467482299579759
0.467652354018212
0.475540208378091
0.4725202871352
0.467659856209605
0.476636086726774
0.484494860228951
0.472795610554014
0.485160458868999
0.49577143627517
0.489810900810501
0.485269831634733
0.485953555993927
0.494281213002944
0.501165177957728
0.507943116396361
0.50595584300095
0.508977628546371
0.516990844299269
0.520796023434006
0.519968127838334
0.515441083512898
0.523145571741602
0.53493111436852
0.544388573601366
0.545628210787364
0.550538825461026
0.554199590842886
0.557001371762991
0.554231293165191
0.55103384617393
0.558157776107653
0.572210885663364
0.576612656160909
0.564786586512512
0.56811452662068
0.575885939345002
0.571173621682763
0.573510766660374
0.566253292950766
0.572461442360103
0.575933523050054
0.574869565854599
0.573313839812437
0.585388481521899
0.580668393984221
0.574024569962262
0.579073983811222
0.585712456490271
0.577986584373218
0.58156839548056
0.56767129682599
0.568344532786208
0.574648828488973
0.563127708143955
0.554816564840125
0.572294163743323
0.574712660791872
0.571421953704919
0.572629340892998
0.575028931342077
0.570492412804555
0.570553086693153
0.56421103456794
0.564784260537796
0.569900737742223
0.571893759455107
0.567818015678668
0.558609512923378
0.574129558446861
0.573374905464937
0.561255438883097
0.58176511870952
0.570122250265643
0.564628142544747
0.570769338432537
0.571645053897965
0.57654832202996
0.585771448423068
0.572983641693974
0.570588117444943
0.56928207267142
0.568608284667442
0.563734759170177
0.56991487887529
0.5635662084822
0.557641853946567
0.567493157575456
0.571379576996888
0.566075483640732
0.573804438419188
0.575607897925074
0.565824639228216
0.563931231918442
0.562086843424318
0.556586614141859
0.556877074103295
0.549877788991678
0.54907606440501
0.544494419210713
0.554006509082143
0.549140698843403
0.54025832551748
0.542379347067874
0.536531322878468
0.521908133943857
0.529967905254233
0.521725323687612
0.520064992990665
0.524084471422581
0.518168327966608
0.512002707054536
0.511333443619599
0.507055781019891
0.508910173181408
0.494273158384483
0.492582809662851
0.487392359125578
0.482924878094248
0.488027046954695
0.485481479270273
0.469412434550076
0.467911279689472
0.462877574905327
0.457623147770573
0.455927847201775
0.460265006722323
0.451742632610975
0.456598641553271
0.446386881537803
0.442045390371704
0.437672393464172
0.436989013233805
0.437640884863755
0.440677872466478
0.428336548783472
0.429060636858629
0.426337115903077
0.42167684516296
0.419872524668675
0.419031357017785
0.415467423884626
0.415630140441696
0.411664478482515
0.412024522058426
0.403603238229697
0.403976854250933
0.400552386540598
0.402033847262799
0.397548727550596
0.401661443366598
0.393615796987041
0.390253027071832
0.391503487251457
0.389787121648849
0.384515771969882
0.388941283947872
0.383340903764569
0.383631929407471
0.380746845320774
0.37836966794793
0.375182601605049
0.376428613945201
0.370337018381262
0.372184992877007
0.37020909972725
0.367387904257079
0.363838861267685
0.365022840400811
0.360507071234672
0.363110683082962
0.359728701310928
0.361671542948003
0.35985629225877
0.35516149759286
0.353081057126941
0.354171435347027
0.352798976427915
0.353724742757518
0.346220934866606
0.348051129044338
0.338886328911086
0.343565285435399
0.342430253814043
0.347558478310567
0.338739825435786
0.341913158073168
0.338209060615424
0.341545652899297
0.333648181693493
0.335274559949423
0.334886728858469
0.335941298530678
0.334842366700013
0.337369821669031
0.329946338363086
0.33005676971543
0.333713651000904
0.333221021680727
0.32512729263909
0.333249048820288
0.320467682389037
0.325306614146717
0.324239647098627
0.321873163405044
0.321825680047031
0.319209786196214
0.31876177000998
0.323603268460335
0.318404354962955
0.317138369888593
0.31884455156008
0.323674124473118
0.318933687511904
0.321443558442401
0.317082993083411
0.314328712181397
0.314498165935087
0.314636573329336
0.311900765135414
0.313012621703048
0.306662576963338
0.312681254102554
0.306144650863298
0.307499572083462
0.307186560718657
0.303761261759698
0.3001212108731
0.306248471652295
0.303637924214254
0.306609737403662
0.29674911007602
0.306113481671337
0.304371661408036
0.295092168445485
0.294377545717842
0.302727220988053
0.295139611347624
0.3038600313346
0.302614885206059
0.302303555011153
0.296184194597885
0.294308223866241
0.29103786161387
0.300268761652958
0.294123490502036
0.290616462589761
0.291120153695726
0.295133336215555
0.290181130270403
0.297157087337618
0.29015005533665
0.288683005025106
0.292087557463094
0.293438233131325
0.286027870357088
0.293821931258269
0.287954209460142
0.292447605575646
0.289341703739234
0.288377162761756
0.284716828524729
0.28893811001879
0.28860346951497
0.286192350905853
0.282275217901891
0.284844434509412
0.283821353208208
0.289296075101861
0.280484491971211
0.286211726413194
0.275811980709738
0.279990990159279
0.278880034968545
0.281300773553356
0.280476346591768
0.283630471955168
0.279117846509131
0.278746772684794
0.278227286562999
0.282066858478606
0.275292662099929
0.280742453668834
0.274163212806392
0.269725703915825
0.27444279509051
0.272541997916711
0.270252113010662
0.280055514323718
0.275314685685286
0.27179880314481
0.268412013493251
0.270487078598105
0.267428468317377
0.267795172171072
0.26178022142977
0.264737076666579
0.258150731814706
0.264307476941197
0.26227570590974
0.261489173522009
0.256907629095189
0.265654147013092
0.26378042977406
0.264241768087354
0.258213616202927
0.258997778388877
0.257090186283235
0.261792838678963
0.253358355864287
0.259362321722579
0.25382853771385
0.251340051500039
0.249808355800918
0.256047613830036
0.248644119532017
0.253928905323382
0.249832333155198
0.25369671140673
0.252269082846868
0.250312738866986
0.246939012193979
0.248615872021088
0.247219989414917
0.242908667945689
0.241940961010312
0.242403134211106
0.243330542173603
0.249150399637585
0.238524926124152
0.240389802624223
0.238089978694834
0.24147035186241
0.230531318382428
0.233225095145961
0.240280246012663
0.23594283992222
0.230091413966215
0.233742595303542
0.227086821553142
0.230340445906751
0.226131378779464
0.230006786469035
0.226749791848146
0.227369551587449
0.226833638963866
0.229857279992253
0.224641892567465
0.22414714102587
0.220451053803791
0.225765223903735
0.215981576869024
0.221163169299829
0.218416099097692
0.217092707262494
0.209801135861001
0.218330932063237
0.215264738747098
0.216971270378691
0.209394170555582
0.208004267496558
0.213492250378566
0.21608630177093
0.204890949872898
0.212581711086846
0.207523700359503
0.210535439816719
0.207412678145909
0.209569843652826
0.205311569427443
0.207275181661826
0.197958926535809
0.205815050360611
0.203550193858751
0.207421120775707
0.199737392824222
0.205940669868622
0.197323723999147
0.199316222753842
0.1977176102158
0.202342344111589
0.19912379309877
0.19916874389971
0.198272139414929
0.199836467318791
0.189399874253401
0.194614585015875
0.195318704750155
0.19693928211153
0.19310685565664
0.196368849775517
0.192572853704386
0.192373052184687
0.189265075250583
0.199112443589605
0.191085327354257
0.190392435704827
0.188419508068085
0.189899935258171
0.186253813837586
0.189666581499217
0.184406971075414
0.188204444943554
0.18389268008162
0.18406805424329
0.183575347773257
0.186907900238815
0.183475392234207
0.181732800231311
0.179508583998181
0.181551788458233
0.17767659248508
0.181011950040753
0.179329614370211
0.185128710860017
0.177927659706007
0.185423018002187
0.17736550896497
0.18312757905912
0.179443495767759
0.180574418674706
0.172768223764327
0.178085660167846
0.176357375303795
0.177753864961841
0.177998844748618
0.177532674992334
0.172384727110017
0.176456931204223
0.172519023827276
0.175304300631993
0.172231867251847
0.174007716609296
0.172357024694977
0.175572553475947
0.169550749312268
0.175087750523713
0.173335053707619
0.171423066885843
0.167490972449125
0.17250256242386
0.172255262678636
0.1739897084119
0.165519548762722
0.168157014184816
0.174490068143481
0.169237285137853
0.164713414617533
0.173544108342701
0.167959805740272
0.168781712851769
0.165446481974257
0.167614716617732
0.167775569002271
0.169911167089535
0.160673856146528
0.166920750277941
0.162409700847098
0.164618613989409
0.163803595399249
0.16380490391433
0.161818776716382
0.166531917493345
0.162649037797588
0.161884534125014
0.158971398419775
0.160301946615106
0.1572267801522
0.162130004894532
0.161383851093192
0.160398236483186
0.153297210724528
0.160525368164059
0.160522799264935
0.161619056247984
0.154873008617013
0.160385027250689
0.154773276269322
0.157338898274804
0.153992930321628
0.154821790300479
0.156022826183073
0.156910462321251
0.155134903301904
0.157582107563416
0.155578056082628
0.154400524581037
0.152658466316941
0.154152760465301
0.150423747361189
0.154775486278261
0.151319946856839
0.153666353932987
0.149483251856529
0.156150672727199
0.152732754174825
0.153403853272507
0.149569194186527
0.154072743473685
0.148542049847286
0.151246679253694
0.146630453787392
0.15282573650626
0.145845413242315
0.152995968805852
0.146980794349017
0.149150449267055
0.144932604822165
0.151136617750601
0.147260608969193
0.14456853917836
0.140842009961719
0.146977649818569
0.146523755492186
0.148460144553856
0.143087530693844
0.146387845750865
0.144498683485559
0.147078184766228
0.139028287005845
0.143482080267986
0.140242790044351
0.141777405233391
0.137431179919767
0.143163627371092
0.136426886098285
0.138818644967599
0.136132300092811
0.140932342894673
0.136885027440843
0.140582876095791
0.133915630688984
0.13783174628242
0.13352820699051
0.138622547521796
0.133281477472887
0.132813304881061
0.129972616842531
0.133367529404851
0.130910980203437
0.13388639330822
0.127337253746358
0.133282563017035
0.134709690768403
0.132020445439344
0.126108198175434
0.129433505805856
0.125080237612507
0.129441972882461
0.126927314590784
0.130583910630047
0.124424800043309
0.127896413457934
0.122604083160014
0.128297785660015
0.124581504296694
0.12784523582549
0.122668801958027
0.126131215765109
0.120361225169156
0.123340181820856
0.123129563985219
0.124767751358026
0.117791964295925
0.120105580633413
0.117462308403583
0.126356904008544
0.117633855153932
0.122588385488495
0.116497740423274
0.119665645443342
0.117759848743299
0.122386582609275
0.11685374695302
0.119630826786566
0.113916367718016
0.115155710011583
0.112969982597331
0.11778479322483
0.112899805968754
0.117875882244629
0.112836084769227
0.113921482068148
0.11040697626613
0.113843518514556
0.110348193093409
0.11570516283552
0.108884134791112
0.11156292576466
0.111120330570537
0.112569387054788
0.105173906274156
0.11410343815808
0.105468144302461
0.109162211760511
0.105437013731824
0.110349416853734
0.104142836021413
0.111023633867926
0.108522584092042
0.109782893242673
0.102247115089171
0.10786905052802
0.102796964838495
0.105608563214258
0.100934398607334
0.104407224662187
0.10317898140962
0.102231605990904
0.101348686746045
0.106670023606831
0.10009805153633
0.106432299398553
0.101438574181299
0.108289360162254
0.0992439463644766
0.104344644829226
0.0983946347782892
0.103710126243684
0.0973203040281302
0.104855147157256
0.0984082423236325
0.103637521578424
0.0973975175814084
0.104285935479111
0.102451727301063
0.103779008955036
0.0969197135629893
0.105510146162208
0.102274958774958
0.105198520272828
0.0979791358596394
0.0978540029924383
0.0941157773996043
0.100996474929945
0.096425003113237
0.104968868358989
0.102263308504774
0.108074407522928
0.103836112219286
0.106992220364156
0.0916042190399793
0.102052645362826
0.101855474340928
0.112517532224083
0.0916927018337015
0.102102926731565
0.0975970295786033
0.0996055446335664
0.0938932833378186
0.107065403781222
0.086359620701009
0.104806852452533
0.0930104287829433
0.105303744782787
0.0904918809283116
0.105245116823326
0.0984117259247026
0.100189942356617
0.0960343953042722
0.106186973878133
0.0831227454499688
0.0948885184553678
0.0866067290607392
0.0986066033818631
0.0793028421073028
0.101050573758033
0.079650292888864
0.0977020196107289
0.0797677072369112
0.105274551379828
0.0803720032707897
0.100667574048323
0.0835008991386895
0.105200139017312
0.0862567202795935
0.113828755720574
0.0832933795578008
0.1111825163328
0.0755060352499156
0.107289394138918
0.0762816351717944
0.119706216545377
0.0826814732721745
0.112935889644098
0.0673813462938674
0.115216776204915
0.0819240199525001
0.111992460498056
0.0775455637751951
0.113104200296912
0.0878157689755745
0.0996236383514102
0.0854848089202545
0.0995618472262356
0.0957096073712012
0.0840176971339365
0.102167051454369
0.0851496820488466
0.100344762629086
0.0820781074855808
0.104335252962032
0.0826921000814741
0.0989363987927982
0.0865528772540572
0.0880833058902397
0.0912160285202324
0.0857332307353493
0.0900469010546747
0.0860814251591729
0.0928235670803913
0.0881495100877261
0.0858299042084155
0.0869725103803822
0.0860512583354865
0.0879775946529934
0.08569378114784
0.0873064911557597
0.0854284439537264
0.0854907263879486
0.0847953660133895
0.0846746346089185
0.0862378413084198
0.0835396955796825
0.0860003439530357
0.0850023517525871
0.0855069704851718
0.0851023453049998
0.085850092505541
0.0849192118633824
0.0862467137528317
0.0840761233949318
0.0863661715377617
0.083288622000237
0.0842780949754334
0.0822813702062035
0.0861435876769279
0.0841046780885486
0.0858807086843456
0.0810183359677148
0.0870391348782596
0.0856028240231945
0.0858121087762879
0.0826441622697509
0.0880507629291518
0.0816754171369745
0.0883587456788533
0.0860642247160617
0.0831940648677829
0.0835524005042386
0.0862801748152777
0.0833004097910393
0.0858373617454206
0.0846992623273675
0.0865790816021769
0.0841753379077196
0.0855184017884551
0.0804923516031142
0.0867292719957754
0.0846831680913901
0.0835820891549775
0.0831586487049418
0.0841772580982396
0.082522839039891
0.0856610536820593
0.0826254743894987
0.0834480633165547
0.0840695607774543
0.0844074992867095
0.084654179031733
0.0836220589933746
0.0821695169095208
0.0855769753818078
0.083281022223945
0.0867095028428024
0.0829527602670581
0.0857212646245617
0.0821189916401329
0.0842537754936639
0.0834667944252136
0.087139691415374
0.082554605580259
0.0845614144513027
0.0835628943003759
0.0830655296282738
0.081998612355451
0.0874665060948661
0.0835199071968659
0.0828248572275254
0.0846383440998934
0.0877225966104274
0.081869065491772
0.0843771514044352
0.0856946002512146
0.0848684314689349
0.0829538232511343
0.0872733639009029
0.0803863914617321
0.0835471392630773
0.0856447358473717
0.0848250939855894
0.0841727780479639
0.0878002400930363
0.0808360973018081
0.0864910675116536
0.0854324828456856
0.0854282424036341
0.0811511425267521
0.0866739337773312
0.0860996213629856
0.0864199513934808
0.0836833479798351
0.0868146948506725
0.0848493947676656
0.0875671663017118
0.085817680442522
0.0858685348140672
0.0861417835719919
0.0889853508216105
0.0850162250831051
0.0870137057797973
0.0841191598220247
0.0879925934573383
0.0842770506363962
0.0865148323364389
0.0837235477668223
0.0879701125865509
0.0873868399351571
0.0863637287563664
0.0870603422966869
0.087532349827707
0.0880813191227989
0.0882653213275719
0.0836579697227191
0.0899301440817939
0.0855086116432011
0.0882605142734209
0.0865744450700028
0.0904909785881687
0.0853738581848257
0.0899790920863249
0.0847537199396871
0.0870660126431983
0.0873526695325938
0.0870358441043911
0.0848338714875469
0.0897978741394186
0.0849416994009772
0.0907376153005144
0.0867299431694586
0.0891333041642765
0.0846270714389621
0.0922989195083606
0.0873079391965127
0.0922742507756386
0.0908929145719804
0.0869167863712771
0.0867409887774205
0.0892385861957365
0.0866572746811459
0.0899363265632146
0.0900702939557431
0.0894064800921227
0.0891186017177736
0.0898420870497309
0.0880027838959138
0.0907922549106939
0.0897798814514152
0.0919678398587831
0.090080399164678
0.0886653750208911
0.0907021478520476
0.09319195253644
0.088118251526778
0.088808895495168
0.0892330401234726
0.0912018704239935
0.0886811044484727
0.092125157948049
0.0908798743520834
0.0926368910203867
0.0881550107149503
0.0886968023194071
0.0871371610823205
0.0901706511640784
0.0861743494832685
0.088941180619154
0.0884058507364072
0.0929459868773479
0.0863655748018356
0.0895734713565697
0.0878244274118929
0.0881909465111374
0.0856290171478966
0.0881069644474001
0.0854456145952889
0.0874664486442343
0.0876777541423
0.0889991948730133
0.0841266782259992
0.0874515535502128
0.0828901919161084
0.0883023822552376
0.0864564683735264
0.0872806274294115
0.0828128598489656
0.0879433650524242
0.0862193812368625
0.085508847269986
0.0836591036488283
0.088217950002923
0.0849225950826436
0.0879259794292808
0.0824029952492201
0.0847634719013391
0.0845529445028327
0.0858500214235037
0.08293578582154
0.0853155520130681
0.0851633820046143
0.0873256004999512
0.0790691019167351
0.083146783018098
0.0827638488794277
0.0875311883927162
0.0826769745890529
0.0857423449318196
0.0808574101810113
0.0872382505636391
0.0817821761521758
0.0846728932176904
0.0814448435888412
0.0851385151563417
0.0811568469755248
0.0852073856135492
0.0774923672020674
0.0843895265182153
0.0806821432472939
0.0841805291111325
0.0838062248534562
0.0839585397748362
0.0794216237840331
0.0864990245479017
0.0807498325316938
0.0839504415311114
0.0786158876283104
0.0820131415737067
0.0796872816575627
0.0825484983448951
0.0798236091811878
0.0850242096827016
0.0783469844371484
0.084174104125895
0.0813003945539179
0.0796311116796515
0.0802580799402089
0.0829177118472073
0.077290265402986
0.0839062527483825
0.0775475053014441
0.0827414379324352
0.0791089032810408
0.0791977311046802
0.079549027137573
0.0799802532252601
0.077861490457548
0.0853816906738186
0.078438113498233
0.0827450663793597
0.0800739176976845
0.0825017474992697
0.0794938247445952
0.0807860642083366
0.079925461732939
0.0792154716986209
0.0785831938239864
0.0809620443769722
0.0764135664638062
0.0833355391624058
0.0764037876644746
0.0789359764012801
0.076780073138384
0.0823166162325717
0.0780343176474876
0.0777553261107912
0.076098883207916
0.0821274497822196
0.0744018575496637
0.0782602693752106
0.0715070919949584
0.0810620454003802
0.0820022759825545
0.0801643659781913
0.074471768027732
0.0786715847295986
0.0774043641060708
0.0798104826781272
0.074335660060338
0.078091287007637
0.0743604987846754
0.0763608044461831
0.0737043948583032
0.0757667730667901
0.0722603296966988
0.0773988235005495
0.0745469226322068
0.0767937452793319
0.0710795691158677
0.074023167209389
0.0705184820899363
0.0732185240803702
0.0713475402251605
0.0770981777735438
0.0718661881817256
0.0720060479249904
0.0711152835832242
0.0719511673930425
0.0752005567628715
0.0733244824555895
0.0715031984562789
0.0730603510508957
0.0654934107813427
0.069260998717896
0.0653698814709836
0.069395375287341
0.0660268906402978
0.0702108105998772
0.0682118086712882
0.0687219065910496
0.0635248601155679
0.0688691937864976
0.0659810003701328
0.0688812735258985
0.0676038161112633
0.0691907200400484
0.0643001498633583
0.0700377330303514
0.0652090507100775
0.0660993909805669
0.0656712722171687
0.0655343400279769
0.0652414048731524
0.0659670291093582
0.0638615463616435
0.0712033565773211
0.0666863821370072
0.0648770923132938
0.0642998303258117
0.0707789080587419
0.0627485009162863
0.069274173828641
0.0620194596946465
0.0689489361868143
0.0629814983801848
0.0673044546104621
0.0618488573608604
0.0651982875295837
0.0625291972754479
0.0678381370265015
0.0618803289295571
0.0652689761644409
0.0628158322049703
0.0623372041675878
0.061531077219817
0.0650955907853677
0.0595702471654924
0.0663166869728236
0.0630576730837217
0.06576650258236
0.0615850201261096
0.0707494293122959
0.0615981144499568
0.0663961635320825
0.0597195392393697
0.0629630291067638
0.057782843555295
0.0614985438843009
0.0619695446021107
0.0643911632164636
0.062062135335946
0.0630756532339745
0.0555934490891436
0.0632645243266277
0.0590427161811557
0.062966673494525
0.0602725195509063
0.0642528085670833
0.0581019129487041
0.0642639793861255
0.0576210970576075
0.0615898232886173
0.0556912129657632
0.0611231816455707
0.0574980680822709
0.065461730822433
0.0569979270784475
0.0574928750553466
0.0747620795425647
0.0607744803141367
0.0626015988101571
0.0591668738901338
0.0564201327552779
0.0608704198059235
0.059228695786676
0.058590535621465
0.0572797560576992
0.0581231297638875
0.0574970359181619
0.058278161215349
0.0571464039278359
0.0572552293347121
0.0558929131011671
0.0580832187417963
0.0605360876575114
0.0602332610547438
0.06075517092772
0.0550595704443712
0.0570820772764927
0.0666872188624995
0.0606844315461819
0.0578663555060871
0.0644512020102175
0.050108539091837
0.0687917954686049
0.0662948227835872
0.0588237896065174
0.0600631336745845
0.0567968424629823
0.0595760095037485
0.0567121258962334
0.0623092950957549
0.0556838954487912
0.0705848224453085
0.0528673337566392
0.0658047299640421
0.0571264529138403
0.0603463716323134
0.0516133621732517
0.0608050452569047
0.056810513909914
0.0559387064797369
0.0580765621969516
0.056938110536377
0.0550423945162176
0.0581102459754454
0.0577821560720274
0.059035033355025
0.0538499366992854
0.0638614719208131
0.0582985692814889
0.0618211029285265
0.0593526131815847
0.0570215078396595
0.04930440612306
0.0784558684937132
0.0524091009008667
0.0613690413529268
0.0541904143811916
0.0609781913308462
0.0544394113045028
0.060158610164915
0.0553056147820043
0.0606613376126254
0.0517212593253056
0.0614628455407381
0.0549677254274643
0.0612665344828811
0.0547976554946617
0.0582822261819941
0.0554658940786481
0.057459974938115
0.0578774541288574
0.0582780459929887
0.0608625753025185
0.0507686630921546
0.0545510664442301
0.0773805732264779
0.0605551616305495
0.0696262255077139
0.0577967218853315
0.0618798602137512
0.0524619065073488
0.0625232228841269
0.0515224928025698
0.0648171487465452
0.0521850482050797
0.063372693887055
0.0543061094939207
0.0630583623251189
0.0525607814754889
0.0629212418829924
0.0505493214361253
0.0614361646750951
0.0506449608738669
0.0634587938248512
0.0507211988305596
0.0654225260942825
0.0469965792286779
0.067600311916224
0.0523117682907386
0.0687192207518826
0.0375583977158994
0.077482104295231
0.0833079679857759
0.0545553228588622
0.0661405636308905
0.0565901713114765
0.0604581365244903
0.056752842413209
0.0556327983296866
0.0634672212237315
0.061963285629683
0.0583011057391945
0.0585621996602976
0.0571186384598603
0.0636594954703001
0.0562833053042201
0.0485801795179157
0.082725906193806
0.0612346809045477
0.0654654262648896
0.0585972035399778
0.0514758174563644
0.0815813456358896
0.0624928660172163
0.0616757709253317
0.0641197478580017
0.058496767642979
0.0606895978504425
0.0587541943290643
0.0579662042458719
0.0576903859009222
0.0665256162646212
0.0556116163174488
0.064936868612221
0.0524795511159352
0.0655472748262051
0.0599448826250412
0.0709494399467502
0.0706544077849024
0.059916354101571
0.0620953337829165
0.066434796152089
0.0594948545234822
0.063838274814933
0.0598928514572005
0.0664024759712472
0.0645274822955731
0.0765903187923759
0.0559009403940256
0.0741373870122992
0.0724928058440458
0.060196592694459
0.0663251034853204
0.0674359995831524
0.0716190573222211
0.0610382625480462
0.0477643807191502
0.104970969526187
0.0560815962675497
0.0956023058775377
0.0534789370408248
0.0775090845074619
0.0551216653229924
0.08075524479209
0.0517339925428306
0.0876041180504495
0.0620634968653269
0.0729991742128826
0.0603090867456967
0.0763301519439321
0.0773987527719908
0.0700740471111462
0.0724730950679734
0.0708507116020935
0.0672569649469897
0.0749100132336373
0.0777201529677561
0.0511584741369112
0.0884763063892333
0.0879793265056145
0.0838208621556522
0.0823926315566232
0.0498569466490788
0.112130624679512
0.0729128946278496
0.0781849472823645
0.0694353633664275
0.0767499828585476
0.0747918893375035
0.0588970215079277
0.0978016928444457
0.0874851653987779
0.0697328395803006
0.09088728786488
0.0606051898091472
0.0964492127838475
0.0852431593378992
0.0842522907657017
0.0733778056315395
0.0923534540714104
0.0591387846273823
0.110823520680588
0.0985502228086976
0.0773755689432447
0.110869793083967
0.0865553929054697
0.0992657715111448
0.0907607038892351
0.0919883987845089
0.0901759528198052
0.104729284429779
0.0947612234676771
0.0837466820462551
0.0904152080671077
0.126365530123395
0.0883826834191573
0.109062091438855
0.0963549474926635
0.081809212529101
0.111028855645164
0.14391545270699
0.124483573837108
0.111002862411461
0.09426262377538
0.127942021760994
0.108279573266755
0.105578874974347
0.110270704200778
0.108703215647437
0.112843077181544
0.107036677307116
0.123760737862106
0.119129511199407
0.117774138973434
0.12401467175653
0.113216030431153
0.121503216500915
0.13428533201932
0.167323830057891
0.117042645479972
0.1694224700204
0.143410631266251
0.136568078816875
0.133193974720631
0.126085328421128
0.147647948399124
0.135754123158594
0.140973723768491
0.127892908598185
0.160525649778207
0.160242323660484
0.131393229571303
0.181395131882956
0.139895909774722
0.168951792478338
0.0852347333859179
0.330213180236585
0.180856232333087
0.182942701335565
0.187684446449857
0.138695424415745
0.268659373171606
0.19960559962933
0.202528560641042
0.205173923251351
0.214013546238431
0.212996733480775
0.224927569131102
0.225088100944833
0.239609159370197
0.246281509006569
0.236902363138273
0.237031807665867
0.322819999701569
0.293713755165013
0.307749651872103
0.271213912168315
0.302882654997673
0.310476371742821
0.311136312292116
0.312468170513892
0.326135886982454
0.287125943765434
0.418879417613466
0.332132657557058
0.370819894212434
0.34168313315481
0.408966580786296
0.343099048761191
0.422363549808405
0.420581717795172
0.396817816570626
0.415775132046981
0.410498152041245
0.436713994176027
0.405625937132531
0.470130398587165
0.457537915705097
0.44224753195492
0.460026698665575
0.453664997745302
0.476141135751487
0.458910432112292
0.483186546349253
0.464662264675974
0.522169182875643
0.444735927508426
0.657066785508005
0.542749542691945
0.481295028282616
0.513652409626096
0.483407055144307
0.529442750035085
0.506658475123843
0.519527359176978
0.540258670115711
0.49274122696534
0.523797073828488
0.500187735860108
0.522903964325175
0.490617954677059
0.526355317900146
0.482218427525218
0.530463308266143
0.497924902871133
0.499833035133771
0.598145616463828
0.506881785281476
0.51888705035026
0.498960626029095
0.506392754903149
0.491954015397571
0.498070236470362
0.485384662920227
0.528360063518662
0.484603564590893
0.497089864846522
0.474330932417433
0.490318810291862
0.5121301277112
0.470297106277019
0.481799251227078
0.465079853091405
0.469144698065869
0.446526116836142
0.425476039787556
0.52993767977211
0.453657890304091
0.445671556519248
0.439882363620188
0.44008539734908
0.437447003653278
0.427823818366734
0.429483178995516
0.438044986181275
0.416436861351374
0.432898653863197
0.417084471899695
0.423171360821456
0.421068158705928
0.425229585615945
0.430260299429008
0.4150314017168
0.423662750834981
0.409968566290252
0.41848595211121
0.407844537189543
0.408036160782292
0.411485174317867
0.410522012853347
0.418504898640687
0.405836504508037
0.409142870980564
0.410901127131611
0.404747995844059
0.4182179299209
0.402943225347642
0.407034206862873
0.399809305409215
0.404476410612869
0.406393775315205
0.403240865664809
0.400549335533965
0.404595238044073
0.387579782255937
0.403520971175281
0.383863715085578
0.405186716081783
0.362601251142023
0.41543081068197
0.425570044334782
0.38146209605937
0.396152826482948
0.369397047176264
0.397655529704678
0.355783171853637
0.417978904460113
0.411388260422284
0.377711834140354
0.381775618232824
0.365385985101022
0.372282369683692
0.379249406813855
0.349878065419512
0.378860467236116
0.34328984430548
0.357388023126486
0.42360206230714
0.318038545833459
0.447621864346588
0.360348318996653
0.362699799441217
0.320961440697275
0.406204134088789
0.331045887101718
0.360764790035537
0.333147033393427
0.374917352957632
0.359365345382725
0.333220382741308
0.344356136857593
0.330715363612375
0.335428281983488
0.361736721029953
0.338515426511557
0.321593348185847
0.375905637147783
0.32366488544375
0.354561702062316
0.366029610744789
0.354764674884481
0.315003611384195
0.315504248083966
0.319088571957853
0.283734886311677
0.356950854001839
0.310153623263141
0.314606937990095
0.303062639165947
0.288241227027417
0.294442220744118
0.290001885440099
0.315793484860515
0.264887021754859
0.336391366215541
0.267720109615776
0.288457266256464
0.292771595505745
0.28223084098572
0.325080004026762
0.284046453605755
0.266700233165962
0.269489764039701
0.316070015379369
0.260450727574608
0.286101914304624
0.268880977014922
0.251547982880652
0.285402536839989
0.260817540413686
0.262030327572695
0.275527011975125
0.248766810919115
0.295944399402413
0.279274000003835
0.301776038448468
0.269367112454698
0.245084966658139
0.250867043787703
0.240437826938426
0.255550602553309
0.23466884652129
0.250253221093043
0.276620968498273
0.211476060355147
0.308812916435393
0.259699897857558
0.252842487651081
0.254634240166114
0.251105182566677
0.24664920141543
0.27049086112876
0.279750689312257
0.294280602139959
0.256719856967724
0.301169294815015
0.264803373760034
0.293838044603748
0.274893030378885
0.295606154146744
0.287065419107334
0.308868675670901
0.300032921950402
0.311940871687908
0.310388170703623
0.327436197570215
0.306911067124519
0.383758180236659
0.317617832657333
0.378493823115756
0.350443599072799
0.404334746976922
0.388405951425888
0.375757988391756
0.384913880306459
0.382387551372617
0.394853098779761
0.406741214392268
0.383260018511976
0.447618999025129
0.402421454348589
0.42664336007346
0.413278069386927
0.434990445575228
0.417328000107545
0.458014660711719
0.447538226824482
0.445130567940465
0.511259512417426
0.445995937545981
0.474144337101805
0.451874005220344
0.464536960946035
0.46428836200987
0.458054292437573
0.469046410633967
0.452298695829943
0.492715486905967
0.474561971502573
0.475815510295632
0.480932007154372
0.485085022135827
0.486689968763842
0.488582211327188
0.479162526759217
0.488406639742974
0.486160940752294
0.50214742083237
0.458551591196529
0.559837021930563
0.521818706788597
0.503141849027397
0.51412634294008
0.518039147323195
0.534554356007326
0.522230926503739
0.542321038222062
0.543534667565531
0.528256174556598
0.543246154718179
0.539920502703227
0.556097548185972
0.552447178631895
0.58913293367488
0.547549056194712
0.566362769220799
0.560224013896242
0.534020772716176
0.630675158877296
0.55646667212486
0.607562480243606
0.579098539736203
0.592321461835123
0.577080995710485
0.586770990759603
0.579540835726276
0.587532645387956
0.588237383033886
0.593121788338189
0.595651976409395
0.586417321031349
0.593443232206611
0.587071009570974
0.605123690770915
0.594602613214889
0.579340064524111
0.586168218586344
0.594162707506018
0.578662410159003
0.583922790812076
0.610411898939964
0.578103749681795
0.593931785266194
0.575279403388912
0.60161590622975
0.602152590930149
0.580719022600793
0.574473045312245
0.58085709614108
0.579795425474452
0.59152620195876
0.576598024718813
0.623093390282669
0.595184801203473
0.599494280590928
0.594279667251689
0.604909127043557
0.603417916102254
0.607138884549359
0.603746415358012
0.611529819993279
0.603402046602484
0.614637654907274
0.615289431536347
0.619979248942215
0.623409997659076
0.613034762467912
0.625779882104424
0.609384333050867
0.601535342564182
0.616517586410461
0.602015952308065
0.611106647498912
0.597865463605121
0.600268768818897
0.591663074303497
0.59708847582901
0.572800219603972
0.602796692845624
0.573059447748306
0.568908956064389
0.573562237345153
0.558051401933179
0.560662896784178
0.552661426338003
0.560316644198954
0.547074107422495
0.55418881620079
0.541472937473635
0.53879111385596
0.536554208919768
0.526253826403509
0.529008748879511
0.538806330469811
0.535291713343936
0.528667225630977
0.527444447316284
0.527057956887604
0.529219947419015
0.525615041715291
0.529168671870785
0.521660619374749
0.529789480026867
0.541784301165743
0.535269437513767
0.53444209019455
0.52323183223877
0.538643256083888
0.515639266699945
0.529031042010036
0.519669735476845
0.527465826905877
0.521832115517662
0.526227070523902
0.522978582835153
0.520276293422176
0.518340806364668
0.517370804021003
0.519678836371408
0.522953657039146
0.518317510525783
0.523310879873
0.519165941443064
0.522894492964113
0.52076644463374
0.523168691403088
0.518830088280071
0.514874427535941
0.519035761290898
0.514734653294753
0.517351475504454
0.511436509874906
0.518822957184483
0.524054799800859
0.515474889045108
0.523815645281294
0.516670464651188
0.520132972744602
0.51607185421864
0.515769967731208
0.517794415139213
0.511634727890977
0.508645427787756
0.506562698207838
0.500865428176891
0.495139798550631
0.493673077887961
0.495039635791305
0.487121400869733
0.484509957285821
0.483201413120772
0.476937504588144
0.472041983672456
0.470441797402458
0.465682577077741
0.461840975519012
0.459198632754411
0.458887817479064
0.454582729730964
0.454982219187689
0.454040316351958
0.446520487750263
0.446605328870021
0.447195796785994
0.448940109649888
0.448468893367927
0.448782817874089
0.448190477285838
0.442913315745502
0.446010752548821
0.449026345909398
0.446651419999813
0.44613861695269
0.448815674533293
0.454066838934673
0.453702584490394
0.459929713518069
0.453934937782632
0.461239341480168
0.459626822059152
0.46426424938952
0.468633808029288
0.465164540624676
0.472497438121765
0.469383640807805
0.471017876484987
0.474444639217001
0.475618790854772
0.475299169926183
0.475419190259111
0.47764602822635
0.477607222125491
0.475428972087302
0.474720759702829
0.475178639347797
0.475140203561735
0.470955887907844
0.472333251618322
0.473652024767245
0.473106095664175
0.4680072070682
0.474649517565553
0.471000583408068
0.465704303594438
0.46309423520095
0.46070952499419
0.460240362393143
0.459578811570479
0.454166387455022
0.459462348311369
0.451727479293783
0.451509850745851
0.452608036069353
0.452956665186514
0.451171477945231
0.44719888360054
0.446959420841965
0.448007679651134
0.440710273372205
0.441697298708246
0.439500384215255
0.438330284247832
0.438467795858214
0.435550408928102
0.435584201145929
0.43406621517145
0.429192820117485
0.4314504326734
0.431156417970476
0.429441001607249
0.423989317695752
0.423554104903027
0.423014113042368
0.419243644205531
0.417259676991507
0.416055846772946
0.414327188175528
0.410007626346056
0.405977468283877
0.400845164068264
0.401289738716478
0.396766288253699
0.395597888524058
0.391719085722173
0.389786614579246
0.390003530832933
0.38547496427873
0.38619444429657
0.384210330228035
0.381360418387252
0.383671233826449
0.380218147668401
0.380517138089131
0.378936215951826
0.376484073941814
0.374775122470619
0.371874237359814
0.372732357754844
0.368932262242224
0.363291336498629
0.360952832568197
0.35592457534106
0.351713921987182
0.348337653765881
0.343147269560097
0.340658692875726
0.335277686276217
0.332724395295836
0.332964202437394
0.334532406699886
0.33714709465756
0.342020031949276
0.347828698304787
0.351681291934077
0.363942029689437
0.377166377236513
0.384877036926469
0.395065936989743
0.412269928085129
0.428756590258246
0.443472830924785
0.460834161617387
0.477573902595647
0.496852001566076
0.510161007405761
0.530681622682115
0.545391362677969
0.562047580397343
0.576228951326907
0.594381129096488
0.612494609026365
0.62855025906352
0.640066111770039
0.65678233119247
0.672716176272507
0.683084851903881
0.693181441192071
0.703026605030941
0.721122868750479
0.728559922418783
0.732880501896444
0.737800635831053
0.749500806233806
0.762514788488982
0.767138920472228
0.772494365847886
0.776850265448381
0.775675165779805
0.77472304865115
0.786495870127625
0.782325118801762
0.777200345188648
0.784349849939496
0.784081813337367
0.780215036011197
0.781784527211903
0.78038037033253
0.79023056817932
0.795377962526525
0.795866306039475
0.795778073740038
0.802940227364792
0.810284174769716
0.813439672340287
0.82410975557368
0.833294107760502
0.833179796381168
0.840819909519403
0.854608902503629
0.858822809931975
0.862170285017423
0.883537597690889
0.892753235242814
0.897214748826408
0.905338536585354
0.922448434491932
0.947377676136536
0.955689701021201
0.955293078230651
0.971676264564084
0.982739956276564
0.981360509753082
0.996928322851088
1.00332506826488
0.991035083216705
0.998582769302598
1.00837239443801
1.01143711717756
0.991812387205996
0.99286773209263
0.99416427687059
0.977404023629705
0.989595174945406
0.978372915625224
0.982761103092652
0.991249753401066
0.984977467020828
1.00633678135484
1.02931994441851
1.039881458943
1.04592398369302
1.06118055394734
1.07843283705324
1.09601145476485
1.10587796010876
1.12282902696617
1.14896862208848
1.16091583060053
1.18291012191629
1.21566119544099
1.22741725101384
1.21110838836454
1.25027819540801
1.26289926682749
1.2822585491613
1.31476528266647
1.29679595552996
1.32120157435003
1.3611994166864
1.37013810617405
1.41438282271617
1.4642324941823
1.50119975552376
1.49956505619067
1.52023738939204
1.50786443323727
1.5273437986744
1.61146774272662
1.57154159366137
1.61844929180281
1.69460151459947
1.65375138735275
1.62647520978714
1.59854277823992
1.64065627267217
1.66794046095665
1.67769045321269
1.66714977891724
1.67756367341847
1.67095860528433
1.65391750271053
1.67331879820648
1.67420696772228
1.6529227735231
1.68645246399787
1.631485137072
1.61483911751112
1.65857880330041
1.71459179705534
1.66062513312901
1.67062633789917
1.72225680511694
1.69544327959955
1.73574357413894
1.83890708091062
1.80900301624586
1.84294229932734
1.85297299839224
1.76186516988913
1.81373630527366
1.90465180045756
1.86039062377639
1.83760490724912
1.78491308462264
1.9340973586067
2.01066490952336
1.85253996527614
1.89291539479339
1.86766349350807
1.86446213156629
1.91523101371252
1.88728127663645
1.93306863809365
1.94011705750502
1.99691665883704
2.07490309226231
2.03882789920177
2.06541604773661
2.22719255277145
2.07761821109065
1.85832070309464
1.93365135375117
1.95017272260697
1.9186854616594
2.02188864694995
1.88481150272427
1.91473993583755
1.92973341422075
1.91275846012749
1.86827140191885
1.91040126563922
1.9322512466405
1.86416438853695
1.78639372366388
1.73852219109031
1.73066188776368
1.64230858445705
1.59344117913183
1.59046784367637
1.53451142568511
1.47814094827502
1.39486344105956
1.37120297913307
1.38452257467855
1.3170077590876
1.28222489234618
1.27407918827659
1.22809397604194
1.22993418975389
1.22069759857735
1.22304009172361
1.19909616211376
1.20159664475269
1.18743523600718
1.18706704574991
1.16807395567484
1.12598817190996
1.14880220959033
1.16014531684676
1.13775150746754
1.10048877063804
1.09050096417924
1.08511077655552
1.0515824766746
1.03173723302756
1.01021440197209
0.975310769368099
0.944611175545872
0.927727900781351
0.884794922852162
0.849824669415829
0.833840322822483
0.78903903628139
0.747423792820544
0.731759426111359
0.692846437198618
0.653374130752302
0.629245807829987
0.59829592089233
0.580257475716857
0.563388366636062
0.537503297061226
0.513355411946669
0.499224841551019
0.483248108081394
0.468449000789876
0.458997795024887
0.448472837436993
0.438373707808625
0.425786375937603
0.423627678137489
0.422329773993054
0.422226317640356
0.414350221880811
0.41530944210296
0.40673284880801
0.405833519926971
0.406626164053503
0.40761564183035
0.414012663396217
0.412524892503734
0.408492447706184
0.412948972175057
0.41678793244167
0.415284035694167
0.413916852564896
0.422140735796339
0.420270919606111
0.418702293427406
0.405600213607024
0.406542239673951
0.408721926531645
0.400871616928723
0.395505217163319
0.397695842361799
0.387207619890395
0.386719543845189
0.386629002853167
0.381167089840228
0.379985356443578
0.380017803533612
0.381277876264263
0.38574369070677
0.38004516501567
0.388056207774945
0.390547409394653
0.396150255497736
0.401566162187088
0.402864479803988
0.399342144995057
0.401757942067648
0.409258761286997
0.410239758509425
0.407519535552947
0.411327629636431
0.422670556298743
0.423797911916488
0.421591394511859
0.429552984606896
0.42169407135825
0.420711159279479
0.419822651839075
0.427727446401163
0.429964264603633
0.432287202626338
0.43226183546855
0.425901231172088
0.434142017927645
0.441159404182657
0.444092363078674
0.450922484156287
0.456850358619195
0.473812033074501
0.473034720452914
0.482958567891519
0.497959943129649
0.510632136901868
0.529203211125774
0.540016342968943
0.560027109654675
0.565268634429845
0.563670268949654
0.571029844427217
0.574575736645777
0.583730308184482
0.574635823574215
0.552550113968271
0.542876686545276
0.548428608598054
0.539129070641956
0.520042840336549
0.522948929796943
0.518435918577815
0.51925175310121
0.513708095510746
0.502765499913608
0.502769522339747
0.510769308144919
0.524179217229263
0.52137601900167
0.514134287805283
0.517751872093052
0.516438509983717
0.506270227417878
0.510615109839356
0.507738708996743
0.49074246506738
0.483804407979439
0.482171422914406
0.479193511515237
0.469018146771912
0.466493676865718
0.473154448800924
0.475523780468863
0.46172676581729
0.455963021063104
0.455987062617534
0.443799479032748
0.452217045377761
0.447159066639312
0.442559786148572
0.445132480987628
0.447116100038042
0.432188955757134
0.440671596782057
0.442118219100883
0.434351187937842
0.431449105278948
0.431000651559799
0.42181169914991
0.427927060230652
0.421645776325011
0.428871544521819
0.418501079530088
0.413114244739766
0.41652041205896
0.415012337366887
0.412528230291882
0.405666345413679
0.402960950629964
0.398770186751789
0.398553268543005
0.404145008493798
0.402753812571293
0.393564699940382
0.399121947962568
0.391935546913925
0.393412468138391
0.399334467306071
0.405877849079999
0.399211156419809
0.398419659799403
0.400722165676927
0.400790706318593
0.397600234410702
0.391757518838886
0.389741961467336
0.388915792611917
0.392419775473727
0.379434668175824
0.404306178606015
0.407000676303086
0.398528220204264
0.410600085238375
0.409276188298657
0.417243861061751
0.416202921769183
0.410701496464501
0.417370339914548
0.416385946332688
0.422952116149908
0.422566856118866
0.416123264518875
0.425090888933066
0.434727431685554
0.439754108332801
0.447752907064364
0.448882270041798
0.435511521805306
0.456823416562446
0.470821014474067
0.488555288917594
0.481994356724987
0.484866237019934
0.494984253374607
0.522142319791736
0.535402592683746
0.545389207075534
0.547427089895121
0.578280526295072
0.618253009064154
0.618398966937383
0.629388508579298
0.629842232275556
0.653680614090552
0.677316031235595
0.658223746184586
0.68928134085264
0.706113519325827
0.693769489655831
0.686122714750406
0.694099284319781
0.699197718671607
0.700529149826942
0.662557393592125
0.711642922198662
0.69533081118054
0.67227356062623
0.670599524656507
0.673842595046964
0.657629213129529
0.661521398442867
0.666901444576685
0.672520554914035
0.683760535718309
0.673247157676115
0.671298508915166
0.645110048389146
0.663302662826664
0.677202183161342
0.632697753249781
0.632324970548643
0.642828971155515
0.65584262206696
0.646622380805785
0.629033780527045
0.606093173173075
0.645449668331999
0.578375747000562
0.632527706824764
0.628296792277789
0.561151362449323
0.597730412388499
0.578558307491223
0.575531682303145
0.574686661517131
0.624048933429601
0.651430704889031
0.641680971952461
0.636921627113266
0.633904232558621
0.59850047631197
0.536075030322499
0.583551748908722
0.620531910272953
0.634962144034331
0.660751650104806
0.678675048162506
0.62614129484624
0.642341941496798
0.640813665992325
0.676709761802632
0.640572418715274
0.627461533394644
0.600666252851145
0.65653332923593
0.62912443310186
0.631231689829549
0.68753111181025
0.703851177555357
0.645105117440432
0.647873021336575
0.651206664257749
0.585912996911219
0.687875407042748
0.693240777436893
0.674376951952116
0.651750245489895
0.646628515633022
0.69780798410775
0.724153026032702
0.696004827866213
0.753795602495084
0.722678751723146
0.721766454967715
0.860970812425243
0.758669214496163
0.719515867448503
0.838809536002332
0.834951493090077
0.731787240130326
0.798369952669704
0.844586132076413
0.821568975310449
0.840002716529464
0.905886120414061
0.826442130034492
0.921253458135587
0.800770841917576
0.996074645647051
0.866671726441187
0.859780520934497
0.904726310554065
0.851251216852013
0.776778470317315
0.88070255586051
0.743535005356221
0.744110520930307
0.702162345702508
0.730545699153541
0.742066967499081
0.886064689764354
0.789387425702089
0.879239045696926
0.746552857404527
0.607450580394626
0.643559652856204
1.37038587069526
1.00230317785554
0.849175016800681
0.788226124629701
0.753405977584565
0.776457007291469
0.829107044631358
0.692139548074155
1.07786046149829
0.940384877039506
1.1576517383538
0.726489519019187
0.654630858567498
0.939164185868356
5
0.77726148576457
0.660804070464992
0.704370455735679
1.20047378192408
0.7497180732682
0.842047675320522
0.838259614354324
0.86651393407406
0.811226327440814
0.698034076969892
0.98491296304001
0.824241272074876
0.588287880436558
5
0.460275213092919
1.18808858610586
1.21112835798169
0.587561914338666
0.864441088098341
5
1.60503158690367
1.38449851665265
