3596
4000.36533379555
650.420452594757
1
2
2
0.0759311860603901
0.0679738929482757
0.0703565387556008
0.0666047600511802
0.0760851904712932
0.071849477879839
0.0716271919440449
0.0590954723235515
0.073168171485057
0.0582920480719692
0.0773813888077078
0.0682081705397162
0.0780031636197065
0.0703978733263327
0.0756112283747794
0.0604395489410894
0.0631729007436025
0.0575157288925007
0.0703560568007422
0.0624128914763152
0.0711070066621179
0.058764662910381
0.0745460907688431
0.0630716405560182
0.0754574077829605
0.0612078269029977
0.0696045520443438
0.0605794471133462
0.0734583297711732
0.0659509648206465
0.0792033719829895
0.0620270884576788
0.080149546195944
0.066520615539802
0.0756615869302063
0.0678082910504865
0.0776186311055872
0.0671559789790489
0.0643859372366629
0.0601292538008936
0.0768167623843361
0.0699538557732267
0.0813816310267977
0.0655837595490792
0.0736013666564949
0.0732999574325727
0.0792947288079189
0.0657414884767121
0.0748439163455192
0.0702206069262625
0.0750835573556399
0.0530292640567548
0.0831864723017631
0.0678417203499779
0.0730542751472179
0.0740118989114783
0.0711397899948498
0.0599444561490486
0.0709943285370148
0.0558504438178068
0.0981375258023771
0.0727987547810159
0.0745944289001776
0.055816059580254
0.0587044081405618
0.0636763864141252
0.0656792888714291
0.0599980582020892
0.0634468250498278
0.065074444856226
0.0524777039614249
0.0722816709834563
0.0797854575137082
0.0682056398203356
0.0832843072666477
0.0696585021621316
0.0641751540732936
0.0651973748958333
0.0592290127987292
0.068770551262104
0.0828785677844573
0.0695474347204604
0.0738213081714933
0.051752456717916
0.0707408014761669
0.0702661068022257
0.0462555429331462
0.0654235340598701
0.0760796255947822
0.064841580546905
0.0685423695296593
0.0593427572031644
0.0740844294801394
0.0552449649725085
0.0604135392053552
0.0638156198425219
0.0636670760313278
0.0713633603666456
0.0504745156182017
0.0733018390816767
0.05269532640322
0.0725828969755972
0.0870981381468
0.0482252130547575
0.123135574366392
0.0553748831787603
0.0741272737479616
0.0788508294984126
0.0734024581002542
0.0574760299822487
0.0639613513171663
0.0597096715874181
0.0660588427830389
0.071349040818195
0.0444410675207675
0.0862466513738554
0.0825409501140369
0.0739360601976989
0.0636201301084592
0.0643447901765045
0.034889115044551
0.094780143362723
0.0932731153795906
0.0636071425092898
0.0671528027065947
0.0530042681219058
0.0454860053438895
0.0870446435291176
0.0857163082711343
0.0571462348179545
0.0506689454057691
0.0633595585057968
0.0466734476459088
0.0597149836123072
0.0983567058722165
0.0559195556997347
0.0604663679240841
0.0399106722602802
0.0849830092161688
0.0947244123421001
0.0783098455768229
0.0603948348151161
0.0438419902974409
0.058866507101978
0.0808375132502542
0.0638802699762466
0.0560187008139455
0.076598779643486
0.0619731649672697
0.0600540228409919
0.057211710046711
0.0537714705727675
0.0838201321828708
0.0704715321485733
0.00338394667645598
0.117509106795551
0.0840625249292795
0.0992318753928369
0.104027811713387
0.0541407568834104
0.0760325637847863
0.0610413709983497
0.06799835988838
0.0517068221490713
0.0706532450390484
0.0367551374080587
0.0721358064699777
0.0742488883674769
0.0570550586471095
0.0534227909146011
0.0952256566519814
0.0589269038365162
0.0523878744847911
0.132837187667399
0.0655744138435097
0.053665886674733
0.0872915391073031
0.0690014903422439
0.0401627094171025
0.0718665683414152
0.0832934147990426
0.0573966033488311
0.0616265462554417
0.0454772209351825
0.061820720659945
0.0738417035847212
0.0617424393259587
0.0689598732451817
0.0601779272527692
0.0391804070234453
0.0641822949383707
0.103839278020558
0.0898452941071543
0.0722207221707002
0.0681885850784994
0.0297733215666695
0.108270610834543
0.0768434939639501
0.0755461114670863
0.0564931803579688
0.068960668974501
0.057900358034161
0.052879769155047
0.0616381342956432
0.0434175574799316
0.0280418208470289
0.106574711330436
0.0663306358288763
0.0685642261585987
0.0526366065450711
0.0633166825751971
0.0383402624817112
0.126247414916274
0.0730014760843915
0.0701587587484903
0.051422429625797
0.0594939384413241
0.0773608487813715
0.0779694305765564
0.0556254895240837
0.067236643176815
0.0488147157286701
0.0685117511094877
0.0545984132387634
0.0667799610656402
0.0627385342587181
0.0649891608411045
0.0588013135387529
0.0622621739178796
0.0576590305972121
0.0816687619777313
0.0563771675952024
0.0671720326762304
0.066776590980116
0.0438358033095038
0.0659120783894637
0.0784941685656841
0.0612509085004951
0.0682704701613878
0.0604148468937288
0.0607554812517202
0.0598923057450363
0.061460240995488
0.0584448811787152
0.0491875930085977
0.0530588285243647
0.102852850740072
0.0547794182119288
0.0800627221394675
0.0351819593678203
0.100350261217029
0.0603214376096343
0.0716055225795324
0.0509477536320572
0.0737832535795212
0.0390453764352177
0.0671103345996578
0.0839197236336906
0.0770084305145602
0.0500065315133424
0.0870290949563398
0.0601376247336367
0.077314044867414
0.0455885135693402
0.0636603992123065
0.132539293881001
0.0507983384948376
0.0561610694578388
0.128800054979083
0.0544959039401029
0.0913129323530522
0.0416884766734802
0.0392951887905058
0.166960844801134
0.121752132642184
0.0676688568786595
0.0726183746315356
0.0810479400257838
0.0578211086602043
0.0737218450669352
0.0533647076736142
0.0749833079320047
0.0734824130898222
0.103479454875667
0.119695249938786
0.0390208307381099
0.117231622054998
0.0746209151093358
0.0827894189123674
0.0632964269787739
0.0753793990334587
0.0533631841242864
0.0940468367937089
0.0655844380311645
0.0949373463658102
0.0559701077216541
0.0757543150356324
0.0878791984347792
0.0851970690567118
0.0608349526547665
0.0881218115539273
0.0702751735473973
0.0655520909894773
0.0697872688262793
0.0687997210313482
0.0791895646268471
0.0599254108458342
0.0540549448480684
0.122272731657739
0.0644284765709032
0.0835648138703541
0.0917555730635711
0.0854873518288863
0.0717784606605296
0.0703758644294576
0.0719447380067626
0.0797731129074824
0.0714799384619714
0.0741828579148084
0.102890219638102
0.0791761806800311
0.0760587263879084
0.0740052602042496
0.0670153494864732
0.0822209050652054
0.0760769943953624
0.0749080751495407
0.0774774877092846
0.0820199137503561
0.0558102374410519
0.101477149727505
0.106762416784164
0.0546078169653
0.122970797715235
0.112262165532976
0.0872090516750223
0.0885319110039175
0.0774165581602026
0.0881624937926061
0.0753860229895156
0.0898991017766925
0.0827624560188457
0.0883652451318214
0.106501148678579
0.0930482545672242
0.074208882340642
0.0785169840644691
0.130265021147506
0.150494882730788
0.107361066513589
0.1063910490865
0.0636585291149857
0.142781338014283
0.0871283837339938
0.130538485786429
0.112317283102662
0.100889489597071
0.104064544286639
0.0994821305180305
0.110901588477824
0.1046379253667
0.11200416259893
0.104485077246428
0.10683933503306
0.114917150294779
0.123647896992626
0.100919379061713
0.111133054242169
0.162221875635528
0.121540498121611
0.124438673944444
0.12351083281658
0.0984992871552033
0.138078978756997
0.125212199795785
0.18884010678722
0.136722571761463
0.146718405495234
0.174554136674102
0.130344806993862
0.144238362447847
0.128861765244804
0.155520625953934
0.138818814096536
0.1521472107336
0.143389940250658
0.156419468864608
0.15006582437329
0.163325442271857
0.158340886612729
0.164366327520627
0.144143679185706
0.180227730894674
0.156951814531584
0.178261903930367
0.150503736886412
0.187599333163449
0.192646844562186
0.233493896133537
0.170526697193046
0.204462842638468
0.172182931185074
0.191618439429444
0.179631641109921
0.20634816589952
0.187809168069046
0.192881645238087
0.221444655685819
0.212957080623827
0.211570529380358
0.219452104908606
0.185033935710035
0.241313056498415
0.196284811903277
0.235292662952916
0.234890905727186
0.228901882515027
0.206345777331857
0.26809982640727
0.230254141140613
0.258562386813622
0.250362004467071
0.246043392758411
0.249296820114269
0.250166056142048
0.252924455109973
0.250533444348456
0.262141030933833
0.266772759379652
0.259998386837978
0.278674162372966
0.268496275224633
0.276433498148785
0.289664506648652
0.292658187413881
0.270464624350866
0.300232281465029
0.265533358550611
0.313469308519314
0.253957501692516
0.336340263619326
0.282847996050108
0.337714917916829
0.317464263848257
0.311449844279327
0.31129841115872
0.323225455006298
0.318276870938045
0.318323854187719
0.326375266253536
0.355976398495644
0.315626064643196
0.348685364788178
0.347692496253545
0.348581324863075
0.336369672834041
0.362981126830569
0.363111249004767
0.375152642996787
0.352424075515225
0.378641197246362
0.34030349673701
0.408739317997036
0.387358326292311
0.415889207434881
0.394331185095887
0.401263219091678
0.385150304958682
0.38726921068423
0.400577545598201
0.408239674652183
0.409141438348774
0.426504238181612
0.414804977489637
0.446050701532573
0.426273607343633
0.441836545354266
0.429811278030245
0.453724158477467
0.432886444532609
0.468339339938325
0.443775999097292
0.477589350402391
0.439438140986532
0.456568946905396
0.464191452896296
0.470597510080845
0.497346891192997
0.501588565012349
0.470116058056014
0.4946845252634
0.473741026268659
0.52335023465276
0.482980555225071
0.499190510313981
0.521948366231404
0.529601378640155
0.494823976086836
0.563658326338946
0.525713369569805
0.555716695794404
0.505089343777202
0.573360056779234
0.523602914158404
0.545606722893589
0.531996830749089
0.611514588134911
0.547065455383485
0.580841072251013
0.55598222577112
0.591417267366613
0.567873816988585
0.569620095898367
0.565510843930084
0.636368886318398
0.613331564032432
0.618287407149037
0.59340345356845
0.624940062821484
0.590231780070263
0.618343843097353
0.644046626096228
0.684438870103863
0.618601086646361
0.685460922143046
0.661831338898564
0.696099862574323
0.644589861187306
0.685112433675196
0.638390399507518
0.687264631587235
0.624674200262971
0.695655530922531
0.652397750825746
0.718091997680387
0.711942128289494
0.716638528985434
0.688677281001201
0.712467557328003
0.700832144141136
0.790278553672516
0.724397690111111
0.736065727495347
0.718736925679901
0.750521865840474
0.721205115199765
0.832881835462618
0.720404139212264
0.756271177142742
0.684435838069691
0.819443513638732
0.777919910406819
0.796328470950191
0.754036060409995
0.813498830786446
0.766486840572934
0.820149156238988
0.780176685768128
0.824699514743421
0.813344550270928
0.83626518996561
0.756386092105653
0.828745483650164
0.832889219113443
0.804554739057828
0.786704438056236
0.868451617240712
0.801189973992853
0.850506487587215
0.826987496539618
0.875298200620866
0.802755011148683
0.897948019078301
0.856216013704032
0.908439049779262
0.824194890976553
0.934764651555411
0.860863782633475
0.900862047494543
0.911461316461177
0.930506099541233
0.886182694955766
0.959103910590531
0.88565407050221
0.966728434608911
0.895719574404118
0.913750753918525
0.919007793097544
0.966628079916879
0.939393676075657
0.929874613614412
0.844681170005811
0.94968047410989
0.941982449381109
0.993170144407371
0.968582265270189
1.0342405763361
0.964419279302419
1.02873781531532
0.890708912846702
0.993767945552416
0.930519979216795
0.968418063557144
0.976157633952439
1.00010027511787
0.954396698735678
1.00752130862374
1.00807584069514
1.01427833098466
0.967130519154851
1.04377013389972
1.0765121594689
1.10633767934071
0.994750398002048
1.09447190874295
1.00242480240593
1.03107677772811
1.0426207133033
1.13624733840758
1.01546348257895
1.07258081211437
1.1143186654711
1.17263602512003
1.10185217120949
1.17022885266769
1.03609788487721
1.14447985247712
1.12709516860967
1.15170293231029
1.01110116601938
1.12300470754812
1.09025843250739
1.15851801729744
1.08073100386985
1.16687593021712
1.12043237590919
1.20377352031746
1.13426568352743
1.09391929593465
1.07191939415473
1.10079517180613
0.997815549452105
1.23557419447714
1.10417347197705
1.28064405159999
1.20138563634643
1.24576130637219
1.09136016553734
1.17304252601992
1.17922684438989
1.27817019243355
1.13077997017098
1.22512881091178
1.1449820795451
1.26339605358699
1.22859290134871
1.18262713918856
1.13724761183824
1.27309730025679
1.24042697542974
1.3029486157947
1.21655632041456
1.25432605070685
1.20011913134475
1.25043400679082
1.14203697340783
1.18970175960762
1.22277561900225
1.26698856675298
1.18771922306682
1.29015072301716
1.15513209613671
1.30506122255226
1.24632827305969
1.26211651231719
1.12518800530062
1.30809765385592
1.2637378218747
1.39330538022397
1.29176317648909
1.42443875970516
1.20809417717396
1.29681296300381
1.26487682817276
1.41595787370081
1.16301684888386
1.3096156807595
1.30180923441839
1.33002351247987
1.214278976687
1.26670870038374
1.16297358561494
1.34445909964632
1.16226437307876
1.29714773020822
1.26071431780412
1.27154826476948
1.20770739328726
1.36224396989407
1.27571209740001
1.34354992232645
1.18473099561062
1.33375729887995
1.3182188648125
1.31400507257992
1.25011224051961
1.2780218841738
1.27801924372999
1.30551291568635
1.23352719597927
1.43339154666085
1.40296710711568
1.42391760602407
1.35991630386151
1.34888664053249
1.17440037387487
1.40100519719953
1.30130796553549
1.50186669604
1.26572384178259
1.3952532928129
1.2944040085327
1.36595325854166
1.46185589341519
1.34815455546926
1.32644944346147
1.39167048658571
1.28929715649209
1.38285986964785
1.44692839474489
1.47916410025055
1.27495448190659
1.46680107692243
1.30943918890876
1.33245846637593
1.22001476158939
1.39737831742283
1.40404912795284
1.37083294398543
1.36986254122925
1.34589976708921
1.28859960851424
1.41917082136324
1.31842436688373
1.25585501642742
1.30435690411186
1.41735480647393
1.32808190825634
1.41196176528672
1.24313802909872
1.32527988288122
1.22648822343187
1.36567800419784
1.38906162374368
1.35450224934984
1.34077689557646
1.34892549518305
1.29214156730213
1.39056196647069
1.29457670352355
1.36007546671798
1.32624424689966
1.31594336843024
1.26925402818316
1.40334990542913
1.32654141563784
1.40594544908231
1.2917793562387
1.31616419768156
1.26666511488815
1.32217987934428
1.31824496129377
1.40901730951473
1.21988418822939
1.36115038828157
1.41033554399717
1.38278911368327
1.38333890589006
1.37762431094411
1.30607705579386
1.36449712533185
1.35330070686211
1.33608836883092
1.25720228435635
1.34844168359499
1.23933257902725
1.24167405900068
1.41187437379196
1.33267595142442
1.21086464437351
1.3202753374084
1.23180269503758
1.35101894003703
1.31938708765894
1.31031269079446
1.27758284368264
1.31039467818844
1.24436505505434
1.47405810593277
1.2762758246679
1.28375304994512
1.2494693885845
1.40290653113377
1.26844723605709
1.30182936582051
1.31475892468189
1.33365062714252
1.25169495660654
1.21749831536306
1.27997708188152
1.33987258919889
1.23414365462276
1.25058833168814
1.21755002759929
1.30299190802
1.27998058867114
1.29974132170882
1.27431100025376
1.33521401492466
1.23499331585386
1.31322824823322
1.24064948627643
1.30922678735995
1.2552454159104
1.21310145323955
1.19562165269884
1.20843509010469
1.15441530086108
1.23080278880694
1.26590230550392
1.3000645903406
1.26252356135214
1.33480541517927
1.16839097836883
1.2428242407413
1.1920321826171
1.22729245180125
1.20116820313422
1.20556006811804
1.15413805086867
1.19683476527005
1.19581116844932
1.25667256547752
1.23419591959076
1.32047536283611
1.23220681364608
1.17517442521287
1.21946248127084
1.19346102499448
1.15087400896774
1.23399557749732
1.20840851813637
1.23235307651133
1.13220872703062
1.23982883027032
1.15125439356014
1.1204257803029
1.11335260785385
1.18095524087601
1.11268575658086
1.16409485087007
1.12259769620571
1.20263974274204
1.11262109778606
1.19161235239689
1.13284964680165
1.14226591189296
1.10681666537017
1.19041002925222
1.07606406937596
1.152987455936
1.13466657252752
1.09777167021403
1.06387784409699
1.09052006567138
1.10772538192562
1.09870581502241
1.08166578714649
1.07135858985228
1.06697326262449
1.06712761383042
1.06783775055749
1.11742696306268
1.05958888212739
1.09916171983207
1.10147272104563
1.06088300386173
1.00285762630779
1.0510383735594
1.02653866063537
1.05090642236566
1.04503696749942
1.05174722420333
1.07720976947913
1.02918914226535
0.991037252873031
0.996928470261419
0.954781129815872
1.03889394049278
0.970310827873945
1.01735728794052
1.0001173214106
1.00407466870315
0.982788389615065
1.02438977340771
0.944153700661288
0.999229091974823
0.961353976593781
0.939422237879827
0.952974645827286
0.964618405750063
0.929418609250711
0.940475989270178
0.947047081884109
1.00403382334957
0.936378681776065
0.900737270101387
0.91942086340221
0.942945366283135
0.927605470293934
0.917620555175348
0.890042472838966
0.889680294812521
0.892328566507604
0.914073172171051
0.889019097945618
0.911953739451865
0.889637340172527
0.894465576834003
0.882629184163623
0.887572732027114
0.849634962524055
0.834584190752094
0.841885347006077
0.878444845492353
0.835108534243575
0.862173196439789
0.849018657109629
0.849269762753036
0.84045127426046
0.856631430723959
0.840093900823412
0.818984260720432
0.789819710168194
0.781872068771263
0.832437293808711
0.830540709895736
0.801117850195705
0.813693736752317
0.812520262809905
0.810100948517511
0.773448750206747
0.783944155950226
0.781297066114074
0.788753101641779
0.746304616706691
0.765424898677953
0.763205777290617
0.776945642790994
0.75741165242564
0.763920701585659
0.748179425989236
0.752165850368559
0.750468463395463
0.726150334593409
0.716271177697212
0.735078220247836
0.717657110439724
0.737513385871317
0.730971075829203
0.722067441433572
0.718741485376713
0.715884413790152
0.714915847288673
0.706692770174035
0.703551519679238
0.70312343634136
0.684131615965975
0.706236511139196
0.68799383720317
0.687381601387067
0.684782738306342
0.673443060362763
0.657689140603512
0.659869235395605
0.667591847539457
0.662891103571085
0.655744897444403
0.664685889729736
0.658460387866268
0.665231878303535
0.648351140210705
0.649606547652042
0.635415821592436
0.64515182135001
0.642481972932418
0.633544935911528
0.629162503660508
0.633968416164465
0.615678878899165
0.620567169480139
0.618628694746222
0.620060147980818
0.617719841747575
0.614567869699335
0.607524611793376
0.600289744713005
0.602321088389507
0.597852570130245
0.591709059666437
0.594052651717651
0.584504365558417
0.592746937068691
0.573972558066762
0.578000907459777
0.581839069112835
0.581771595644289
0.567016124908387
0.577136769262064
0.572780931045703
0.557961199829174
0.555640795883217
0.562635148184383
0.55234861040222
0.547119980167515
0.552725807879267
0.54357802028016
0.543134031157619
0.552563924347113
0.542234409184997
0.532116247471195
0.528893453440404
0.535537810376781
0.517092264590189
0.520210541277603
0.515137115703904
0.518662853344984
0.517045007797516
0.522941783284245
0.514969466203888
0.511929104489558
0.50684908171257
0.511131449441821
0.501990380439134
0.501366372635176
0.499286544163865
0.495314673232106
0.494381218427927
0.493154518993823
0.491304241055356
0.482922320220758
0.4891919111555
0.485625334842778
0.483623615065824
0.484042657838444
0.473553713335355
0.487645277191858
0.473505832353211
0.469730695055224
0.467970103324189
0.464154126582825
0.466278319120246
0.471486948977087
0.466086350968284
0.460027454855072
0.463569789648733
0.458044221789059
0.463264937532876
0.46196979079286
0.452119982493833
0.459325306115783
0.45548356498574
0.449408190717849
0.449399695547532
0.456661254163362
0.449378924672563
0.449845900752505
0.445961237231512
0.444647768101706
0.445889577992183
0.445595132885259
0.452003342305647
0.45818975381056
0.449995778894628
0.446116703709251
0.448579262463055
0.447294883688244
0.458286643483384
0.459319442511358
0.456639076614389
0.457924782013943
0.450026258902509
0.45031966114379
0.455746513434753
0.456320029260157
0.450199799237153
0.450457729397961
0.462447919714155
0.463248959333929
0.453411303977027
0.467533818342913
0.467240973965977
0.455408423434774
0.46782068442944
0.472856305431765
0.465410918677286
0.468745402220123
0.470865798649014
0.468993217339539
0.479402072375174
0.483850537927392
0.479653508406754
0.481339253725631
0.483313284117078
0.492258164262891
0.48550711164454
0.481286907020042
0.494877182154978
0.502578945204137
0.491750595116679
0.500393940859423
0.501670335790823
0.504564497046588
0.507921951100802
0.512887966694439
0.510035156905059
0.509923490407442
0.510110373238203
0.521651204368998
0.526889784243219
0.52977782180047
0.531562396988365
0.533728370176082
0.534140927387091
0.538499064609574
0.545647498642459
0.55531039570963
0.5523698555129
0.557593949634516
0.557549283176528
0.559164273499739
0.558023104042825
0.558358746614756
0.561133738729311
0.568123961746732
0.568491184568334
0.579453919737055
0.574366462085592
0.568506016974035
0.574916023503753
0.581527417401226
0.582833591259356
0.569956779279825
0.573836062675042
0.577361806004389
0.577598639885896
0.595949924272041
0.577659686494059
0.577752213808529
0.584346337054974
0.570279255893223
0.576912025327473
0.579487699220553
0.575556599750473
0.566498792174556
0.553166608045844
0.563296278612422
0.56783753857724
0.567044830366795
0.577547846503963
0.568994837141547
0.564611470003038
0.569788068192236
0.577198719021448
0.570957568372707
0.561529862261148
0.575413031323985
0.572787135737595
0.567255597579961
0.562596929903795
0.572508042517332
0.579971990092885
0.593294957405333
0.579821694491393
0.570154915616724
0.577767457042453
0.57070927771519
0.58374354614656
0.588057546258286
0.569178672898194
0.575568092028795
0.580399879171198
0.57066097874337
0.574082425673187
0.576054028575532
0.568104865558801
0.578423175140975
0.581288273136201
0.57121184479548
0.576736194246019
0.573310754584528
0.569114889212536
0.564339772765944
0.566406402171446
0.565303188005052
0.568757301551339
0.568660133280495
0.561661638972818
0.557029329231763
0.559671850089421
0.556229296998649
0.550598525312103
0.545893440592148
0.537511389807622
0.541794389551906
0.542968804091036
0.540827415689338
0.53873375156522
0.53633475510665
0.531814433905059
0.526558581583415
0.528918124621192
0.524024954154865
0.521616119413539
0.511769583793629
0.507118831421597
0.507639118247588
0.505817005389693
0.49521273342925
0.496535294066011
0.501002081694976
0.48179115356132
0.481180853188314
0.489808956701819
0.478869309236191
0.474903617682721
0.468877152534918
0.473108613130398
0.463354770232242
0.458662512815543
0.463984260981556
0.460168350253574
0.45221008169845
0.445530905570658
0.44972437927336
0.450822202902727
0.439144118320551
0.446794201602012
0.44259262619791
0.439176941814977
0.43705158055689
0.434660000810535
0.429525815073118
0.433072077843188
0.42460531153437
0.420923835986712
0.42496875055014
0.420642446018165
0.418968379478026
0.416679328319198
0.410406162055186
0.418808748026272
0.412663632851284
0.406671223652366
0.409137846879064
0.405021233175461
0.398040914628989
0.408621681693333
0.397165052909729
0.395335993058319
0.398178530095791
0.399970692461631
0.397466487600447
0.395560463288781
0.389309776286348
0.389312407139867
0.386441434959668
0.379880937259835
0.38767968163927
0.393884954601738
0.38240903996776
0.380222972303819
0.377672874959085
0.378941767558465
0.377594317646391
0.375805304398934
0.373013748518514
0.380190396431214
0.373965677642514
0.371839382147335
0.369132178812494
0.369617851213135
0.368596870366811
0.367022897616416
0.359555932038679
0.366889635971526
0.361568882267505
0.360916222162038
0.3619822900868
0.35662747996178
0.360398533320864
0.363216336798717
0.354749452123694
0.358511871653431
0.352309231147935
0.353444135314579
0.346651346192911
0.355861702947464
0.355045637077079
0.350242404294699
0.347772918749975
0.345472143839276
0.344969038047764
0.346076799281218
0.342005123036832
0.351049872205228
0.345388478070602
0.346856586398737
0.346245119467127
0.334455645587167
0.333575135630132
0.33785980418795
0.336260600710588
0.342068019960954
0.33851012894022
0.337892895192202
0.333856525480213
0.337927453417004
0.337429089395762
0.334706365405871
0.331508745349008
0.331638746401966
0.328775136990267
0.333217131613281
0.330342904160506
0.328234836077379
0.326567816994654
0.32909883447121
0.31868141851833
0.326334651452528
0.320532387065449
0.325937477656175
0.325052080775755
0.326657946846809
0.326583995386621
0.330688218455728
0.322058769955887
0.319586127837267
0.318724560570889
0.318886614569946
0.317994057871577
0.323141654166777
0.316671143473439
0.319550339568726
0.314468795388121
0.321432345908277
0.318450028087028
0.316715971113824
0.315955512100273
0.317440321865269
0.314604253967878
0.313926355550393
0.316291746343209
0.317460581353167
0.314095630454533
0.316457665784596
0.310792578652093
0.318357436560527
0.31254268966083
0.31177521183256
0.314923128249238
0.315064867216208
0.310923428441419
0.316781618328697
0.313955540464208
0.308104992456669
0.308984966683355
0.308917850863987
0.307855254619872
0.309573878166217
0.303420228870575
0.304994401645007
0.300913432667203
0.306253283972834
0.302607060203283
0.306894787925191
0.306206217412229
0.3028507755952
0.297626222389191
0.302685483453532
0.29779355496512
0.303690124199715
0.296140061142931
0.299737930928132
0.2967588032207
0.291476416720199
0.297704382606665
0.302153257001727
0.292118742518897
0.296195992794206
0.290982230730141
0.293070731643582
0.290863458649589
0.291834940480999
0.290325811234049
0.288119594346278
0.287885652085225
0.292189463273776
0.284450550540178
0.285689106051526
0.286552234438001
0.28254129953357
0.281139927155996
0.291156956909456
0.283843270838642
0.288475186629668
0.280143000668367
0.280625361378015
0.280909306628326
0.284977829368368
0.279085668094519
0.281729667131693
0.276742909996899
0.276805739106596
0.274244184470306
0.277885695030978
0.272875604120182
0.280955598351898
0.280143276857284
0.274079874441029
0.271462841229799
0.274618077462303
0.267742739583108
0.270016121141233
0.272716088129734
0.268933967251344
0.268588844466347
0.270760826959591
0.268604330233401
0.267065961400474
0.261205950670177
0.265225170401709
0.263111775787615
0.266476245210843
0.261410533005996
0.264081754944438
0.261043396113765
0.257794446993954
0.257931667660748
0.261209053739929
0.252006632379036
0.257567794899903
0.255747186752463
0.252742854089928
0.24973555563366
0.252568387224784
0.249501238435695
0.24771101678119
0.245957206232579
0.250651369021827
0.248251496827688
0.249693253778772
0.242254639693041
0.247077660134229
0.241831751299977
0.244043570610207
0.240221773521855
0.242780136043245
0.242137987985603
0.24302909016843
0.239258384309988
0.239240324334243
0.2339262565139
0.241357179260697
0.238964233749959
0.239769746428789
0.235535704305667
0.241289639720788
0.235912732886072
0.235155227309663
0.237467283396442
0.236077832715018
0.22586227299364
0.230656647858384
0.233146139310415
0.235161747169986
0.225926166162839
0.227152032584634
0.226166268383436
0.229784127923355
0.220208423809073
0.225030970329876
0.223876942430586
0.225935128035361
0.221178149445666
0.22316336701188
0.220827321061016
0.224236628573945
0.218215083147229
0.222842263567918
0.218881936130614
0.226882653806174
0.222651110424238
0.222431976674709
0.217461151555493
0.218973365644466
0.214185516307462
0.217193794681426
0.215141439281016
0.219117732998045
0.217015414199211
0.212491888558906
0.210088198665354
0.219620828127125
0.207991124648113
0.212099723491995
0.211557108696539
0.211052257799014
0.211373441978905
0.209512021089265
0.204455932975761
0.208557428591648
0.206489214304281
0.209094216110003
0.207090104398513
0.21194081623215
0.204576727695067
0.206695356787619
0.207661956741679
0.208073287601784
0.204161509154963
0.209342858118915
0.204075959384318
0.205124201726847
0.202709554164528
0.204591678675052
0.199913744489449
0.200727321038435
0.201181033479535
0.202487354248954
0.200907528979916
0.202468047716025
0.202644460557649
0.20129250785802
0.198532952574148
0.200390691469106
0.196778165350974
0.199482197927944
0.199270073658939
0.198775644139859
0.197423928501566
0.202231474181562
0.196800175495238
0.201603546569737
0.193254947362816
0.195326037304921
0.197183966110932
0.196761705482449
0.191731401248528
0.1987003182619
0.194665670151438
0.197514846407428
0.189996464880286
0.196221532835727
0.191079212771558
0.191767227734576
0.192212477328094
0.194283384465468
0.188248305147901
0.196692088171086
0.193452600290968
0.194410358149702
0.191594674808679
0.195427562512348
0.188624216811549
0.191259665321377
0.191129012652441
0.192041482341435
0.183937051314696
0.188820100936176
0.186770707283421
0.182860038207363
0.182662287954824
0.189340632831129
0.186200819412808
0.187347091366444
0.18359105183138
0.186042803245074
0.182405697204632
0.184703870793977
0.18369393852881
0.188543520926242
0.183549897944412
0.186491576297262
0.181271233660461
0.183105265032183
0.176483094138909
0.181353572508046
0.176898367443205
0.182034862613454
0.180236817976093
0.179545394982864
0.176282765637728
0.180232755192146
0.178919319099969
0.178926489734312
0.17796794404488
0.183280408871795
0.178718329486235
0.177876495994838
0.174124561636851
0.175684759936611
0.175260306242551
0.179648379720679
0.171586627777331
0.17888670713782
0.176836994440447
0.175793821373864
0.17158745493127
0.174675423701101
0.174299636855425
0.176522025202595
0.173824470159911
0.177461019800889
0.173417298721896
0.170845666586993
0.167880598227011
0.170476302161798
0.167343402314854
0.173570817546114
0.1657098211467
0.169215804532252
0.16931392166955
0.169608361271042
0.163968326989685
0.170343657278732
0.164226921795453
0.165188429267816
0.164738239632836
0.16939070693647
0.16575642759328
0.165187742467672
0.161624482626384
0.163477505591709
0.157869039671579
0.162356381360044
0.157566670229344
0.159310091408864
0.157421716014829
0.160126788693275
0.158702395818719
0.157422867701595
0.152677555087067
0.158707093769414
0.159473206813777
0.156946078447858
0.152119700649097
0.158273527111326
0.150695764950748
0.153155167357263
0.152117198138762
0.155883196889135
0.147880484502567
0.153699409806425
0.149329890427675
0.153937073863188
0.151387127516053
0.149134812358926
0.148246532895628
0.153037716088622
0.146808442137958
0.150873270388959
0.150656242272858
0.154669198639761
0.14543107594543
0.145997037820485
0.143598239962706
0.149430754869036
0.142030591503442
0.145237181542752
0.141073183754186
0.147037973976693
0.143325975894026
0.145372604528243
0.138194169813642
0.147406678063912
0.140840122142576
0.141198987643646
0.137856073713737
0.142815991495625
0.138551738815009
0.144395386114137
0.140614053526993
0.13943600632326
0.137825629160257
0.13748998275824
0.132660265575358
0.138767364220896
0.135016681375231
0.137669855940773
0.13675144581017
0.138503332822336
0.133371703772613
0.13906282647132
0.132366931411199
0.136277082301933
0.131302155050597
0.133489578437268
0.127573702146468
0.135031489184406
0.128990643542278
0.133470562014527
0.128632136626273
0.131839044139658
0.128849543184647
0.134052147295855
0.124648223794689
0.126225066870881
0.128876038939412
0.130004702117305
0.125921341335261
0.131127058099165
0.127853646146503
0.129619086702847
0.127014611988987
0.129440511075114
0.122824495451184
0.131589293097436
0.122962264111772
0.127689134029725
0.124368664661559
0.130750586536462
0.126356098808736
0.128242455315519
0.122220471948653
0.128293395607973
0.128058657161442
0.129435608401343
0.126136590731497
0.130549959861405
0.12889559918822
0.130405874175857
0.122590854777229
0.122875975246828
0.125062052146228
0.127531106551891
0.123450146597941
0.131420537750307
0.124996245756607
0.131308570715376
0.12913208594351
0.136073487351546
0.118600682479521
0.125036688309677
0.123763283957051
0.140362083093487
0.121235138247264
0.127557752697679
0.125064620053147
0.127171125815405
0.120728830948362
0.130222945787825
0.11358263749384
0.128973846812179
0.119723258991538
0.132092315869628
0.118596602581223
0.127306922577487
0.123872269475819
0.128681717219703
0.121385092625728
0.125801774477783
0.112702947250127
0.120544213028837
0.112723804821867
0.124481770578405
0.110026966918563
0.123867160162178
0.107808834799659
0.117974479352725
0.109687001385472
0.127834540584022
0.112297669902635
0.123213404751238
0.111657101984634
0.130061976317834
0.114507698282205
0.135107179765218
0.108307510116811
0.131322840864455
0.104938482925718
0.128546709073091
0.103852324288448
0.139029739161858
0.115643981671523
0.132459773915068
0.0983970767813816
0.137032111659428
0.112205105483351
0.138189161196689
0.101876555636015
0.130917741812844
0.114406968721257
0.125994655232528
0.108788875864717
0.122647452738077
0.115973062865975
0.115487082958525
0.120020864902651
0.117059462974374
0.124557646065985
0.112058677971783
0.123531133861609
0.107982498179339
0.122821293720666
0.113112582958254
0.112939204024501
0.114761473828985
0.113240504655233
0.115352685701771
0.10883957535496
0.117454552149202
0.111062943439704
0.111174518099277
0.111693541906018
0.110310701629636
0.111638687101221
0.112465379392526
0.110620041702025
0.111090676905083
0.112252087972169
0.112032201258994
0.109073798560915
0.111414960684824
0.109956414123725
0.110995540173926
0.110969793726759
0.112862897344783
0.109287677966865
0.111530441995986
0.107932300996187
0.110913857773126
0.109724618271176
0.109999780999114
0.10876196441515
0.110982269361313
0.106639833112195
0.11235181376847
0.108216856231887
0.109702333322947
0.109072615901944
0.110200810377165
0.108981873820134
0.111224162228884
0.111167283148993
0.113138842029893
0.109111072068775
0.109611691227758
0.111277340545682
0.110005835285523
0.108207686009327
0.111604535754847
0.109112320813097
0.112955490025047
0.110070983943314
0.112887347401493
0.111237476639122
0.108609759419268
0.108734890015131
0.113829702359791
0.109954510975956
0.111439163800584
0.110466428486112
0.111425310162525
0.107437678098171
0.11316546259747
0.109668624145487
0.109496618082818
0.109308832489325
0.11025938933319
0.108262767664665
0.109985720640877
0.106794057858384
0.112604373041312
0.10932060985302
0.113555621941362
0.109707790806808
0.112345513415105
0.109477840444756
0.113498975151257
0.109346689954147
0.112058550615991
0.111678631784793
0.110496340941291
0.109207121300503
0.110222170118259
0.108099324053828
0.111494937269408
0.108739383805154
0.112212749744195
0.113095619834627
0.113493882770675
0.109167340585092
0.112500952372583
0.112194246320329
0.111572769769757
0.110571602998562
0.114829919836864
0.11147669507645
0.110355540844808
0.112267507068565
0.111422412431119
0.110532229487383
0.114904497533742
0.109875103764587
0.114792892543679
0.112734776235663
0.114610638981282
0.111541793967805
0.115650288780841
0.112891161033407
0.115072462015497
0.111929718840584
0.113292816877734
0.112270086504051
0.11564866862103
0.112560257069419
0.112473497580345
0.114449444908566
0.117016324920044
0.11305152993594
0.115528680527302
0.112300643911209
0.117268457365581
0.113676285425997
0.116808737297451
0.11360879725872
0.116762092775229
0.113190910149098
0.115072167024055
0.112022462662231
0.117904714504001
0.113378113659576
0.115508684914556
0.111581722788337
0.116901216954158
0.11112441142412
0.11675782587643
0.112906598496229
0.116776658316662
0.115011323574933
0.117159763566942
0.11405794048696
0.117581000830391
0.117350301317452
0.117810690200501
0.11366204243155
0.116646131267717
0.114069218642684
0.118270720794097
0.11528132607369
0.11513346741356
0.114461675593028
0.120701578752556
0.11716860036334
0.119723225740396
0.118228777604008
0.118738319781968
0.113396655726615
0.117950633690574
0.115842188720477
0.11899420566855
0.119377003810421
0.121678819240752
0.116298600535093
0.12031213357647
0.117860574863221
0.122610714437834
0.114764229895608
0.120277926566049
0.116912323424522
0.120246655878925
0.119233370046839
0.120902435716378
0.115875908937929
0.117340485692068
0.115730505935012
0.12007340040982
0.117522429388692
0.121476706316842
0.118017730859279
0.120208051293176
0.115525298017821
0.117698928694812
0.1176805761841
0.118549288409762
0.117810270690177
0.115863189240556
0.115953566271437
0.118871653501857
0.117100538182611
0.119866638607454
0.117590969806896
0.116399241290913
0.112862125931642
0.117795472451988
0.114902207490904
0.11791187030977
0.113449130009386
0.115414647828142
0.114027135268676
0.116283019704166
0.111943135834832
0.115584611961664
0.11262545285056
0.115117152817373
0.110064235895142
0.114198168026501
0.11410924771819
0.113040466274335
0.111467603094651
0.115977396937713
0.111384035826142
0.114452793985839
0.109554841903762
0.115830963751592
0.111490196091058
0.113073416249195
0.109775149095797
0.112982670302359
0.114280768658537
0.116539585133016
0.11045569718523
0.111557090938882
0.112337098238137
0.114383943379257
0.10970062183246
0.112347777432304
0.109123984616493
0.112626663476442
0.108739410487495
0.113335422956067
0.10758675100431
0.112310705885425
0.109895370918866
0.112185558760478
0.107063757265761
0.111422337623917
0.107626825121301
0.113869986909947
0.108729341042254
0.110681579139673
0.111197815452958
0.114086579547662
0.110097058127119
0.107774434506277
0.105368366799953
0.110062614734807
0.106543785085577
0.106688710311126
0.108473450360311
0.110140785215049
0.106350474704494
0.109719285875047
0.104783693680071
0.109261577807648
0.107376858099727
0.107992985327578
0.104615047812435
0.108051335310691
0.103811571664215
0.107813804769805
0.105104263600095
0.107106664680069
0.106807790502662
0.104495118807592
0.106384629067121
0.109962702266902
0.10283575771218
0.110403752887878
0.105746175005549
0.106647654205083
0.107284179025975
0.107637961127319
0.103016283192609
0.104750352920816
0.102013934531052
0.10583889910423
0.102667588912383
0.109446249650192
0.103276218186765
0.106174575054829
0.10060170516638
0.105540404227878
0.104355153950121
0.104749370856504
0.0975480084230242
0.106468693218891
0.0998207101742434
0.103308866741469
0.0973560123577573
0.102581025584228
0.103941074170547
0.104427640385051
0.0998232026577671
0.101362278013792
0.0995449359850255
0.101424597087058
0.097893974669436
0.0990267231950679
0.0994915727611854
0.0994970274316136
0.0978919271261885
0.0974247994369509
0.0961643547389921
0.100595343008937
0.0979841072310638
0.0972274572609947
0.0935142074829486
0.0985785352833671
0.0947931519020553
0.0983207511591355
0.0940773235669755
0.100380290063913
0.0944134921958285
0.0962919342286383
0.0911540006732968
0.0937182214744453
0.0990156990551305
0.097339339104613
0.0922804206207099
0.0947921183396765
0.0899085608991005
0.0919324206813948
0.085499334871951
0.0941421214905921
0.0896183141239587
0.093068329286984
0.0879528760756339
0.088238560928628
0.087724023947569
0.088487895313666
0.0856039477518433
0.0905948645192988
0.0864157097722378
0.0892101096580431
0.0863669326038826
0.0873107082316432
0.0863919926096493
0.0886349805835518
0.0862893847518958
0.0873349980269569
0.0856308764993046
0.0862097158806088
0.0836655060371167
0.0952692861552421
0.0863707792504618
0.0863848085796614
0.0838129896621212
0.0900337200730408
0.0811744987755084
0.0868818230197757
0.0819835340127568
0.0871835948748558
0.081258625676064
0.0865357581310808
0.0820938695946924
0.084992720742145
0.0821050518958585
0.085876274169477
0.0825760072940265
0.0871671655916533
0.082324378260546
0.0821239993310391
0.0823065623439205
0.0832716929336157
0.0793688249545135
0.0818473266586043
0.0786218696063286
0.0854228561497105
0.0784676485384086
0.0879569065623064
0.0790970501125217
0.0848192793344081
0.0787840231290251
0.0823017577293456
0.0768992869860463
0.0793246289416686
0.0786838774387495
0.0830463460395482
0.0773985698731079
0.0810664599390567
0.0770468409501774
0.0812301201739481
0.0779822505940492
0.0834333405945686
0.0758241387560592
0.0810919145229324
0.0764321831231305
0.0776822045826947
0.0749592033790523
0.0807812546344032
0.0721819132031001
0.0788190903266423
0.0735057444965339
0.0815524653628104
0.0746659320289919
0.0740415928346209
0.0892097432385847
0.0785944298901611
0.0771338281491169
0.075040511196504
0.0753697519934289
0.0778148972069833
0.0738138944290993
0.0751987001802099
0.073935203228218
0.0746008140636785
0.07507252888501
0.0752156469402898
0.0761162496774105
0.0758843240322814
0.074008034854681
0.0734313530316601
0.0756247678026658
0.0762709557844659
0.0737549488162661
0.0714728869261191
0.0729940012381314
0.0825179373184326
0.0776473674005963
0.075544911765111
0.0777249695681811
0.0664632507177887
0.0854185144486418
0.0799348897635921
0.0728109648275123
0.0756141727350444
0.0721391236204035
0.0769557452582333
0.0731888759654528
0.0758223809114409
0.0724633587035112
0.0826678749148984
0.0713500525178821
0.0767352737357066
0.0725268304467859
0.077465244157283
0.0691005318515166
0.0753372668148348
0.0700604353627555
0.0740371913810412
0.0740273802071422
0.0764114153137715
0.0731752306366697
0.0713654702258719
0.0723274508957521
0.0752044304787055
0.0704313678480696
0.0810414633033008
0.0739497160368584
0.0739957161839964
0.0717686081661116
0.0730009732392974
0.064056410923458
0.0953370031058358
0.0678999370230702
0.0766930822920409
0.0668184011954849
0.0759187002016857
0.068810893438957
0.0770918523638174
0.0730471157519955
0.0762188734108163
0.0667906646874156
0.0757808210705352
0.0705075471158502
0.073114732283869
0.0702977512270562
0.0754008888806532
0.0698941378657046
0.0757854337274626
0.0727513667485783
0.0724386718122675
0.073840555125968
0.0661973275509792
0.0733610775013412
0.0907638567019513
0.0784158524713368
0.0813232221353852
0.0715253311060027
0.0778886411809189
0.0674579402903211
0.0781851063794996
0.0687246105301416
0.0791713645289052
0.0678121333886705
0.0772499352646672
0.0703922394291994
0.0769016044859333
0.0686615039616798
0.0773421100863855
0.0677849229393483
0.0785674104228702
0.0686481161089488
0.080021855463722
0.0669603666035032
0.0795762203307851
0.0637581435777273
0.0841807744054922
0.07086122002869
0.0846909523468915
0.0540900662172062
0.0959091330889815
0.0955193782065457
0.0726027403514659
0.0834080698093153
0.0716087435827357
0.0746111521301691
0.0738965643349968
0.0724565811651543
0.0783372801795449
0.0745528607448412
0.0753540738922024
0.0744207631941847
0.0729684503147511
0.0773740170294826
0.0730098603394374
0.0699146017824896
0.0999937083976304
0.0767886440603255
0.0826686808092363
0.0757714020227068
0.0693788285347707
0.0980286696967324
0.0757531751436361
0.0814362072138842
0.0792828574042318
0.074927224065732
0.077108176762326
0.077056918571368
0.0754164274197803
0.0763631199132711
0.0822220647712832
0.0721495521869595
0.0811639899649216
0.0706206943078771
0.0833618258479445
0.0782699278104338
0.0893108119309492
0.0897028383155739
0.0778982203350077
0.0800823850816647
0.0864089061573532
0.0760551132454284
0.0826200182182637
0.0803076868666111
0.0837540362660354
0.0802498976999589
0.0968759821931673
0.077034586454032
0.0916843082831498
0.0898092996695318
0.0786091678400216
0.0838929264775809
0.0865777636365197
0.0885621960379518
0.079938368249818
0.0735454523789047
0.117862819600957
0.078931666960347
0.112111279747961
0.0741614211212531
0.0952407828866946
0.0773182083635349
0.09715986279771
0.0721840996165631
0.108446642055426
0.0781196148482432
0.0931814995487256
0.0780661818804145
0.0992552438486809
0.0956422216532665
0.0905681939475467
0.0904003646274803
0.0925440888719075
0.086565737110154
0.0975689537153023
0.0941635023566592
0.0731843487241679
0.110392535603978
0.110449431371368
0.106609967559608
0.1027898207219
0.07242135942971
0.13663114582351
0.0926123289313647
0.100998535046954
0.0867071455799448
0.0985249019882423
0.0950656548586926
0.0866974690584006
0.117406583713327
0.105084789973154
0.0904322250803451
0.109714652181265
0.0835847860248348
0.11850139388848
0.106373578855495
0.102488579962352
0.091933260095982
0.113520441510732
0.0821503703318916
0.136260070754749
0.115468528145428
0.102374475399093
0.129236792698308
0.112043416760688
0.12200294473101
0.115198788165645
0.115330595935639
0.113802732043386
0.128155018890159
0.11642000412256
0.104860236545572
0.117473600779688
0.150638292826364
0.107480579588093
0.129090965711684
0.116019853658639
0.108126866900876
0.13943691257054
0.162126974804421
0.14329011690132
0.136260287798125
0.122140411127058
0.15097085623604
0.133958057255578
0.13231075924059
0.131525624356811
0.132932303926715
0.137557989978566
0.133575011275558
0.150323723998112
0.138744111685679
0.143964053220127
0.144941377204672
0.136725524617992
0.155928377488515
0.170449213201204
0.192436122968722
0.14411777876162
0.19513313934704
0.170753871146623
0.163462108197722
0.157720606550543
0.155546177964892
0.17426164748063
0.160014491749512
0.16798491652627
0.160029102315851
0.189174892985412
0.182902041638985
0.161005858271838
0.204652476383968
0.174640647432006
0.199295773486611
0.124220989719393
0.363896673750015
0.206373382769606
0.213306269041384
0.21116805887534
0.17584018323314
0.300073205178591
0.21941048822691
0.227416464511154
0.231323307571506
0.234344615585059
0.241858074384117
0.251841573004661
0.25260633332245
0.270858671431572
0.268719831665553
0.265315714109094
0.275332299189453
0.35484083421439
0.317184448331828
0.327781329196912
0.297699498709695
0.33049703117566
0.33666485689675
0.328694842096428
0.336675878391787
0.347244281407591
0.315156807621446
0.437570680812031
0.358420899885353
0.391334255214898
0.361353750814477
0.44161630549081
0.36430563820208
0.453258838794399
0.435791010652338
0.421888949477403
0.430992297705078
0.427215159243374
0.453964059425303
0.430200598434575
0.488354289953411
0.491186790105469
0.462571064552104
0.497023717706404
0.486635819370601
0.506364157010282
0.492192746855252
0.516430840155392
0.493208378134547
0.557091275315757
0.476349497263958
0.680876670416096
0.551614589388036
0.523508563259546
0.530775731589863
0.509669572737137
0.573232624617946
0.550190991844254
0.554679097242802
0.584516282056617
0.532135399883055
0.546256154563911
0.530304315574927
0.547020665383197
0.534403234344438
0.561771541225925
0.526977787064035
0.571991508103183
0.546924802155423
0.526203277155889
0.615656326802169
0.543129923098653
0.547016317991064
0.546080057817236
0.54056836607428
0.54211663367402
0.548459940716006
0.535681469804268
0.572197610060772
0.516327380267538
0.535648497490423
0.50827024116011
0.532956729284823
0.552272194462752
0.504741988245521
0.512190458557664
0.501759457775188
0.504242521525693
0.489813161913931
0.484222458004466
0.559857985051728
0.491503721806758
0.4901725116309
0.487242838700446
0.478271642861297
0.473211692417636
0.466695272789806
0.464753622653314
0.463567192131069
0.463593840428765
0.475180575324314
0.460316283650989
0.458449113529424
0.461781976722783
0.448721458300185
0.459216261817681
0.451135446561083
0.452787391887301
0.447190933864867
0.44866665376326
0.439445067880645
0.444620221385566
0.44794635992153
0.45106986559405
0.453361070672899
0.445827536536829
0.439631668047447
0.450012149847523
0.433258079485037
0.443388992499843
0.438505569975533
0.441296793460245
0.431685161394374
0.440620659320125
0.437174501657933
0.439340129326173
0.430825487184224
0.439514318419908
0.424634352365303
0.439336507672169
0.415873233921159
0.435589002570714
0.399024467449745
0.473368310022544
0.457231377520099
0.404614664367492
0.427088669468817
0.406300609021243
0.427435747553767
0.387317081645251
0.456135763955031
0.43375531148397
0.404701755520376
0.405742475258588
0.394678790460135
0.3946775269184
0.410034697121594
0.379230381850083
0.401049832973535
0.365844213841294
0.400523882546676
0.466910396470518
0.381263068101578
0.486059560790337
0.386103868207207
0.385871759734142
0.347745516915229
0.43002569288357
0.359824130741851
0.379076484083235
0.353236441164946
0.402549099247848
0.375463923619936
0.360014954219696
0.366928744273826
0.353060890277745
0.363007200640191
0.380442715226595
0.357666480174932
0.338050188764737
0.395818611752888
0.348626623565862
0.381346032176654
0.381898308799792
0.37602591196527
0.336098955187171
0.333823674398707
0.336932785484751
0.300986052330543
0.39116124633225
0.32951904792366
0.339121743426468
0.327434982450999
0.31030522887822
0.314916767935163
0.312994459826046
0.333187694155396
0.289200003051372
0.368329382837846
0.292361699761299
0.320171642573545
0.315029754745665
0.31263430295457
0.349787848899572
0.309707188871069
0.290859148282245
0.294742685342724
0.342241780437684
0.287632450050292
0.314690603606258
0.287805221822748
0.277500270728599
0.302196768639671
0.28159165106768
0.286956456572747
0.296758348537364
0.273170366124449
0.320333157068561
0.300577913932173
0.331064312795442
0.288753680406759
0.263655114115666
0.277116957787238
0.266220896320107
0.28323631336282
0.262153023845657
0.280653374983525
0.300203255942564
0.237596962954256
0.346072026141787
0.282325354453668
0.278723764358323
0.280922722940035
0.28030013943554
0.282640944948753
0.306953831080069
0.30957473895497
0.321845868621033
0.292612906811154
0.335744474268478
0.293014704604456
0.316679579504643
0.298083403468238
0.325757975975993
0.314282866059888
0.33761534599552
0.327155723799138
0.339146182861283
0.334553963737728
0.352260290891573
0.344664342738988
0.412437457048367
0.340629564593765
0.40483465314273
0.370925439190818
0.428168621729921
0.408556173504884
0.40203798722393
0.416532783728202
0.413683605985429
0.419406492399625
0.432444890196675
0.408767063499664
0.483354992623057
0.431409050944856
0.454400780987226
0.435699272384801
0.464293006758923
0.445627346094493
0.491619652840909
0.469548225678643
0.497597285614549
0.547106834636063
0.481135450323628
0.507036555411432
0.474712296977689
0.491282354566643
0.496013353646672
0.483551717485026
0.496597538734402
0.4769472369974
0.516612355417425
0.500717505497253
0.50665729302016
0.500321770192932
0.506698591061105
0.508388978223566
0.51044396563818
0.514350509103671
0.521595211544415
0.515945173428599
0.529156308619501
0.491650015999126
0.595372652614528
0.548177435031693
0.538214656504109
0.542249519086984
0.554117090243441
0.560590407665031
0.546797036602893
0.569752425276704
0.575335224353329
0.564128719340914
0.577828952309814
0.566677875217183
0.587941304001771
0.567106606745257
0.619797747852534
0.580640753170119
0.598190927661317
0.584822852566668
0.588311631418624
0.67743343571472
0.590256838963851
0.63848563495973
0.603586463846847
0.622195497190412
0.607231225811702
0.617067754896495
0.608999270787961
0.626995339695597
0.620782807795908
0.621714454414668
0.631487057342677
0.618412684975397
0.623318176679196
0.611903190738951
0.649344611269643
0.623308526242443
0.616244825956526
0.621237617777174
0.616223389795304
0.605335050127827
0.635510042410827
0.650557434145706
0.610195501039435
0.638015864083135
0.620254823375062
0.631981687807048
0.636701215801958
0.611900052639832
0.617443466027216
0.61453481941348
0.613900133698725
0.623883603585674
0.61444980900358
0.663000486245532
0.634831939545291
0.636852644542581
0.627790090778188
0.643099188716667
0.644329403638768
0.646835597658103
0.644146257890535
0.659046620203497
0.649912474775241
0.667637359898328
0.660099492110122
0.651188904133178
0.666830161339378
0.666932064810858
0.670229998148909
0.662565571552673
0.650353818151297
0.66932336618458
0.656045595438819
0.666164324513011
0.650083727487796
0.651645957425889
0.634457273123247
0.647728192382185
0.624622218010764
0.663354284810868
0.633304354147963
0.624642304237539
0.624926582616434
0.612037923552149
0.613865630243522
0.604209823097641
0.606815125913312
0.592768234971551
0.599270050069839
0.578877598860213
0.587860700933435
0.587628075274264
0.585102872383365
0.579157736659446
0.58676344884451
0.582087313236392
0.580855191068728
0.575387077774106
0.576385070664113
0.576011473471496
0.576870304794653
0.579684786491803
0.576045540485831
0.582419544456329
0.586057651968497
0.579384887318978
0.580976641770721
0.570420186555706
0.584458391251115
0.575358774948295
0.581352098610298
0.572751099054349
0.575313654290155
0.568980853223434
0.575772022440404
0.570650103557397
0.570444183836532
0.574764682669762
0.572361382406081
0.569932274357405
0.573904968667233
0.568146637899314
0.583163336651703
0.567177892541583
0.564766783961438
0.56999129558689
0.571039123683083
0.573617989674302
0.567699760784167
0.573169026985957
0.568247129127919
0.56623587903169
0.568088632417036
0.571988802031545
0.570418038192988
0.56491802146923
0.570976606591932
0.56640239488019
0.567098572458978
0.566381743540173
0.570889628231347
0.56481871408349
0.567114917461099
0.562243093620318
0.554217359791098
0.558705925036065
0.551578594448628
0.548529565952047
0.549529327148207
0.54004232956198
0.53593240681699
0.528812660875429
0.526940634947892
0.523951856412336
0.521241500497096
0.519707639374664
0.514943296122328
0.508356386820781
0.504609002506192
0.50410538612914
0.502728619246785
0.50075165437099
0.494968366539081
0.499684576131496
0.49674697828726
0.498732871468351
0.494261107857653
0.493719152702894
0.494684745012177
0.493304081722751
0.49320713876945
0.497938965709467
0.496667787971056
0.495787877442721
0.498132726968609
0.502940480469996
0.499499308315562
0.505977007703192
0.505382290166955
0.505259623028841
0.507559233092655
0.508355988452632
0.509165460333094
0.515968523312771
0.516080974299523
0.513858916426874
0.521220499090658
0.520659144227217
0.521856501564481
0.525383637655221
0.52635537273084
0.526153837850844
0.527273565229058
0.523073576811062
0.528395171828639
0.525536459507847
0.523064184613975
0.523874634405049
0.525059024536267
0.523149989622739
0.516638058506943
0.514081571732694
0.515240861216601
0.510018526650007
0.514678902841085
0.514339850301677
0.50785159390112
0.508311843777088
0.507638204429587
0.502835618239816
0.500758375727269
0.501025647032079
0.504221329443413
0.497965103988314
0.493074198779786
0.494267325075647
0.496483357747813
0.490692167979216
0.490991125534623
0.488836962341361
0.489103627470947
0.486617785919329
0.483767850406019
0.482092906134949
0.482910074463532
0.484813672542255
0.482879922561676
0.47810929134919
0.479402088957004
0.477512959482737
0.474066431547311
0.473380737840135
0.469750159609913
0.466797520802808
0.465089892606935
0.459692482820771
0.461109853519819
0.460502690776244
0.453948670642819
0.450406308392348
0.445403681135139
0.443873589182746
0.439746599726164
0.435635726902807
0.43559374447555
0.433227314093964
0.429279060026765
0.427246752908851
0.425208221754568
0.423942434356494
0.422242315854517
0.422446152796903
0.423827922144299
0.420628410319851
0.417358768614173
0.415169079121926
0.410610969832428
0.409394737844857
0.410328570337178
0.402160020810449
0.399815465488987
0.39738993301491
0.391950357181238
0.38402915589476
0.379928162838024
0.37693276480452
0.372027985739453
0.368100634490234
0.367792303977307
0.367580348059434
0.366034780980467
0.367687896323634
0.369636338024082
0.374759114245307
0.383520950224172
0.391128882668944
0.399495817514227
0.412072125704155
0.424611184043028
0.437234039659468
0.454725490467535
0.469268521825694
0.485773912057356
0.504174808816243
0.521282073269199
0.535725704188381
0.553873499934228
0.569742322381439
0.585410108598814
0.603087110263036
0.621711897326609
0.637061042985293
0.657234557695169
0.671008847606752
0.679140292304056
0.694244939733028
0.707454277353806
0.725205374928277
0.730265316206434
0.747485448171232
0.757045049722459
0.762968645145796
0.778412325328987
0.779659115136224
0.786015541787333
0.792812513748291
0.797676952973223
0.800121448730196
0.801969694119856
0.807650941026129
0.808738223770993
0.813878990943445
0.810606725714743
0.806127789772041
0.808497838297266
0.811277112066713
0.814392545003759
0.813948991484994
0.819908162976266
0.822843344595419
0.819393865459583
0.824449776856643
0.841145447733907
0.837802022194488
0.837019744440002
0.844316876792704
0.856751183970761
0.859966463791512
0.860123967513457
0.878723274597943
0.882842230269729
0.888518932808283
0.905068292727417
0.911320765107754
0.927901555329
0.936908752490576
0.944729070251207
0.980525548628571
0.98826512728235
0.995197613056699
1.00662847497136
1.01061143740812
1.0046155905182
1.02491724952695
1.02943016310938
1.0262735497001
1.028802376542
1.02352570824553
1.02920040176614
1.02462673772714
1.02783779885313
1.01099018734462
1.00460590899764
0.999217490130321
1.00055407567163
1.01827366436766
1.01401325407719
1.02869750220353
1.04012089284485
1.04686421450328
1.06826754228707
1.06924250834714
1.0773192451368
1.09500590854389
1.10920081468975
1.11932169777637
1.11688024960517
1.14264388411767
1.16781106438001
1.18889580317732
1.21864821023646
1.21247737154176
1.22786910277257
1.24307468118606
1.2653061619253
1.27773389698868
1.30567033389655
1.32408455970725
1.35037369403062
1.38207065934171
1.37498146523471
1.42549692387844
1.42548917925166
1.44505740311607
1.47855889059014
1.53262987527976
1.4962817655199
1.49865088672674
1.55652233028131
1.57385207187981
1.59312324898738
1.60967465181524
1.62420535902221
1.65968197457371
1.62480865489431
1.69126157482862
1.71092970274567
1.73781654927476
1.70364300384093
1.7181766596187
1.71284476805433
1.72188764191475
1.68886516609837
1.7177650067955
1.70140824208935
1.62346777423126
1.60787979566233
1.67383451815628
1.70659295018771
1.75628854539717
1.66111015675644
1.62305340903613
1.71213655597181
1.69386676222937
1.73479716221508
1.78997907790651
1.73218548384181
1.84885076766375
1.79315162852865
1.81422144009847
1.85749446652181
1.81352851999484
1.87868892921339
2.09128425994045
1.95955614929034
1.87168340431054
1.84835453993898
1.86529210233371
1.98049229215865
1.95655881424329
1.88443726336925
2.07826260503745
2.05307227685089
1.94291695071784
1.94751781977318
2.0539420663677
2.37227163084926
2.18757756178077
2.05614084607136
2.14707028749764
2.29314341757229
1.99827134759946
2.00108744458811
2.37140612555749
2.05932251576618
2.20563429571263
2.23313085204815
2.16967370458373
2.08555165926119
2.08179918901833
2.01050165539178
2.01670439042659
2.1390971824007
2.23483490367606
2.11241653628446
2.04890872077503
2.11281212500151
2.03553696048472
1.9291649951269
1.91934359880128
1.84546963992617
1.83299653048631
1.84313065225232
1.77485710248014
1.68249958173113
1.63236255907883
1.64266773357502
1.68174526857811
1.60438438361399
1.63883956589407
1.70228879250963
1.57294878975012
1.54219028054797
1.65752774541681
1.56497398034508
1.4799177455402
1.51171290082827
1.55257068198957
1.49996722734745
1.48572593900793
1.48698329158124
1.46471745148004
1.45223832594188
1.44426116352627
1.41448076018786
1.38039955053937
1.36574445081822
1.31715038223206
1.2749012345678
1.31419769573988
1.2529952490019
1.21009669629077
1.18470726491034
1.14213797407532
1.09767586552581
1.06678247357242
1.00420744893627
0.961624514211362
0.933167073581954
0.884009649293659
0.861180361427491
0.834448189430856
0.808617552774248
0.77075211697382
0.730759618954048
0.726036733023915
0.701158383458111
0.675967085084749
0.662540618083923
0.64707231429301
0.639343204259332
0.635786074473331
0.622505497318314
0.618518646193694
0.612657297988147
0.608897731412184
0.600153744276529
0.598913667342382
0.596196939933759
0.59198568888072
0.593272017309292
0.605167531333457
0.603974555724254
0.598126731857005
0.600179999711877
0.599822294728146
0.595934841965655
0.601951155252277
0.593048187553842
0.586201768586691
0.582564069192614
0.578212641344162
0.56928037218482
0.574841803803736
0.573321840019229
0.564494302521162
0.557987255582381
0.556446565459393
0.548587184228928
0.547378625085624
0.543824059737245
0.538044403264745
0.540502253656108
0.549089099554969
0.539948252905994
0.547194102206377
0.552315527224028
0.552787019684329
0.551746673173149
0.549222825022931
0.555059797754391
0.562973505283218
0.563343815239812
0.563591138262923
0.562135558126153
0.571363188304437
0.569470426210893
0.578817595337191
0.579873940257153
0.57657337525716
0.577218775495086
0.577399084714587
0.582641125093763
0.579776036451622
0.57498207890283
0.576740784619512
0.575834783107322
0.581017172179531
0.587598880378539
0.598438707803739
0.595881424631529
0.597212266288521
0.613594280170811
0.620540318436924
0.628030695417891
0.655466811729941
0.663714723254384
0.675117768797342
0.687760448283429
0.717045575003296
0.732508202922764
0.726757822082412
0.749990606043886
0.748649505028129
0.747140394070543
0.756064823261537
0.755774406250786
0.733039112515483
0.726733429653924
0.735697202505688
0.720258297567093
0.704439777607535
0.70931203770997
0.700896857469034
0.697126221151396
0.691077908217437
0.692827484361898
0.68978473839278
0.699669323245045
0.7133041554166
0.682616396676227
0.688981416339468
0.707835429248099
0.698481955960937
0.702773621679068
0.689800611237986
0.673841317830379
0.672017185314463
0.686798605524823
0.662774995753986
0.650442871624032
0.658778783421462
0.645692526526303
0.639061793545899
0.64757433246581
0.647441361566517
0.630571872337982
0.630137638699608
0.62999015912184
0.627605284758505
0.619673987562481
0.622058361570012
0.609005774786264
0.612622194985403
0.620035113237902
0.620424035886716
0.607960695328187
0.59553183639707
0.599358044148347
0.606221487106433
0.601910359255394
0.599142708203442
0.589771754428501
0.60523341359461
0.595703860912248
0.606025358737262
0.596972251021969
0.580782548850094
0.584409978933232
0.583981607931137
0.575235884686129
0.567386554484786
0.568965829934275
0.575311931912722
0.577592008919948
0.57359894045674
0.562614568604899
0.55268043925555
0.564884827667993
0.539383633215323
0.531362510862428
0.560203391790142
0.577539339138263
0.556858656311868
0.561235509696102
0.574663415056083
0.561630580196972
0.557502169801569
0.577531096232708
0.565824891290139
0.554567128912469
0.566650823156638
0.568941099451602
0.558126941603045
0.573131880713466
0.570732357702944
0.563964552677362
0.586476213517044
0.584595991948714
0.570002459624097
0.566192162603853
0.605301811035518
0.599116567040005
0.599580076137281
0.588415863534351
0.585741402791503
0.607341268578699
0.620029865371527
0.632338011730145
0.618837001003579
0.611132396836602
0.628428563546765
0.66295931049354
0.66569950470642
0.671589063788063
0.672883073086734
0.699604241973878
0.710043889408949
0.753389486011867
0.730712503384687
0.746320268254209
0.764685073014345
0.770611170655758
0.786221131369484
0.850834801275433
0.897997478020256
0.931606795023468
0.869634514328299
0.867704068916233
0.93507132753328
0.90216772910585
0.913941808731721
0.943301568387568
0.933154956240056
0.927163959325663
0.838654445694423
0.961140754666899
0.935940528680691
0.862954302234785
0.862397412269082
0.928463598139986
0.948172264892615
0.919320416027701
0.854623595304576
0.857501162635076
0.869922999205248
0.87360970476525
0.934376627289922
0.954928767959098
0.975236429036945
0.97314699971988
0.819359852361802
0.850284177610055
0.866935499863743
0.873591253697378
0.860812754355095
0.810814215759373
0.819538644789196
0.890410960538093
0.843873611421883
0.852504613427751
0.773903986659371
0.838700784280445
0.842244542674131
0.848180116978704
0.826116172929411
0.826054525072241
0.878943732739392
0.86319579509995
0.922360554118238
0.906366212477449
0.841092806683642
0.873175409560069
0.856918329394999
0.831761461875071
0.821064138273584
0.842975085509251
0.85272716487914
0.87493097074048
0.796879738822169
0.854163466102168
0.853513548276926
0.923410125470762
0.859082108844299
0.941078865793723
0.9454515167707
0.867035087942307
0.861491732347467
0.929594147709242
0.875575130148808
0.946683628599014
0.85810195241308
0.987573857700606
0.928064801626922
0.907062527133772
0.892706907808579
0.883722920939856
1.10248746045028
1.03648447563552
0.847755271540306
1.00841585058793
0.93437309629931
0.876112754115937
1.06144890101379
1.04075652186912
0.917651833068724
1.03885075710656
1.00492820705659
1.1519446211449
1.05093449653473
0.931951231246695
0.980982143173778
1.16101952399456
1.22997482147275
1.04584868929712
1.00296044257891
1.11997156163622
0.865349991590726
1.24466091110956
1.17050834880656
1.26978089990748
1.12407162724042
1.15186547714072
1.29852281941143
1.41024525034621
0.986233574678841
1.36425408606927
1.18681622703747
1.32915579575786
1.19957623288414
1.10210687458881
0.845134091213442
1.63478085556827
1.50033869220969
0.877946580964853
0.986182886526223
1.67543585532178
1.08663461352165
1.52272421223581
0.901413515995348
1.09367201056186
1.03475212880192
1.22732115910594
1.62776173637289
5
0.94671871957231
0.998279604942339
0.730433591287839
1.10861476046828
1.03322934202854
0.940748861415386
0.832305848273166
1.42727934224577
1.51239741179838
5
0.98848883491098
1.78937092551588
5
5
1.46052579819303
1.16230840852846
0.928218949920919
0.739643969582379
0.579222436700026
0.932666116836059
0.795859117932206
5
0.980796954217628
0.915336281439537
1.73718312763508
1.10833385999133
0.780298994723287
5
0.478146929804548
1.03382154426357
