3596
4000.36533379555
650.420452594757
1
2
2
0.0953927002128732
0.0808077730469295
0.0846637569173205
0.0818134611634414
0.0913703631823557
0.0842784865627967
0.0796948312819028
0.0815380278281384
0.0901994533059311
0.0823612276907459
0.0889677451692955
0.0874546135428512
0.0843126050754151
0.0790531713335637
0.0892200963794633
0.0703025600917706
0.0758249411264659
0.0739080338567909
0.0869610633299241
0.0736849397139904
0.0851826798630643
0.0750222388166254
0.0851788548185195
0.0773328281378202
0.083021211537066
0.083509507142911
0.0833262446181414
0.0778695831893448
0.0860914210640782
0.0718183954373267
0.0863334438304757
0.0794344350690677
0.0933426487339641
0.0766608033756934
0.0864360474979721
0.0906820528218048
0.0894961987518932
0.0800323683149531
0.0807298277437128
0.082346582827946
0.0903497610486883
0.0852673016491204
0.0851666400545451
0.0803778509394948
0.0859203040828164
0.0804339984280727
0.0855422518286055
0.0825163514157153
0.0849355704845458
0.0841477257592362
0.0830203898018297
0.0735046648127705
0.0853103321842865
0.0776622197509476
0.0834812463220402
0.0903346818124354
0.0894450112219563
0.0797646723668747
0.0876233223843613
0.0827213185883008
0.105149112459128
0.0894240227711884
0.0835150858326296
0.0689142223763993
0.0734790322882218
0.078888781222403
0.0832656310150878
0.0705994209687255
0.0823798109424873
0.0809193640440014
0.0676441711563251
0.0804558381594738
0.1018173791926
0.0790099755526997
0.0843378170194333
0.0875371770445913
0.0782196169675533
0.068768317288418
0.0778403798833583
0.076970396935753
0.0965562853415696
0.0821282330439613
0.0805537757022604
0.0706929523059509
0.076038577430876
0.0897057238401809
0.069541303729929
0.0840959942296907
0.0874865231162332
0.0797945468310565
0.0822425998439007
0.0743043772410097
0.0791036802734701
0.0763399312675546
0.0779949306765318
0.0732245793309585
0.0771504182171232
0.0863555865441896
0.0703150438198589
0.0871079392031191
0.0600558933727455
0.0927033962205506
0.109040127810348
0.0663669684779828
0.131694014846168
0.0711379751764241
0.0778609770707006
0.0971157308788859
0.100513510596746
0.069954249201087
0.0734203190334239
0.0714205021313133
0.079186152995781
0.0839900983129124
0.0674367095028873
0.087575398394725
0.102940839437852
0.0753741121719602
0.0832128031260249
0.0764114879742281
0.0396815590277156
0.102283051712315
0.0956899768066943
0.0743721488911229
0.0871645047869685
0.0704886710924716
0.0598218490691287
0.104305943356046
0.100251678309329
0.0716523700958816
0.0624685984501086
0.076745197787302
0.0635842024276141
0.0732374493770618
0.11225672481511
0.0720532130417796
0.0775367388043914
0.05270935452305
0.101399518046732
0.108311014387531
0.0956436136580612
0.0770012748568152
0.0565760223297329
0.0747320747210046
0.101692812040785
0.081348715704652
0.0696644257734044
0.0910663546515275
0.0850232713862377
0.0821714913307072
0.0734722065039616
0.0623054717483755
0.0931092967397839
0.0819014933264582
0.0100033024520713
0.139065657481129
0.0976975096970497
0.105646827785057
0.119895445811224
0.0715296681437166
0.0890293286576983
0.0719446662891327
0.0729296616817488
0.0594329175031193
0.0776106511252232
0.053585156208221
0.0902906664555694
0.0851190194311739
0.0714138104672152
0.0738206845816702
0.112042360181163
0.067580763326633
0.0650558493242049
0.143229771298539
0.0773321314033942
0.0719586335390154
0.100539748347265
0.08430691736191
0.0552154039667565
0.0884250622444271
0.0973431634270865
0.0780465088491994
0.0794644105646258
0.061939571265334
0.0762417209980426
0.0940253221537254
0.0785819508778335
0.0733804628441489
0.0681369560131493
0.0552664300121564
0.072972102733383
0.120499610654809
0.0920936619106722
0.0820032984802169
0.0731175827020161
0.0373204516199205
0.114071081471715
0.0978098111471765
0.0929519635410244
0.0704237843416199
0.0702794785881736
0.0725746199044882
0.0718527741927413
0.0793856810945824
0.0507358210749273
0.0402417513994598
0.107822777965579
0.0855163348128326
0.0746238943721663
0.0653766885511397
0.0769096067173678
0.039128247935971
0.134938396277516
0.0960954751504575
0.0920570252561527
0.0626196920587092
0.0703912620017706
0.0868998800174337
0.0899810594930256
0.0726264052343738
0.082323084446308
0.0700722968130312
0.0730428744882086
0.0616678881509726
0.0781147894117028
0.0739327689010478
0.074656245032043
0.0676886532129173
0.0758394409263783
0.0780760440842562
0.0871951293665965
0.0681961571145353
0.0798768223410019
0.0817867599532788
0.0631992140493898
0.0790024020656781
0.0885868299468588
0.0782327295893521
0.0712472478444425
0.0740034276154753
0.0720804669557639
0.0639273860268521
0.0713167403482653
0.0774547783317153
0.0630796973218339
0.0648201666586818
0.107966447897181
0.0746751376985845
0.08244936376368
0.050254154119976
0.105389762664974
0.0773124470467497
0.0833432479626801
0.0615226499303255
0.0845447415605813
0.0486757276537805
0.07599178165088
0.0902825166287969
0.0903114567405674
0.0611626928642518
0.0946691855104651
0.0678253220941384
0.0870974361605521
0.047387860119618
0.0708941529597555
0.142358674497533
0.0710129359018619
0.0793256554084007
0.137912358537781
0.081466383113307
0.100562279723943
0.0482214567277068
0.040006388330078
0.179493932666862
0.133029743458098
0.0749811347757923
0.0797362287610993
0.0921412491126771
0.0725771366661608
0.0842071840833395
0.0694126507327468
0.0923691365021755
0.0813156322924106
0.107751121303867
0.130867393205189
0.0519609309923649
0.121496361055635
0.0833712999418402
0.0839766948397064
0.0751270054085964
0.0861921623590951
0.0570320943160281
0.107252450795798
0.075762200531768
0.109722288135262
0.0685016176565365
0.0885541015358532
0.0983102253979002
0.097894247222287
0.0713136799530433
0.102990523342346
0.0844741131584619
0.0762118650966214
0.0763799549938078
0.0820846491449069
0.0927397650073298
0.0669309192076968
0.0698742889221234
0.135150188263896
0.0773020076463042
0.101559376503006
0.105219867210025
0.095213659412897
0.0817554409639568
0.0846595267188195
0.0754510532441926
0.0899388025510731
0.0770856660778026
0.0765082318241039
0.111872985125184
0.092711705116967
0.0850544409892286
0.0865739529179341
0.0744058908109485
0.0905958201925267
0.0882784549737923
0.0816660966520915
0.0849207358065155
0.0881329986141536
0.0641769397051552
0.114479012152384
0.112334861138696
0.0633780915114924
0.125411520096745
0.111222484008653
0.0933274682757134
0.0900452116018513
0.0900357266616061
0.0957768250600183
0.0888792290573246
0.0936833715925134
0.0987792638067638
0.0935027873865394
0.112046948952151
0.10823369717456
0.0889833552212743
0.0921068557538888
0.136861494113505
0.152392539309197
0.112830831689468
0.114997370998632
0.0643367722621659
0.151260615594754
0.104032380560469
0.146358780083764
0.123156403211692
0.115280936801436
0.115026965553076
0.11577246653857
0.121488245140478
0.115878821308259
0.119370662369925
0.124813521874074
0.117675677865846
0.122691151464409
0.131019712999269
0.110554744619553
0.122713902493907
0.178436184459461
0.134768052687043
0.129214156692965
0.129108212092467
0.118097160109299
0.159606625534065
0.130195822521917
0.209128907632745
0.151679665797389
0.165013825495472
0.181695800315717
0.157626293345544
0.157790334818409
0.142271864833744
0.160545498153906
0.161078214783785
0.162172446811844
0.163200479821025
0.171342879718447
0.166195738466814
0.172140583714578
0.177996797646831
0.179676638811647
0.173796483394788
0.201575212768503
0.170698272507214
0.197371783549569
0.16066001736608
0.207131559371867
0.21166197686516
0.247767070599474
0.190065845676044
0.218618170186635
0.190139920794535
0.210494334400527
0.200159020510998
0.221176899711524
0.206529011345022
0.216469032641533
0.266087445964949
0.240531031208869
0.230254959706133
0.252498828845899
0.202483093572826
0.264933959683182
0.231869756892011
0.261881908614827
0.25073045648858
0.272832275468088
0.217707240754473
0.290361021591944
0.254254631626504
0.266843090979781
0.265487520394488
0.26254679326664
0.256928210484418
0.269265201394863
0.267487859849048
0.268512042788934
0.281683812721566
0.303458859361385
0.276619151889389
0.310713629934045
0.296397179374904
0.29685033612465
0.33166718370269
0.311015807542918
0.298330388313703
0.315787922107416
0.315726406920297
0.328412303454817
0.294948253671531
0.366634437398846
0.305749730871502
0.36619443528093
0.32712410909966
0.320916248572723
0.326398109928183
0.347612312165053
0.346319247713874
0.356296405603847
0.346692091186775
0.377728138252769
0.362759776804209
0.376922046191759
0.366222216093147
0.381814671464945
0.373966798877862
0.387780761505623
0.379524258835302
0.405251036571631
0.384031369821507
0.428622890074503
0.388010694306766
0.471762495621376
0.410753745304375
0.431530477295079
0.426139914816905
0.4306914664121
0.397141070956116
0.437731956509382
0.412549383140566
0.448350678414582
0.447378090292881
0.457325734051428
0.444262555391618
0.471851251136026
0.458037250187913
0.481236885929655
0.45124878891442
0.498047722622671
0.47630361932825
0.491322147489017
0.480010160739618
0.536104891813989
0.495652223878541
0.508955228821497
0.488008978224662
0.52003620930938
0.516528244909253
0.564932899357629
0.509618252717535
0.535009955097169
0.514751400883699
0.565400939387141
0.512726536104449
0.560624064237588
0.548127255337303
0.557787926189658
0.54622632946936
0.591682073386391
0.552509414963981
0.591337665589131
0.574901910390227
0.593010862519157
0.564079883237096
0.580482662482682
0.557729673317216
0.622641284119501
0.575359822218437
0.630278809161423
0.604521997140175
0.62838268134716
0.630176487624338
0.688804891362253
0.613952320202048
0.642078703779406
0.623712605777506
0.680175776691554
0.644832273692457
0.699066040861873
0.645243482483061
0.65745432712932
0.680155213671798
0.737897290535435
0.666040997707285
0.698653489419711
0.667040166158423
0.741474854643855
0.713044314132392
0.7364291109564
0.708133896475165
0.720354020461534
0.679930325533253
0.70073807610047
0.70228078236709
0.765699788755465
0.743987641457353
0.756660710656012
0.713810770037445
0.783065850683108
0.728217931992973
0.769510794527462
0.752071329132822
0.804865319616044
0.778196102053436
0.781960846604606
0.732701242163203
0.799885891736596
0.785599673886707
0.816090549852233
0.782885602999727
0.814070561052487
0.822075439456689
0.881400476122197
0.830877420920001
0.880010001154525
0.863289323549345
0.843860379394931
0.78805013595092
0.879869407398714
0.827261654259304
0.93098497857585
0.834990462645901
0.963318317335038
0.845687708330815
0.903035642901871
0.854366654100844
0.897516274251067
0.867138965270918
0.830615699650595
0.845314700339656
0.942148952498427
0.886477132230297
0.924319282125263
0.903581057352338
1.00379879482191
0.863738205694934
0.972218245945207
0.885482561344746
0.99957816734796
0.876554694314792
1.00676628141966
0.957500053483662
1.00067818083807
0.985411583075067
1.02830778784839
0.975427398527267
1.05258608741754
0.977660965851923
1.03589744842811
0.955887648263003
1.07461668822951
0.959931205794279
1.13078774087905
0.977222460848537
1.0791190965895
0.995787133374355
1.11861794235232
1.00379654839662
1.17413984178133
0.983496583231852
1.11677318284049
0.983665567950557
1.04870641663026
0.940103258685209
1.19233227569157
1.02983437277461
1.18120698608606
1.01692932761075
1.22171033030938
1.10552962080607
1.10769942809801
1.09827519917739
1.22969859644473
1.06905011111642
1.15359779307468
1.0818548227746
1.16853782257797
1.03847199172202
1.207697762805
1.07660091398469
1.13117995158995
1.09511704247707
1.14644685087678
1.07784449849198
1.21480248000217
1.17742877584964
1.16832255799708
1.07634926019674
1.12594618093709
1.17119642786575
1.34207947576809
1.10017017985511
1.33484571489767
1.10250132613561
1.26154090272959
1.14025832093436
1.16835337520328
1.21333628041724
1.2829003208273
1.18237064823815
1.28359895682132
1.19162829303934
1.12238359514784
1.16368772252558
1.26552839530134
1.18238462334577
1.23785823581106
1.15158489296818
1.33032420128715
1.15330580901084
1.37782351242613
1.27023085914782
1.38883565189725
1.19964812636706
1.45627901794265
1.27985984492663
1.38726042829079
1.16156998102474
1.33334098431906
1.20321678270105
1.33604294985365
1.17838391894437
1.33187239115972
1.27327554985337
1.25794442348988
1.30870278733659
1.33030477280702
1.2858860641485
1.42377277780368
1.27870769355236
1.35437215270613
1.1896458698765
1.46822874385249
1.26243438169995
1.41245575116263
1.32498984367455
1.50483463268745
1.27957685805099
1.41662754824053
1.30558660608296
1.30443778597485
1.4174203818539
1.37693023031199
1.32513104809088
1.32485848558021
1.26409896021668
1.4993005942777
1.35055895159252
1.48152673295706
1.24530102073857
1.41881529406356
1.34456445280571
1.37919517335897
1.4019421798573
1.46461567786683
1.37267131464948
1.39068551996847
1.42099373307593
1.47916707475175
1.28586318994568
1.58121622414919
1.26057302026864
1.41458878009549
1.34477595481137
1.39203239783593
1.26713740851414
1.32613765700752
1.31612173909939
1.38497797736243
1.33002017104965
1.32896361859107
1.46575247523712
1.5388405060055
1.34476150970911
1.49143327552471
1.39846969944819
1.39377191833733
1.37534362981139
1.57290245176627
1.35784776646971
1.46835847110802
1.39353360762988
1.40488317673152
1.33474696192886
1.40632805030262
1.32773651699574
1.46914067972193
1.32072002842882
1.56790333595692
1.42021651638379
1.5091727152417
1.36278715744612
1.63773630646554
1.27358937453772
1.38210099062014
1.5068854433852
1.41435950309853
1.3539153018357
1.45747683109348
1.39160380679834
1.45810602397782
1.36652245333451
1.33377962197581
1.46093295424087
1.38629850323296
1.35709469186134
1.53531558727306
1.28721652221188
1.35279517739918
1.3515157367713
1.50697204801094
1.52132416899506
1.49096996444541
1.32203889514973
1.37238727949898
1.31184308908241
1.45885327548302
1.33952656322347
1.48054622150542
1.36453552606215
1.58024847680007
1.28960970982609
1.51477164758252
1.38428838270164
1.44041821483978
1.41833058631852
1.40334657444202
1.44214098325233
1.44540681378077
1.34937576653795
1.50232100107615
1.36234922772638
1.52162157228168
1.46079633574617
1.34875439501492
1.38146242450316
1.4152123691254
1.28033434633512
1.51325166157303
1.32970622962586
1.28970778495345
1.40200424989612
1.51541542827746
1.32398827204499
1.47994748964177
1.246234261014
1.40830477540012
1.44187982916439
1.59237122094503
1.29209751644317
1.39914583418817
1.30973644570373
1.44228646676406
1.34788775378721
1.45627452950616
1.36527816419902
1.35802491782814
1.29884574261179
1.37163213936515
1.38348704503132
1.33788055981134
1.36524887691105
1.39798409000218
1.3746315461656
1.44693831416804
1.30400410323829
1.45043034685938
1.39956064868902
1.41670210285469
1.33538543437413
1.32073830055982
1.30768291484596
1.3412943283532
1.29281305846857
1.28481743552348
1.33429728127223
1.49879312250896
1.31062323397083
1.32580673709716
1.37579816731663
1.34919570161423
1.25375033841516
1.33906910852483
1.28015851726356
1.38030469245767
1.31848596737277
1.32929533661395
1.19962092754838
1.41133796856426
1.28647507765546
1.37128046829016
1.23204355352468
1.27934414527423
1.27014918777621
1.30143778156775
1.29302681532556
1.27673660519763
1.31706933170207
1.30466915412718
1.28751945162232
1.29083363441776
1.22028589743166
1.27439167341845
1.22140021364365
1.28902953313236
1.26818922667276
1.32727621822245
1.23590861848093
1.24382597828248
1.16766807850611
1.28506584005932
1.1826651632276
1.24139067100282
1.25828636081978
1.22832783720573
1.21031782292812
1.22367432198314
1.19218328451196
1.22519431730182
1.23167662737469
1.24754783779046
1.26057810681473
1.18989914123167
1.16975070070122
1.21651678251094
1.11595453342797
1.21988435380899
1.17988187486492
1.18494185085513
1.1563941531407
1.15759436070983
1.15291314164253
1.10704465838539
1.11932221236984
1.2048389043006
1.15477777660629
1.1402620028821
1.10973789854812
1.12682953710678
1.11071686973541
1.14521727580742
1.08752778180349
1.16702916304382
1.03722032930614
1.11760713554592
1.06924781247495
1.10910614914752
1.06439520881698
1.0586706971603
1.08857649041468
1.07333154934485
1.03736657113224
1.08072590765258
1.0874570633788
1.05680863314398
1.04610805505645
1.06295833071673
1.03309949150673
1.04333139462147
1.03662519707429
1.05774395048109
1.04969208614033
1.03645172085488
1.0092997380084
0.968746391783952
1.00416080443058
1.03062732090043
1.03710843738743
1.06088920766687
0.989195686757899
1.0184843797075
0.995263818642417
0.994524757754851
0.961625730219555
0.98998876996574
0.969687100901481
0.980660420159906
0.922922373495608
0.959981417628645
0.9643984146278
0.927444223605885
0.927390920144484
0.935459314137917
0.959310694484051
0.93002015684072
0.919663164750185
0.908779811722142
0.908488171137983
0.913418060040825
0.907020393821671
0.895277709632717
0.891801549107161
0.916160259721897
0.877127683684524
0.916149409241187
0.880462943161925
0.886838430489298
0.864124288319695
0.851381104024554
0.858275228956573
0.898422471075491
0.867872726708281
0.858822044752216
0.849760343671806
0.839807148556777
0.84766267465881
0.860285505985062
0.84539615627631
0.842218757426747
0.790037649455243
0.808301832387087
0.817895815291844
0.836105410181577
0.802532429069178
0.838940295431691
0.784164173941132
0.79788086784157
0.79589931834167
0.794254298468722
0.795962129027461
0.765698893537559
0.784428138661195
0.785565031050138
0.779011917792461
0.802251170443309
0.740514221799999
0.7773759748621
0.760833748697283
0.751896321881119
0.76300211806535
0.745682354409344
0.73131529474632
0.744788626819731
0.727997514368424
0.746953266669698
0.748566906503578
0.740467413959845
0.737150667545202
0.724055720582079
0.716937414989519
0.711287749362081
0.707470642702815
0.707419766042839
0.679912136353883
0.689607351094915
0.691866205777323
0.705414035581885
0.694938818881996
0.67901106443979
0.678497611250993
0.685875981553054
0.678623862158574
0.684359795733072
0.666723497122847
0.665958499436027
0.663576710885915
0.652106859527029
0.6597178573907
0.667819056107181
0.653397641880899
0.642429215929033
0.631642041600049
0.649068745225222
0.646257549915307
0.632433097158137
0.629265719637815
0.629641562329516
0.614585138248408
0.634639690806219
0.611292376643436
0.61852031636114
0.613317474601967
0.620832437493504
0.606970130386416
0.594986239428517
0.595625994507139
0.598758687560914
0.596672573646626
0.587895873191535
0.591639222184743
0.604683489186465
0.585129094083763
0.595841889941207
0.577650923533158
0.578913235962201
0.578257169037696
0.56998382709587
0.559379520302887
0.56459123847901
0.561648243559088
0.566570965694851
0.552427673759182
0.548193777089589
0.537948874261209
0.548092149673481
0.543733250117721
0.548881532564474
0.540401886944844
0.552079574263111
0.54514900606198
0.537920790733008
0.527189138939107
0.524796837065414
0.522470687966307
0.524411196543765
0.512359723200563
0.516816570877622
0.518720157822276
0.513616461505204
0.512939645252984
0.508134954904066
0.501305207341254
0.496148527150612
0.512130948944783
0.501498981424797
0.49269052381332
0.500145127630554
0.489359945501737
0.488855377533448
0.491867432043662
0.493107502517258
0.472895716714579
0.478505909890667
0.485745863312062
0.488874946670789
0.486934180889946
0.481871391901636
0.477340028478399
0.472604016955701
0.470067614686307
0.482334899314124
0.473270567477852
0.4739986161824
0.473768072658785
0.470765325694547
0.464728070173204
0.471325278368477
0.471178304447285
0.477356810285705
0.463246818635075
0.458478388424198
0.468888746220051
0.470420643128317
0.466605160927785
0.46813950521355
0.458043040574222
0.471663387732442
0.474644008551858
0.465206394936781
0.463123019467696
0.46620296778738
0.46341584434117
0.472340667376889
0.473803034070963
0.481926161109291
0.47168065663318
0.471662906263166
0.473707010417295
0.48462010227662
0.485933069594918
0.484655246128713
0.490444985239277
0.494627093918897
0.478112926314211
0.498655994068141
0.487127708269058
0.491431120359056
0.494309625575124
0.495832850624821
0.49136006867039
0.500763552165039
0.506899627620346
0.503287383611653
0.502314109441098
0.507924963686663
0.498165187992413
0.510556321006697
0.514248944866834
0.517443416409126
0.511078179784261
0.525326805139959
0.51557224024486
0.521092091652338
0.52665590731692
0.524333758587
0.52380603782767
0.532975841615533
0.523790749637167
0.542819273528416
0.54423194806022
0.540639503537653
0.541164435974086
0.547184749322205
0.55297733002644
0.562233203697549
0.558226490718071
0.572707802403437
0.573658805091527
0.576771527792744
0.568419852085258
0.572443159199425
0.578898194410949
0.575901178225576
0.576927783519318
0.583637372598132
0.600043686033967
0.602350871736408
0.583230945519231
0.593082506768054
0.605061245116789
0.599664275252795
0.598374124101046
0.593652280628832
0.591493813831248
0.591995025498282
0.579413082055123
0.593783085787827
0.585000413501065
0.595940437126892
0.602311233980421
0.592175958635608
0.592683419544976
0.584709727019998
0.588424740689419
0.583581263904333
0.580219354493089
0.593490483527854
0.590270136971181
0.586195631829419
0.585857636165007
0.602803565919595
0.596668126877845
0.600722114561995
0.58789660515078
0.58703408760688
0.586387958278429
0.588320333265174
0.57884718723185
0.576352962951916
0.576546414644384
0.575778451852939
0.587185099248533
0.595252994533105
0.591744046236806
0.599986948289911
0.589469246624593
0.582395992775545
0.592214260189174
0.597129932586472
0.584701946123034
0.597673021058416
0.599627597821698
0.596597990685626
0.591707426238456
0.593032705786117
0.583736998148469
0.582838200260184
0.581589553123987
0.582562186862631
0.588533547811284
0.582783197084216
0.575292575816688
0.580326743162348
0.580928968462711
0.579221787066691
0.577126022974761
0.583781061326678
0.579250421835301
0.573729364134232
0.556097104441485
0.565158147833481
0.567977853507912
0.555289247010107
0.565042824903419
0.568547608100896
0.554789988341955
0.558352983126429
0.550354425104824
0.547648055529341
0.542696992105802
0.536911605202948
0.525842066519201
0.534446690677124
0.522128112673576
0.523397672952815
0.521983813828321
0.514769298244011
0.521771360096444
0.517297326862308
0.499484073676794
0.506465073358715
0.488922809600169
0.487548284852467
0.494226850997655
0.488749030840959
0.489118038890609
0.484164843540439
0.483201664582408
0.479348650549727
0.47777491161342
0.471253510158436
0.468080630721266
0.462379412352216
0.462022773632818
0.460695289970797
0.455965198418925
0.456132688476575
0.454395909794229
0.450837962943788
0.453631341802794
0.451743922153725
0.439516391487647
0.445864284218999
0.442869963648752
0.434145968275145
0.436114622185535
0.434169275732353
0.433386256186761
0.430917588711096
0.423866053264925
0.418492474031988
0.421783772632206
0.420714591078011
0.415119764048858
0.414028446928424
0.413195072415971
0.411749222085428
0.4077333507009
0.403029898128788
0.407840811882371
0.409588857503333
0.408208388692958
0.405878751999012
0.40229861066606
0.396822674680664
0.400224516786467
0.406064250179114
0.394355561403954
0.397088895216784
0.394519390565383
0.383123709976621
0.384700215923715
0.390333786566715
0.393671726993084
0.383328110568246
0.386307407189996
0.388009524367497
0.380453590290637
0.38091949991231
0.377547113045603
0.378426114316187
0.382873423956387
0.377260381666472
0.374665626177414
0.375097775828764
0.373461303229145
0.36776300056001
0.373407639459875
0.370726157324404
0.366590728765871
0.366710631819703
0.368358611843391
0.361204394680566
0.36490050783883
0.370002907585238
0.367002764835664
0.360779392770499
0.360343724606631
0.36571747942731
0.366142454388227
0.360530358847164
0.361304065191347
0.355662718388435
0.355804958024158
0.35477814780614
0.356328462442755
0.357012653413445
0.353311289170682
0.353280611348545
0.353087138735668
0.343366010051798
0.344933749823736
0.351017991384195
0.348101424149902
0.348938194976384
0.348497350674958
0.343504103634573
0.347794906491514
0.346196479313506
0.339454553689092
0.33457791409091
0.335142237937715
0.341131869201956
0.344902550694435
0.336867484449017
0.340906407679943
0.337216629883022
0.33365105316245
0.335465397776822
0.334389505970211
0.327940013420567
0.333828842369893
0.332508235277042
0.333909916981929
0.332416980515858
0.336103989773437
0.328244741683424
0.329785985081679
0.330235597773638
0.327954464546544
0.32902455470581
0.328357278392396
0.327458038498257
0.329243789310474
0.328153622904329
0.328802772820459
0.324856113746457
0.325834867612481
0.321863596565809
0.322044209582913
0.327912191573009
0.324934511403854
0.317985190830986
0.323451841865274
0.32734355254978
0.324587543415452
0.322491047290992
0.326412820419694
0.322073823321262
0.317450309434755
0.319434076080364
0.321238486460727
0.315466495705979
0.319647169745005
0.319684500597451
0.321343097791933
0.32192424692155
0.315714005166743
0.315244557692272
0.317917431667003
0.314297260497387
0.312256141747859
0.312744351211993
0.313692756576679
0.313877698855644
0.321248431107271
0.315847127371919
0.31363140030448
0.308049475737469
0.314338816991367
0.308890272778011
0.308064195609032
0.307615214347193
0.310623828236316
0.307688063237164
0.304414035599228
0.306130408730631
0.307024258835507
0.300702770612425
0.302841054250589
0.301670764138478
0.304254233861793
0.301018047220413
0.303860899187643
0.307032410992137
0.302830311634578
0.299478185980329
0.303896185590739
0.29507086668237
0.297496314663505
0.298813343659976
0.295171453327957
0.291395474191362
0.300318754436077
0.299868641271515
0.297984851349905
0.29481670632928
0.290141766756563
0.288930026860396
0.294508603018633
0.287102285286808
0.291012645977145
0.288739641432114
0.289922422228712
0.287417489732682
0.285546747206376
0.286704394674835
0.290543679759294
0.287172596268516
0.284362445496274
0.285058515724739
0.283421810599713
0.282147472375262
0.281729691230041
0.278151089761854
0.280895713452241
0.281650899768974
0.279467982826698
0.275360302351527
0.277075032464048
0.274274065390051
0.275416463320818
0.271592406231143
0.272197686937907
0.269912239854653
0.27424866772311
0.27593432011806
0.271992195570651
0.268754732362529
0.270942642922003
0.262490847059295
0.265181620088511
0.264768452626913
0.259320287351569
0.258885419908397
0.265625131716344
0.259734653951068
0.261529664912885
0.260213447609023
0.259323120503902
0.254461117685559
0.260014159715055
0.256183822085508
0.257203448876943
0.25609609530731
0.25479397088185
0.255499594211827
0.251483156593273
0.246833281045777
0.248436471243703
0.245701728068027
0.248936544995716
0.247142717646302
0.252463139630693
0.250144013265161
0.246553883079054
0.244129974239571
0.254230170362983
0.247176011143139
0.246460283668169
0.245885452485864
0.247983326147051
0.241783843229725
0.246168929824514
0.244246946372042
0.24368710937773
0.238877315738678
0.242540300521721
0.235852813343226
0.238420789698123
0.237326267314571
0.24017828260234
0.240504260416508
0.238114127915335
0.231544499101081
0.239412264607899
0.235326881044729
0.234461620415562
0.232987737414599
0.235014667210387
0.228431737227031
0.233772376964381
0.232832663107343
0.233188197258016
0.229921502460871
0.230982799505806
0.226475743576797
0.229837340951386
0.227931725418516
0.231118055784917
0.228838170651033
0.225518719682958
0.227372728779581
0.232417224328833
0.222546135377933
0.229592886426537
0.225897692113851
0.224517989586142
0.223332790914839
0.22481159599477
0.22211548213208
0.221077020201292
0.220443113482912
0.223603094073509
0.219926471753555
0.224557920156045
0.221839567610138
0.221585775651532
0.219174860023758
0.220088198500383
0.218182436656346
0.224238567444383
0.214618840918359
0.217772057929753
0.216478706492996
0.218097017921214
0.21865599931844
0.217888696334314
0.213706515893671
0.214913654568223
0.210929772698346
0.21589379757792
0.215894399520318
0.214675223587561
0.21128431139563
0.214098155834011
0.212087943411503
0.211175888459244
0.209639384694529
0.213196112423201
0.21513471665829
0.214926521072764
0.212975374499801
0.21404495889525
0.207337076880848
0.211904600742458
0.21142140796714
0.213134988074916
0.210666620015292
0.212986626939223
0.210702464017118
0.211036806643379
0.205985219390745
0.213474416368038
0.206650065960548
0.209575763360808
0.207594172159495
0.20798543696597
0.204364598540992
0.21040585851505
0.207550126461153
0.207101893961463
0.206309809778294
0.210243749829825
0.205494544767207
0.20785048841405
0.202198411777496
0.204539137383281
0.203229758308696
0.201583303282476
0.199916470746743
0.201328169396815
0.200448671117575
0.206849234903875
0.202661063864095
0.20058701512483
0.194499156848845
0.201880857133356
0.196122438239056
0.197049243780356
0.197449676810601
0.19861993781102
0.199665615836932
0.202909475140044
0.199279051276156
0.199491668614832
0.195333532757818
0.197946324979362
0.193654428962242
0.195530558324572
0.195035858397963
0.196956248827885
0.193466053171464
0.192444227626186
0.19135600434525
0.198340981032373
0.192797243659223
0.197206095800052
0.191626496166633
0.193124918031553
0.192562223525181
0.191680301479898
0.192770872553665
0.198202662916554
0.18890880505387
0.191881303685771
0.19247207429749
0.196093100757097
0.18937236600706
0.190367148227372
0.1903703015453
0.188336346299454
0.185701255636093
0.193873544337631
0.190324426440831
0.188784186589249
0.185668675770012
0.189912847509035
0.187558738971078
0.188605748249726
0.184408376889163
0.188048692663299
0.184164693830572
0.187137767870528
0.184527088136293
0.185009909428781
0.180522692860345
0.18140039444313
0.178864227122063
0.184563018589805
0.179108138007144
0.183193566653077
0.181347430021431
0.181098679597653
0.177627832620086
0.17842234758427
0.174939683936063
0.179733750468337
0.176885869119603
0.177021435597105
0.176616000927735
0.177594038207663
0.171593566600949
0.174694173540405
0.176635408587061
0.176506396327905
0.171451421308962
0.175590763154943
0.17160829166772
0.174124889513921
0.171635719286946
0.17497136266306
0.169369847397811
0.171207867123502
0.167931038106679
0.171263188536329
0.169317196501974
0.170778650679399
0.170843178076759
0.170689246904421
0.165500827821828
0.170979044075374
0.168894049539133
0.17039565201732
0.16317209837763
0.166134271933988
0.163760227724069
0.170738019668886
0.167257082327979
0.165709052935872
0.163081859083947
0.167294190241845
0.163779406678174
0.167174626991709
0.161431212022426
0.164696169533981
0.159079219932201
0.161861372543231
0.159168680251568
0.162213237059234
0.160130280525508
0.165702879396965
0.160968668055123
0.158423472402565
0.158689182964525
0.156967014664427
0.156254236492235
0.161717857642112
0.154849064978401
0.158673466428485
0.155786994371506
0.157746325209827
0.15267351237213
0.158069260826589
0.153374460377973
0.156065453107345
0.150954228318296
0.153681063750548
0.15059947107502
0.154049682185437
0.151221443162839
0.152801260366614
0.150294085758225
0.153931563154985
0.148282327968523
0.150062084415878
0.148302708012567
0.14918278341719
0.148575299681721
0.152303398917128
0.151229450855069
0.152290986685989
0.145157274001707
0.149014847375722
0.149190878206851
0.151924468876024
0.14357282005184
0.151089990382676
0.143368997010484
0.148359922981453
0.145694706722318
0.152271237692514
0.144433863680134
0.149512019964271
0.147365319698702
0.150598721352189
0.148045540059106
0.151334690400973
0.148722512985242
0.15474258373325
0.151789853245764
0.149202300191717
0.144925254137811
0.14719054045214
0.145656920362193
0.150509119711505
0.143834952864005
0.1559743666158
0.147588567448746
0.154640705148885
0.147788956287631
0.152575266838315
0.141355938923995
0.145640171189067
0.146479608251483
0.160754357382129
0.142601626204944
0.148936861515895
0.148742529623514
0.149221541392121
0.14644925201411
0.156746055199168
0.140650536256769
0.151911026148504
0.140994088232612
0.15380922956491
0.143105244216889
0.147497811178543
0.145216934141933
0.148066935001515
0.143058490678401
0.146664756420516
0.132857913552401
0.142577164376406
0.137861623800402
0.142786531851972
0.132805136354639
0.144622400306878
0.134372518307363
0.143190341082881
0.137836022742148
0.145164838178325
0.138388092682259
0.145064394740768
0.137078171347103
0.150807305570479
0.141528162351147
0.15320948229111
0.134960625410023
0.148713156179509
0.129071085829473
0.144027021792886
0.1312852716632
0.156578957083543
0.13855752343232
0.150859855304796
0.123001002771322
0.152366954363376
0.141929779018538
0.153634675046213
0.129229417871416
0.147183318245541
0.141377856234699
0.143727401130175
0.136057178144039
0.14511093675587
0.143616892307105
0.134864740025137
0.144076709540485
0.136068602570643
0.142013481334196
0.134860297200485
0.145359692964504
0.138576560518249
0.142413178366249
0.138396409121913
0.134979614440746
0.139406388329723
0.136625738935532
0.139072087702708
0.134102646139747
0.137827299532845
0.133453664891818
0.134103238749934
0.135604465508072
0.132195074332817
0.133712497367765
0.13213249969393
0.133057093831786
0.134505559010674
0.133441934118162
0.134078649541138
0.130587025332961
0.133850776672504
0.132541355641214
0.131287356912384
0.129422697799301
0.133895885419368
0.130647751484761
0.132077620961491
0.130257482069129
0.132082720566241
0.12923123488101
0.129959124769495
0.129801290454874
0.132476784380392
0.130146924723056
0.132023589023637
0.130853121664815
0.134739620805961
0.130355969763463
0.132565557184979
0.131323212741563
0.131578527476813
0.130691134612942
0.133431640612451
0.130354339011569
0.133374339841781
0.133211888780398
0.132241993710741
0.131635345828935
0.132015282750205
0.131116140897419
0.133710268545211
0.130179197525509
0.133983347392156
0.132117371634332
0.129252679694535
0.130926322266559
0.13650084270181
0.13258430370338
0.132636598375239
0.131110614400965
0.131479590566289
0.130124663991632
0.131918531732848
0.130611577975533
0.131078882129736
0.128788102637724
0.131133406950676
0.129311981192054
0.130259161062308
0.130365625796673
0.133253849709767
0.131262933214171
0.133692247293456
0.130331465158057
0.134073581396009
0.128353939141301
0.132051786190443
0.129138516840573
0.132957179252738
0.130357024019119
0.130398582862301
0.130735945639328
0.130296116174877
0.130532396806789
0.134475910219526
0.129697908217618
0.13225637448604
0.133330894973101
0.135333271483728
0.128831572729386
0.132745016668814
0.132684253475444
0.133798402011665
0.131169321168976
0.13332345500959
0.130426511394926
0.133931082453051
0.130329053513605
0.134256698522395
0.132759320978244
0.134930853016579
0.129928875989993
0.135329305604547
0.132323110507428
0.135476548292742
0.131462273690638
0.136474901866073
0.133052420641839
0.135907840634927
0.132801746806956
0.134144670586765
0.132592534969541
0.135151613872773
0.134324563237056
0.13639297031625
0.134550318703598
0.138320062436672
0.136164256025295
0.134163494979607
0.132404508190837
0.136325273411922
0.13507603242401
0.13567521170246
0.133624444814734
0.132543367192121
0.131607238830406
0.134937194539317
0.135473707154025
0.136290019955931
0.135074213037096
0.137683261268021
0.132919585137638
0.137484525386703
0.135304627629082
0.136561036516736
0.134183135423069
0.137155749683519
0.131939545849625
0.135165245751613
0.1355871710284
0.138460870797352
0.136026172158464
0.136891771105874
0.136390443225402
0.136423832486993
0.133265792339878
0.138473128353843
0.136310791858989
0.13648867830417
0.134705444916966
0.13963106474529
0.136925794439377
0.140408348004671
0.137946879306848
0.138101901859099
0.132522870683715
0.140077838780548
0.137123508064879
0.1378402345552
0.137336397599579
0.139852706594775
0.135613759939969
0.138578124065476
0.138141370633736
0.140875304081653
0.140938501693708
0.141361295505861
0.136929115962478
0.14240121423775
0.138452630029887
0.143521372772422
0.135268047886859
0.140559727165814
0.137803136695097
0.141965476874064
0.138974608404364
0.140252260399013
0.137508795034491
0.139860433395343
0.136813357195085
0.139351087089929
0.136352939332084
0.13694104024095
0.136466075721861
0.137878049859584
0.136121042300419
0.142769393516459
0.134539557159446
0.137623537001865
0.135510432414854
0.138387970472052
0.137567398517893
0.137561069532563
0.132897369250574
0.13724457928811
0.13493079755743
0.135991285136409
0.133395178864643
0.136840084925896
0.131683885369172
0.13722514438149
0.135319499177161
0.136664982965199
0.130281923046229
0.135184607188466
0.135127827538796
0.135087785713861
0.132060938946317
0.135232969986876
0.131175443119632
0.136270506047622
0.13141484329253
0.136278676271962
0.131335452292111
0.136952390186524
0.131273184059975
0.132563707789815
0.136602203881358
0.136460034064822
0.131335765072284
0.133960593514619
0.133302302002362
0.133491891204951
0.129997494750461
0.132187021786062
0.131880663956967
0.134842907595141
0.127858423367242
0.134796735856566
0.131424087394832
0.132488344619814
0.129559283059461
0.135601115481812
0.128670556102656
0.133302634755353
0.129288177890247
0.136070663911122
0.130324287245978
0.133503471285687
0.127851534464649
0.13093465122785
0.128896991757082
0.131820364720575
0.127155880618143
0.129036168393865
0.127593823057181
0.131468209915447
0.128186680837095
0.128733765017396
0.127133713793559
0.129409555183659
0.1255156187504
0.130708444279724
0.130118269832199
0.129310987218951
0.126773629876735
0.13137529209171
0.124394880093881
0.130787244270007
0.124525186361365
0.128460334954953
0.127499313149424
0.126967926954051
0.127447741330207
0.131926238798892
0.125191069174063
0.129816577802303
0.126330823249047
0.128257513541379
0.125048379662201
0.128295944091737
0.124780410573386
0.129420804598929
0.122162231628746
0.125558769823277
0.124526045434884
0.128394580693992
0.124125273213464
0.126385660684821
0.119843861106984
0.1280581502171
0.123903563121985
0.124907798470293
0.120718021991653
0.126986797266211
0.123858343726044
0.12463656534807
0.119525564643837
0.124085791438028
0.124248722925407
0.126588254483166
0.120811374070606
0.124675259537203
0.122557305266658
0.124345177609563
0.11704292768887
0.122184198723146
0.119812265358863
0.1215538355069
0.117519267352374
0.122675531198109
0.117690214694023
0.122312422266862
0.121325796394172
0.120007049210376
0.116981196390407
0.116875955333856
0.113190431722222
0.119896900774843
0.116642751345914
0.118209548878363
0.113340928224035
0.118358029102721
0.113683483280748
0.116281692185915
0.119389760203338
0.119226547412258
0.114087410582386
0.118503247241251
0.111978849570982
0.113079033309722
0.112151003382937
0.115830745760394
0.109550663420892
0.115576682973799
0.112039681972317
0.110384697307249
0.107333238844166
0.109917397999205
0.109174190065318
0.111680820662057
0.108894994104272
0.112654897762298
0.107421179341032
0.11097756735674
0.111157043024687
0.110569416759013
0.106548152249667
0.108995699090325
0.106678392371878
0.10725627233264
0.105059263123064
0.113688656612844
0.10875370674599
0.106899010645087
0.105320739656717
0.1131951866745
0.105933714327652
0.110679207227078
0.103836043109176
0.108903348838327
0.104699398085778
0.109796041403301
0.103466449726163
0.107866420921173
0.105389939761306
0.107710839451648
0.104026923308644
0.107151590350277
0.104934070003768
0.105950153196106
0.10485592353164
0.104383526937377
0.101246722335551
0.106991914425095
0.100537136627594
0.106152117301524
0.0986561391661668
0.110285836178817
0.102382102577487
0.105217217516281
0.101573296987996
0.102732343935677
0.0971273706857845
0.102448582672091
0.101883320563754
0.101695710090871
0.100897711094725
0.105453046440476
0.0963155269983907
0.100584875468262
0.0984549429172739
0.104350202244762
0.0987976836427257
0.101137940789775
0.0973843940716495
0.100035155238404
0.0949911795733768
0.10110660083425
0.0939680878608167
0.102884755360969
0.0923593899446958
0.102682869497135
0.0961438185893236
0.0979253202715917
0.111986454656746
0.10048841822941
0.0981408728866575
0.0972790576820173
0.0956832460135051
0.0968049565198027
0.0939945532454357
0.0984681223348093
0.0937014801000416
0.0961410661954028
0.0925807600811889
0.0953585233735438
0.0959557186304505
0.0958046598318937
0.0930168653979373
0.096228915456534
0.096892737956026
0.0961039644055054
0.0968678821239828
0.0920255851508038
0.0968385150867912
0.105927862232387
0.0945368984975671
0.0942393571414546
0.0979864054980146
0.0880343859393021
0.10973166792834
0.101843016927679
0.0928696269273471
0.0946252892015324
0.0937164932697158
0.0947006041982307
0.0934603189180204
0.0952100694754058
0.0926171442304796
0.101111450456335
0.0906054346228596
0.0985853483251131
0.0927869055489153
0.0977421201923594
0.0851568083471785
0.0968121895386965
0.0900190632253799
0.0955735026294599
0.0922309509659382
0.0927597698778438
0.0911603693457913
0.0932504540728307
0.0928641517254785
0.0917841055239795
0.0910235457955421
0.0996761224253798
0.0908471921183612
0.095842907414384
0.0919185458356431
0.0898013971299847
0.0853971041633911
0.11183553368408
0.0883326774359919
0.0976381149494794
0.0875474966130408
0.0945394266887273
0.0861026072470745
0.0929136559619731
0.0900851447995443
0.0968181972991055
0.0892280405746467
0.0945681303472702
0.0873594540625236
0.0945760305379046
0.0901050747674625
0.0937141572241232
0.0891716193126274
0.0925490698920696
0.091335588118531
0.0902142748693447
0.0906755016452666
0.0869217291793149
0.0931880507825467
0.111229716449928
0.0952081097191208
0.102185001584637
0.0903082338309787
0.0930843396269303
0.0860028324272254
0.0969705372686011
0.0866974395985086
0.0953772736762291
0.0859989349346175
0.0972608840592858
0.0869737802575157
0.0956275929424739
0.0852941299702348
0.0965323773965844
0.0829841342862996
0.0944078232235739
0.0836379753825666
0.0965331600177214
0.0848795486042471
0.0973668876080548
0.082556645297084
0.103389843324623
0.0867045521111814
0.102359810041781
0.0707632409369742
0.111982984788462
0.112096352825857
0.0881030945632653
0.0988238419554355
0.0879772795166124
0.0887182885234887
0.088679630274401
0.088069415915819
0.0952808913511624
0.093483607539325
0.0941408764752373
0.089789228206991
0.0907754584728819
0.0916031573816784
0.0866785285712183
0.0844906215011471
0.118647949559985
0.0939979047531219
0.0993007503181155
0.0880032651578832
0.0878933636954202
0.115147824182662
0.0938862134952831
0.0954147995686157
0.0949996291014199
0.0919679549599863
0.0920610359157368
0.0914008342169187
0.0900205884289968
0.0925671876952607
0.097085786319437
0.0888272798767411
0.0933222383687219
0.0854601883146323
0.0985918570212326
0.0911170622565257
0.10434122531558
0.105046278778693
0.0934412754816372
0.0942799042545178
0.0973589600545035
0.0898520154761775
0.0967277864337136
0.0935830401082855
0.0980100094348019
0.100520907733041
0.110163499542201
0.0904052312528937
0.107468886126275
0.105918134083169
0.0936879042428529
0.0989580187466498
0.0988305355571185
0.104985736044148
0.0917641968810069
0.0901469058137849
0.1284324269805
0.0950045647704725
0.126413985543727
0.0871923750782025
0.106972456230268
0.0868846150868124
0.108289171396075
0.0860992246756482
0.122522723280501
0.0918134120870427
0.108687063083205
0.0896718202042619
0.114215302021723
0.108158386774982
0.103161265577775
0.104764044490924
0.10696837946968
0.098753401394993
0.114126858818652
0.105380680515044
0.0903122985708573
0.121776523078455
0.128359857244285
0.120809648029438
0.113808059821123
0.0843260272050378
0.148608170099784
0.105347267021811
0.115059806026594
0.0994724606719082
0.113004828892828
0.10415726187115
0.100807170307388
0.13102723587191
0.116830749333293
0.101374227633701
0.122159309228927
0.093155223996446
0.132631760127937
0.116567754802329
0.113728936774044
0.108691184120517
0.127456245184594
0.0931445920875245
0.154022831886393
0.124792994177474
0.117797064891293
0.148136286106633
0.125249834695921
0.133633396714146
0.128995379855573
0.125368006024018
0.125898929518483
0.140930106016162
0.130725339747552
0.114445316785108
0.126866093065368
0.158654705502031
0.124692237795634
0.142277716817293
0.132332991140926
0.121964902734527
0.151540343631125
0.177898069955651
0.162091589274511
0.146342629971045
0.134150571329248
0.163540345860175
0.147367153647498
0.143831528595357
0.143231210671925
0.14437991779021
0.149845338385133
0.142653787287706
0.163909664524814
0.149500151062553
0.156376052149461
0.1548139062504
0.149181160253818
0.164716504705149
0.186058178754927
0.210154325845225
0.157168420550368
0.212095451523814
0.186324666476965
0.177623020670034
0.170880845479059
0.16766703764763
0.187768091862629
0.176725438787717
0.183453388167246
0.169722887701988
0.210187782370227
0.198851383371187
0.179924287760062
0.222549922321864
0.190049839676273
0.20778687760289
0.147469761050605
0.40437509300803
0.225313859755783
0.234281541934798
0.230897100086325
0.20357853703523
0.321049948751094
0.244515558970267
0.251236299563321
0.25501970874795
0.257951658073043
0.264451493641596
0.280287632001177
0.28316181295684
0.297559139924618
0.302932532826195
0.289243187468022
0.298355287177775
0.384147016241552
0.363303247289914
0.366096733257202
0.331526538678012
0.35969356497534
0.36981719437034
0.367012887119413
0.371238234063573
0.384579524696699
0.35131030806321
0.478672018936558
0.399062161852076
0.434003528579424
0.402014894248448
0.480587027767058
0.404429795489695
0.505047061110997
0.485205971486396
0.469402420268272
0.484034528082757
0.487898117827311
0.503870864763937
0.478547541423662
0.537490244890135
0.533847618501666
0.527654498690311
0.538552402138696
0.530004984320835
0.556866831558406
0.548635430137688
0.572981229050279
0.536363543206143
0.633102272252033
0.535183052605493
0.750645826628697
0.62471817519936
0.57691912414054
0.598564470710225
0.577441920485743
0.640320492637328
0.603362520528302
0.612000331180812
0.646057710617199
0.58195749268289
0.61338830652258
0.590022252211034
0.610568427377627
0.595890940120548
0.631684387431808
0.579675186016543
0.644508851828549
0.591796010031719
0.610698036971485
0.70593216424086
0.614328752531441
0.60537112240257
0.600238514193254
0.61209199448419
0.594527843148678
0.606187321336543
0.586544075934683
0.638010791462071
0.583713082265718
0.610081890359866
0.566532481497883
0.589441649314311
0.619853286131571
0.563729775168247
0.561103937341464
0.544124577458667
0.556665446255822
0.533159389214821
0.529230284029232
0.611769918177815
0.525511435439772
0.53105648642383
0.510572794971916
0.508774274277182
0.512906632697483
0.507206844088532
0.509405789110818
0.509349196813242
0.500141179950323
0.498685854267005
0.484969707411364
0.489128288683624
0.489943902840822
0.495530162348367
0.484716422382135
0.475500801570138
0.476289551563386
0.474952299634938
0.485111490978016
0.470664620828532
0.473310407290854
0.474156123511646
0.465659412445584
0.479458085064882
0.468677959593163
0.470743881672327
0.473148492785966
0.467919864924258
0.471074192305284
0.462639079246176
0.468693252129824
0.460807934997231
0.464733601174932
0.457227824786793
0.465214134063975
0.465748153709067
0.463785341268274
0.451635423432997
0.466879313793513
0.445709865065697
0.467021567650918
0.427715958797943
0.517730003249986
0.48465477184423
0.44231237986575
0.45913209965973
0.443115063990106
0.464428688611122
0.416807441698528
0.478842553597054
0.476442622955321
0.447302273333197
0.449789117557846
0.43434975164017
0.44239972236879
0.452755299071811
0.419677358728633
0.446717936847529
0.401667553302872
0.427160380566111
0.488324431908965
0.409644027617463
0.527119465251392
0.436888746999069
0.425287133609166
0.392933726329659
0.479537930429763
0.409355627402287
0.434503985015013
0.399116503419597
0.446657722684395
0.427028827008115
0.410624964031725
0.417530641655711
0.395713289968448
0.416312781048293
0.438976169264077
0.4066235821798
0.404209923464215
0.448121243759423
0.391038532937839
0.433233742581197
0.459725654568505
0.434643001257791
0.383250933816767
0.382852880901929
0.381450993978993
0.353382563725558
0.448309169041131
0.376645208545431
0.390023912410222
0.367060418432428
0.358682817609925
0.368185503373199
0.371913374116205
0.375820684941628
0.337031349127913
0.413627954098801
0.334269942990533
0.357114630425854
0.359277406304781
0.359798532631399
0.400338100238833
0.353637364868616
0.334495760032245
0.342764354434513
0.387237621171712
0.325945691983037
0.354044100917454
0.323820508354879
0.313521192217328
0.344036085534649
0.318659836671236
0.318630667649686
0.334333270633235
0.301236297248562
0.365604183937719
0.354362806286043
0.36779822121052
0.327486588079216
0.295606971583157
0.305556846211437
0.2943367926271
0.313434305791218
0.288422769889294
0.319425910397674
0.331170600095628
0.261224178992286
0.371530342357836
0.312455645288135
0.307277127676417
0.307601954616503
0.306433198816713
0.304403824801444
0.332008603566173
0.339786251974857
0.33684068755876
0.305331995232315
0.353916119099327
0.313701798940419
0.341722554247171
0.319431106588999
0.34373585852071
0.333358228995168
0.353917076766037
0.347778251617091
0.362446514752443
0.358202260348835
0.370194363619103
0.356046515910785
0.439069890530444
0.360879119837504
0.436435262596964
0.390792324659144
0.458666344394232
0.433726638852297
0.41806654661527
0.430649996508851
0.433493083512541
0.437476784005847
0.450069148900164
0.43206079297548
0.503174323251236
0.45094568624124
0.476315256732159
0.45812618542671
0.487027484119445
0.461476991320447
0.51072244322281
0.491170879008988
0.499246840178977
0.572914467534429
0.510848278290185
0.520800055524236
0.497585065255845
0.520608799751327
0.516856484796537
0.505606116442254
0.514714341015678
0.50147879173283
0.546413387636775
0.520818535363448
0.521459177653759
0.526601783751705
0.529082142644591
0.52530303445187
0.530789221705269
0.532466203675421
0.542373265824526
0.535865065788607
0.556584868762278
0.503488235854038
0.647865222264064
0.576801571110489
0.56064298805048
0.567852656745862
0.561689639048781
0.5795316005549
0.568815214572643
0.585044824037325
0.589709051427438
0.572231919875935
0.592406436410986
0.578673203292505
0.603853386297987
0.589306536534359
0.643979943858469
0.59511429446231
0.619030405315794
0.598320722917131
0.604567030842396
0.687020538545742
0.602634240021084
0.648296906804823
0.622981990900697
0.639051593519
0.633081966665881
0.643254194781043
0.632663695356024
0.641038391052627
0.627274251691033
0.647576927666221
0.642913016754807
0.6317041578755
0.639468034528179
0.623768851498102
0.660556030248506
0.640487757838828
0.63332583338932
0.632849983394582
0.63830452852832
0.628625433753149
0.64552836309417
0.65826334646801
0.632130563699267
0.642955792142576
0.626916368625256
0.656511964914705
0.653114404286767
0.632659447600143
0.643023700610185
0.626568728252573
0.633676517709061
0.636157951083203
0.632026699217081
0.678471906762218
0.639403543816578
0.64971272844886
0.647250071780746
0.656531586575611
0.655284948676674
0.659900717359988
0.654421067270717
0.663791477823244
0.666899880022573
0.685538458249534
0.674950967553809
0.669520096015821
0.685808739035851
0.686298439962141
0.696142737229144
0.665898828920592
0.665026478812133
0.667270091542768
0.665934965790888
0.676347845423645
0.660287722188612
0.65950048296814
0.648966923257624
0.664900279853862
0.636260259727733
0.666337165544119
0.638785495060568
0.632920440393564
0.639600647678642
0.62585880509619
0.627156859001476
0.61563285773385
0.618628048589275
0.612160601203686
0.611680142187222
0.594283851150297
0.603263670426803
0.601159015225772
0.602619357847564
0.600340887097963
0.60084692746348
0.595707134980962
0.590148278401824
0.597543497081064
0.584495048664028
0.592207822064035
0.585286843397838
0.593062744744681
0.589979510953064
0.59407656101895
0.608605275390168
0.603075798173616
0.595773216791556
0.579545950835476
0.60004269803983
0.582696473320836
0.5846721095255
0.577672688373557
0.586092312275372
0.585613043527043
0.588581858176958
0.586282616991555
0.58930378426333
0.578659732994876
0.585301651228044
0.582808038085761
0.590719614363678
0.585682339356391
0.583287992376172
0.58393028332638
0.58423102723461
0.578502810685591
0.591583115998436
0.587745308601984
0.577992031780051
0.579262073315408
0.580511610958069
0.57964515367306
0.574584790835752
0.584421002345025
0.587950831942117
0.580802578126405
0.58843598527256
0.583973551099125
0.581513555111284
0.575922953219958
0.579578274662617
0.580039740569556
0.582980807191193
0.573727917946287
0.569914826592201
0.56534551240831
0.564217743238683
0.56461593178253
0.562926465489213
0.550514358598609
0.55151917566511
0.546163529292404
0.54145519086189
0.536509758139105
0.537148579210933
0.52969750593221
0.529510127116046
0.525503988852342
0.519514438293171
0.514117856778614
0.521964564870863
0.516112398406997
0.512819977958496
0.510450891175347
0.511886396044615
0.51174504125547
0.50854692799124
0.504625255702574
0.515000764333272
0.513226607374788
0.508546987505605
0.512264994619166
0.510798416334004
0.515686360105858
0.514277421364296
0.521149197792972
0.514094937723007
0.518957698490392
0.512632599414553
0.525614414838923
0.518821490784669
0.529507948774309
0.533162145100834
0.531032743781291
0.534651846784525
0.535829147023811
0.531621017416047
0.534397925854739
0.538315111618979
0.54126657579712
0.539429793680229
0.53454650823655
0.544622613314892
0.542269976150823
0.541889402185393
0.538156039119057
0.543678451649574
0.534136935607656
0.544858482062505
0.537908385107869
0.53147306181639
0.527334443324453
0.532396321483576
0.530536013532985
0.532060021042551
0.527395914347208
0.528887875805855
0.52636356645691
0.524667913479727
0.521576528487157
0.520464504381368
0.516723471835461
0.515913901140996
0.513193873559028
0.512146958746866
0.512769169624155
0.511258455592466
0.508055826596618
0.510230570896268
0.508312226182779
0.506806937634837
0.499174033595618
0.502184662250342
0.500845291254994
0.496289329919296
0.497731393371064
0.495247753055891
0.49387280601146
0.495518602458676
0.488263935917217
0.492199640305208
0.487470838703899
0.482918644630255
0.482097918051679
0.479789175584582
0.473115462836378
0.476336223114724
0.472747130022475
0.4699774562785
0.464434745200176
0.462072297233395
0.456173011042912
0.451426723180292
0.449905003098214
0.449196157385688
0.446121520879935
0.445647787969482
0.439533272861728
0.438667498475805
0.439185988352675
0.439159804933815
0.435882294135962
0.436438923654774
0.434775672213752
0.431670203113614
0.430384824899296
0.429808399282252
0.42314418438351
0.421817203436531
0.419420817599825
0.41424994949909
0.408674844802865
0.404630930579755
0.396734756222651
0.393382911188641
0.389250548830339
0.384212373430921
0.383176095827106
0.382329960466089
0.380575870975362
0.378785480238673
0.382659101599881
0.382828586136483
0.390268967028355
0.396742379115317
0.403009019807467
0.414682183577877
0.424523003169436
0.436120593433676
0.450168975399505
0.466959576939078
0.478903195324299
0.500424235861008
0.51599908256655
0.529702246208097
0.547972291692686
0.564211783792565
0.580787364435004
0.60048707254142
0.615766920720185
0.628892457098309
0.647808809092544
0.6674063353875
0.679962872797123
0.691372327495116
0.710238703076995
0.726431184682744
0.731012444981473
0.739031505309142
0.756076480212357
0.764860091857446
0.77199413559943
0.785620850130756
0.800459126237066
0.801815631253732
0.804369421999374
0.817675271700109
0.812736759876564
0.817610456965891
0.818127607598997
0.817506788249215
0.823802777233873
0.820260988273731
0.816188760272894
0.820370502201044
0.811193677291992
0.819721942820286
0.828737677420654
0.822512718150453
0.830487065430971
0.826801195290392
0.828666469917933
0.8381989821178
0.842619572407109
0.847388585723203
0.854862744679084
0.858154294803625
0.862260084867871
0.871416783296789
0.876826165260699
0.883694051692074
0.887881972323727
0.911076846379731
0.927460714313786
0.932866374618693
0.945391402620667
0.958444885337072
0.980095623650861
0.985660284271416
1.0011240343603
1.02027502615816
1.02762012470284
1.01478369458108
1.01739815255031
1.02848322292796
1.03622230023831
1.04830113997906
1.04886904946489
1.04121787757709
1.02753880361234
1.02136254003696
1.0192827115511
1.01681410672854
1.0174479774602
1.00870820740346
1.01714932938191
1.03083600996597
1.02579331003367
1.03429820957201
1.03631038680236
1.06117825851066
1.07091070918101
1.08417972917233
1.10195595026099
1.11250448464296
1.14079903633617
1.14801788135451
1.15398236152974
1.17290477657408
1.19354995802686
1.19620280415929
1.22300754415259
1.21803077856306
1.23069986456144
1.24798751359878
1.28094206136052
1.32649925937035
1.32889125274615
1.32360754454542
1.3838460108626
1.41314797080629
1.39718980880574
1.43218854702422
1.48091001676507
1.4626003900387
1.47977730027505
1.5043775540937
1.53783775436789
1.5487128395293
1.54710354910994
1.56280747218732
1.61123590398858
1.61933649376625
1.67774437914181
1.62354008934289
1.65980996588525
1.60779352442901
1.58981972536619
1.61932896709909
1.65966269398425
1.70206447937165
1.69898611200656
1.64023277511187
1.67684996462199
1.65106972101903
1.65954940223165
1.65225698554592
1.68041896352683
1.70712547776625
1.63517911989838
1.68783754156881
1.65232047186037
1.63832541919208
1.72574296462977
1.70644667405181
1.70784441415989
1.72942570120951
1.74443313046637
1.80550420368303
1.87875740765557
1.74043137964061
1.82166300153813
1.84833132747781
1.89744069375854
2.05357366212467
1.88700642645752
1.91298156101055
1.83669186852299
1.85932336881508
1.99668936487398
1.95251838318865
2.0841897219556
1.90251746771223
1.94942529380882
1.96239748219213
2.00044862598765
1.98552895255796
2.05479928461823
2.15057991761619
2.04907762646529
1.90820895136025
1.99548864136507
2.05951529648389
2.0951487812334
1.96665872952929
1.9769689395357
2.05583294033954
2.05299816803349
2.1069542403933
1.96530028449469
1.93763562686741
2.12753583774601
1.97789042579501
1.90334054702515
1.98488385146532
2.03850190315199
1.94133428922759
1.98435732615315
1.90604619237884
1.80253669817644
1.73422386454032
1.80481351363478
1.76879438993806
1.68374429347365
1.52704448801707
1.56444834510359
1.61910278421003
1.54546073951952
1.53037121072356
1.53763434177618
1.53638366830556
1.5035524972138
1.5178113438062
1.52741621616141
1.43146417710255
1.46699482781437
1.44535941495368
1.38457871523078
1.42813135778117
1.47392725339354
1.40198695217611
1.40774011966415
1.37059999912695
1.32745330664629
1.35217866302342
1.33470728433119
1.30168171676196
1.28441018022543
1.26975340856749
1.2754398726953
1.19310248915367
1.13598426023736
1.11145604373749
1.08041454170352
1.03799033375294
1.00274066210635
0.958264330868385
0.930326251565705
0.897769742512816
0.861512398810657
0.835865148006904
0.818290496126595
0.780441974580853
0.751453384119267
0.728138677404076
0.71420341837662
0.690818956868926
0.667653601600079
0.663634193873213
0.644411113712603
0.625865043995781
0.620046956966145
0.612400910966682
0.612003132050281
0.602550061482611
0.596563574632675
0.585775088215628
0.594087444211657
0.591941286004754
0.592234394108727
0.59378262132366
0.58925747665251
0.583434078009773
0.585098236318591
0.595448517611851
0.599114359082456
0.58992049641287
0.5913281831576
0.582763727176318
0.58922081474913
0.584944935794037
0.584430311901308
0.570571879238907
0.563636734341345
0.566055509623309
0.560549422428219
0.555812537170818
0.556316133883918
0.542583138606592
0.546886481396955
0.551869008976971
0.540927507355139
0.537413226115841
0.545588987183407
0.545121181667953
0.552705938626628
0.550915715503589
0.555424522846524
0.558841934050308
0.558176372546614
0.56722311789354
0.568644009811804
0.559481365861251
0.575234709040835
0.5752355318304
0.576765898825173
0.587169957543883
0.579132769723271
0.578249407657887
0.586012019483287
0.586488770326339
0.591811609632273
0.584444279234646
0.589640473970304
0.580661641316972
0.585036501843936
0.60034848783415
0.59287308324602
0.596579283664644
0.602071188777823
0.595328149728026
0.605938499400383
0.617840891443938
0.624432170540865
0.632266517151243
0.664466970176496
0.659913407502594
0.667579679375725
0.714114637491265
0.726981925174949
0.71956013990681
0.732724830367234
0.740538874913672
0.745437661638703
0.76354413654144
0.77445283120839
0.75582668121366
0.7302748141315
0.727091306290356
0.732560047601173
0.714053676176363
0.708007220274756
0.708023753852586
0.687334972447675
0.692196807132638
0.699419151105143
0.697995396153212
0.703726187136638
0.697790621898238
0.694131288230248
0.696391096464565
0.701991317522946
0.698880461697418
0.699553629159359
0.702539733409059
0.694702594046052
0.69809050217043
0.694516184897811
0.671541420401077
0.669237550832947
0.669548488879593
0.660495746759373
0.656362715299157
0.649677720537071
0.649613246667673
0.645082209564036
0.642657442568721
0.648115577975125
0.64614849999164
0.644256879010928
0.630072295300097
0.628495190617652
0.628392146680957
0.636657101779761
0.63174130730674
0.624356116776045
0.623838043114323
0.636236046413098
0.629592476832904
0.613079562964076
0.608879378030004
0.607648689893847
0.612246970179144
0.614816522272367
0.607071195288686
0.622705526380512
0.605600797627991
0.595225317019787
0.608026785376945
0.608739817337429
0.59626202406924
0.594335079243407
0.602475228710602
0.596165718102097
0.600013747488506
0.612586000343504
0.612728467868199
0.604169327571949
0.58253088293461
0.594314388141779
0.599014373181902
0.583367070476574
0.585541239434037
0.588558906387338
0.595160503093342
0.584264249856467
0.602445477610897
0.606724192960554
0.58798152700225
0.590130922784576
0.584154127135271
0.616893008154897
0.61947668951681
0.608040763286224
0.610724441546818
0.586514574097742
0.604722556686452
0.620727499456319
0.604830744015818
0.623703715226562
0.644166915396908
0.607481846102666
0.611318731700733
0.636522717474545
0.619372387994905
0.632026619855871
0.637466959922299
0.63530547636755
0.659044582420282
0.672413250614346
0.662821137059113
0.661737292793038
0.689739787375311
0.685032609453137
0.687836654425124
0.696372813886511
0.728261536385601
0.73219031783178
0.728885962400094
0.758638230830923
0.835022274301318
0.804445724635276
0.772555964267876
0.831146833569022
0.88051808370288
0.884187906840794
0.864496004351492
0.892394223899516
0.887506397526651
0.888663638658723
0.983890472307566
0.946232382866845
0.970379549805037
0.961156661190357
0.911510632359839
0.923416171450125
0.921255325271955
0.892140670227568
0.951073614530066
0.925561380723787
0.951818389265573
0.930362977256762
0.970864756672109
0.951125540835095
0.915774171238506
0.912584937544817
0.886314156523886
0.880056264615452
0.940972233069346
0.930849922623359
0.891517326726975
0.862804950094123
0.937175130368479
0.984150673338369
0.84846061095053
0.860446117315333
0.931280209254036
0.856791374612689
0.888904182840578
0.852430494655304
0.875011788515266
0.889483809233196
0.878671977116441
0.848148199446318
0.860443987274852
0.858859322095297
0.856520896882192
0.871826988108544
0.865613060968415
0.823010681499355
0.894973719697902
0.893770959835586
0.896581562412919
0.935836194976953
0.873953939617153
0.895488893762725
0.855460556987069
0.844371053319456
0.871892803451878
0.832956016780524
0.904400558522327
0.890384607090259
0.860879156176468
0.940529936225629
0.95281863569309
0.939719220717635
0.915430068207925
0.918829113259965
1.09317502352639
0.933182558480343
0.889965681433991
0.977078980536918
0.984678783040339
0.88329867128001
0.976802950421745
1.08249493452929
1.04265430240089
0.873870477831255
0.879415689290874
1.02579861968576
0.895944545807561
0.839374235459458
0.9362360267098
0.98379279409577
1.02227411086739
1.11547545615014
1.16056333265651
0.997933873201967
1.09320890683361
1.31032542353758
1.12670841348476
1.01237395163382
1.0656785633303
1.00446216344766
1.13061403812748
0.943063612643041
1.1665757366985
1.10745259063155
1.09878896459732
1.00294735143501
1.40844413124866
1.08434301060601
1.34260998127676
1.14679846019095
1.17992400059213
1.6648951714941
1.21947761072637
0.866924377623764
1.14694342945882
0.996033843395079
1.06271691167612
1.21839182802927
1.02844125367203
1.12802909291168
1.04298963095283
0.859782742528998
1.08221718766283
0.883792829800246
1.41497268294946
1.23012311175919
1.34809573230393
0.985971937025058
1.6922641602177
0.934404662210889
0.878541793271282
1.81755103929956
1.29591446578469
0.848474273748745
1.24098907223982
1.16013455791236
1.55652880321623
2.07033841904867
1.22038342710407
1.41546724576727
5
1.14031896046126
0.751567190447628
1.378544160866
1.19605104808406
1.79277170050019
5
5
1.2190262270173
1.48191648119144
1.41099123104838
1.14527865738164
1.03636026911003
0.568475729815888
1.03093643855437
5
5
5
2.05161065322658
5
5
