3596
4000.36533379555
650.420452594757
1
2
2
0.0970068741237348
0.0827247713345772
0.0856296396218254
0.0870855310758631
0.0874420725712587
0.0956640619987006
0.0920348974278191
0.077786960953279
0.0849668000953455
0.0818801981700652
0.0972724449297154
0.0809497035253142
0.0890409976896631
0.0900151274215144
0.0896284885938713
0.0876266063596177
0.0834445837130706
0.0797312913691111
0.0934462727398513
0.0779624113925429
0.0873147983988793
0.0754265350555954
0.0872631171844692
0.0847304653503118
0.0868086934995851
0.0846831072256306
0.0803897161147111
0.0870024938883182
0.0865319129465811
0.0947130249734515
0.0935693041167177
0.0886739658918945
0.0851066351959872
0.080008305364302
0.0865315638979205
0.0865500015113765
0.0950786804092725
0.0827974815246618
0.084114009483302
0.0864395027163581
0.0942770951805404
0.076762270130282
0.0922739614908224
0.0845372448602089
0.0871454035054331
0.0829843824515019
0.0902205345019199
0.0837444648819351
0.0974965504231677
0.0839632095162004
0.0836264730365501
0.0737531957018854
0.0928424879935531
0.0925458122519378
0.0915324375055723
0.0990611534496878
0.0913747345970656
0.0761609789919278
0.0846620083574756
0.068329348289699
0.105338971623921
0.0944407503048331
0.0897777066467297
0.0723935008100965
0.0766091005605594
0.0807349842546166
0.0866300567960463
0.0731963338806547
0.0803999586584323
0.0772375956296364
0.0784021428715662
0.0957644628301897
0.0960470758878247
0.0878159732857764
0.102049399799626
0.0890922163349201
0.0700456934233419
0.0797401222482577
0.0795527242112038
0.0798992645696758
0.0943452336733568
0.0876700692375388
0.0862484657083423
0.0672809578933787
0.0927547909833047
0.101511289128703
0.0723271661534027
0.088673502476335
0.0981907876688098
0.0827858314419818
0.0807092727311046
0.0763724262691451
0.0790052124646312
0.0717996158335341
0.0771150597980876
0.0784844465952938
0.0812580285871279
0.0879023223249472
0.0724707141410069
0.080783907427627
0.0676215558078734
0.104220293985306
0.100115302436038
0.0683815761021542
0.135429702653839
0.0793879337791328
0.0781368826296203
0.101604150315977
0.0999327545862178
0.0724823680800866
0.0777608322177863
0.0706173771552535
0.0830538427028459
0.0835052450891096
0.0715498678178263
0.0941917972969793
0.0977104357283491
0.0826742350674616
0.0842798973317331
0.079023933030586
0.0478532170050375
0.107580753482797
0.0983904834199761
0.0781703367387186
0.0879508235445584
0.0691305492228213
0.0594423468808124
0.105906694271711
0.0988480758811441
0.0743073163876784
0.0655125931523055
0.0801046706072772
0.0601791544796288
0.0734955156531352
0.119662646866058
0.0763990071707549
0.0758396735747915
0.0533140844311295
0.106448383264779
0.114773184158797
0.0933330579497456
0.0793046922403571
0.0585073001087866
0.0828559463365875
0.107444719260204
0.0795773955419355
0.0717278921061084
0.0951010785782436
0.0830210453632501
0.0787295994573406
0.075571674693986
0.0720989047718114
0.0925004867435246
0.0765437923301229
0.029759587104475
0.137074781446428
0.0895579941663929
0.115414346135247
0.115044501716954
0.0793851199192204
0.0774083382403241
0.0807540022018125
0.0745937914573619
0.0607425070758126
0.0796970094708465
0.0567511910782197
0.095838584397004
0.0897684855982969
0.0723030345016988
0.0646182291261921
0.115817236338568
0.0770978311976834
0.0686671772921151
0.131749253346821
0.0864853759991418
0.0709326256033476
0.0846905047608558
0.0870752647742813
0.0579844602445038
0.0851996622697642
0.0963549823341487
0.0748731419756383
0.0785565967391746
0.0610278992550041
0.074427529934573
0.0925464695020134
0.0820149584921189
0.0740003905524747
0.0706469509264582
0.0584294795202655
0.0754848219006157
0.120702162204861
0.1101404729268
0.0931617706365097
0.0725193520098674
0.0387882611761253
0.117897429447516
0.101945240366556
0.0902259612529858
0.0705356112816304
0.0665014794266085
0.0737166450685907
0.0671077224405898
0.0757083529983764
0.0570812576862217
0.0503101782871011
0.119643326903218
0.0854744792441091
0.0804997894712401
0.0794484982806502
0.0770467143695899
0.0488839776632625
0.140289065567482
0.10019972151869
0.0900266355050428
0.063420456979208
0.0672768804925822
0.0968305078251288
0.0930417101140782
0.0733175853850556
0.0834858727270888
0.0693927283270813
0.0741634891111692
0.0755280500617969
0.0760814501724208
0.0714338016468298
0.0771039600925757
0.0750706578738479
0.074981787745456
0.0732559321235802
0.0935258043657694
0.0746157422110602
0.0803037706124443
0.0791295463733458
0.0701313911380204
0.0885973312154035
0.095829062537757
0.0816451745877978
0.0746649124270634
0.0750613957695076
0.0758699456490156
0.0755664736313389
0.0715579385609891
0.0798195556758346
0.0614348665458864
0.0729062070553779
0.105664633508969
0.0831949595331946
0.0829183120544201
0.0533084272586407
0.106332342663282
0.0791577471210931
0.0869514246178412
0.0667572238106331
0.0881120665915102
0.0558008462677916
0.0879675434092825
0.0954767906938437
0.082483843546537
0.0732608647496431
0.0987447976064828
0.0695681207407302
0.0938934808073527
0.0561572058031823
0.0741308892779129
0.130659461469768
0.0803897380380214
0.0840154858093536
0.140884654449212
0.0790921037874901
0.105185823951101
0.0558415050700347
0.0646889806065171
0.174731260949978
0.136870435520955
0.07792945340002
0.0873610451173054
0.0941741467417913
0.0767500260294882
0.0764454077531014
0.072761772421042
0.0955511935901026
0.0975119662347773
0.129952238086428
0.129708101244503
0.0557823588503637
0.116785034270748
0.0957622851400812
0.0928443673453812
0.0733490650591173
0.0861787654982317
0.0645221544235673
0.105775926074858
0.080586003665757
0.114488101521089
0.072432858574091
0.0921370379568019
0.105914429752745
0.100201390861375
0.075194173452673
0.100625978284837
0.0837684172301034
0.0858421281647689
0.075248882118831
0.0863012178148643
0.0994423164539969
0.0687900858183858
0.078161279869197
0.145210519975836
0.0827647736494548
0.112246773377493
0.104603562515836
0.103775436609399
0.0845933652206424
0.0909155879071429
0.0863100378813507
0.0913383602311599
0.0767545349625193
0.0917677904426887
0.105429210384211
0.0960440098578026
0.0946712227743033
0.087235965554719
0.0869942710093391
0.102105391695918
0.0867169480189177
0.0943722391393114
0.0977172337355242
0.0957822055946761
0.0745204095975045
0.127596317053792
0.114709376490774
0.0728870004798616
0.128158063000055
0.115995474112241
0.109233095612478
0.0944339550062877
0.0952024912979619
0.101729284089024
0.102382478965162
0.108809376595399
0.100946035130131
0.110839856808872
0.120936248632545
0.113523127893003
0.100920176361864
0.102347234255873
0.152214076949188
0.167786939528807
0.126136525552643
0.121119067104758
0.0792534646594262
0.156639100294727
0.102684431864487
0.156319087741821
0.128936009681448
0.12937508296419
0.128044335250006
0.124241344207947
0.132617911604498
0.132300133358732
0.127610369652054
0.126558754005647
0.125849029999075
0.136469073333633
0.140549925381547
0.122759976276947
0.14200599738014
0.184121459723332
0.142718236614025
0.145512816874576
0.144498298590615
0.125603085263506
0.167450260897628
0.155814719257101
0.218910314663832
0.170077034309635
0.192019141201727
0.19595511946184
0.17499155706989
0.170161706017406
0.164759085338151
0.172590292886339
0.179387142702505
0.170696025248755
0.177832455348159
0.184869197338041
0.179902905962484
0.189389309824526
0.19670413209597
0.192058126358643
0.187924229116998
0.223292754306891
0.201436331999257
0.219774300563646
0.183729752375219
0.221426385816846
0.226954531492145
0.282286382074828
0.200106518313001
0.249439806313879
0.208712008267353
0.232118836743626
0.223810709015562
0.25052948585329
0.226979615240855
0.248413304018265
0.256228137463726
0.244556091327412
0.268913332919704
0.274447554256434
0.23780866791339
0.280106754359581
0.251559153409538
0.27339730240951
0.290025067900779
0.292595307701413
0.253653848877524
0.329682361734863
0.286923329130794
0.305654517682726
0.283402582537592
0.298614428377173
0.28714899843402
0.308875250080144
0.2971086102706
0.306777774714138
0.315525399214519
0.331899099330891
0.30246285149881
0.34393379430525
0.316742304042422
0.331040534473568
0.351607649098349
0.343329055405952
0.325857342088644
0.370265954230952
0.35185717645306
0.36434119538365
0.319454897479238
0.402384423012882
0.343536493469663
0.402981334194951
0.382603922497828
0.386314176445147
0.367907253632595
0.374514370094375
0.374855354344172
0.394415222403386
0.389875101263495
0.415670202176431
0.405781877191751
0.411190324938092
0.40087129409871
0.428437226506525
0.426732211239813
0.464519684646732
0.416743702658405
0.429437426671482
0.415857545994103
0.456444757810487
0.402269503366349
0.494939397755766
0.472545166324808
0.505106457392566
0.459642851868518
0.511682204116911
0.463446002702558
0.506009090626621
0.490502361781363
0.483573513912815
0.498442351107034
0.504139094211224
0.508040696234424
0.520221075646094
0.539126254700546
0.526046643123472
0.506984122827019
0.538029592375466
0.542544836512808
0.558765259713984
0.537092496418849
0.554797399402211
0.513950269823453
0.565086647166236
0.537186458656732
0.578466401822382
0.58670691670432
0.609099703307665
0.565205260043264
0.604872193411559
0.566724338450784
0.603207013757224
0.593814030174019
0.664089698096942
0.613329574961009
0.626374396938753
0.610167061583628
0.665098716119487
0.625579506874547
0.681674689684838
0.621344537552036
0.64623571380302
0.657667905998181
0.667013109248516
0.641475478155288
0.661201100448327
0.669382413778565
0.679130326416398
0.651415793945946
0.688759055117829
0.711616431340943
0.73773515116464
0.673945477077577
0.723325169443274
0.687564158064978
0.734106341685916
0.701862546423419
0.7528314381327
0.733053057721013
0.721858933712122
0.704313645289923
0.781303295203516
0.800344677652154
0.762098407364423
0.727289725859599
0.833238994331036
0.772903754821406
0.830988996769423
0.791834096725301
0.797175257176641
0.785534000086008
0.787606191974121
0.778333451342071
0.829304178821409
0.781193190158201
0.912730747860967
0.83898944301528
0.837275411912817
0.830421065247058
0.914613952163897
0.783323284051732
0.878516012050154
0.83672451907583
0.905220645606723
0.844112218432842
0.90795089856186
0.880100506507185
1.00848418040569
0.848507793143915
0.954464389062197
0.88547105521542
0.974093005445658
0.851947045515528
0.948272500915056
0.878900192363753
0.945033363796318
0.872657608288569
1.03086275306218
0.907832155646554
0.974821814573217
0.955935519423915
0.962512952968516
0.973380780065905
0.948954917479778
0.92390172150812
0.972849314995724
0.922406962916752
1.02831443424592
0.902593011785195
1.00299417141803
0.970263606846139
1.09233054275534
0.975406678393313
1.13210107765504
1.04868547492817
1.05514280287903
1.09850314381271
1.08083767852184
1.04426867345249
1.13760959160514
0.996971944415781
1.17785043835156
0.998604208217573
1.05052638328028
1.04256564991858
1.12373946593916
1.07252747120522
1.23370225703819
1.04116763928208
1.1796994529494
1.14403077866209
1.11814182342499
1.07673138782168
1.22402103114577
1.06160474197651
1.14408081649798
1.12767477176459
1.24532658620524
1.11257016948397
1.21122749487764
1.17357793566195
1.15215919275353
1.12564161489015
1.28294431474861
1.0968955792949
1.3416289343718
1.11929943302373
1.46182113632512
1.15707706450515
1.22492247921285
1.14501862506906
1.31112005370093
1.18057091505191
1.25460000224366
1.15544061362063
1.36671496952223
1.14601454765019
1.28497516041736
1.29643619042597
1.18286165604612
1.26612791987648
1.397323347092
1.17440582140241
1.35050172177277
1.24654854247659
1.33254328282333
1.29109318427879
1.43544824935857
1.18655933506763
1.40423665829105
1.17147861421319
1.20489386961683
1.20886793417441
1.42447130158697
1.26345688257145
1.36766304611505
1.20403483640063
1.31125303086914
1.37263500084736
1.37496068035559
1.3112846026643
1.38202766044653
1.13342237761385
1.49054922016334
1.34942446806762
1.71748120389765
1.4187076774936
1.56674681677517
1.35015076082896
1.46156032000256
1.4318140463148
1.56720514286312
1.28196522056665
1.57993397810339
1.30901652364952
1.69521720816457
1.36532217223808
1.50189622171136
1.47221916320731
1.7178221302935
1.28723169703309
1.42211040282089
1.3808575709431
1.40848741738534
1.4117656220133
1.55254791981194
1.30759136577142
1.49694254381511
1.41165130559241
1.52699070502596
1.52964117632202
1.64522522078498
1.50001827738217
1.47816285365026
1.4079249818775
1.62944385404722
1.45408239504079
1.61689011516177
1.31685337726937
1.76520682527492
1.4774662952003
1.61567058924456
1.32542400719604
2.34933391811892
1.41691552660521
1.56732087760584
1.4874014939803
1.83756785571557
1.2852915995044
1.60225590205031
1.41149316658674
1.58108994044364
1.46906066490413
1.44243638477016
1.56553299143648
1.45943030441889
1.61439807727495
2.21422991971193
1.45645270998326
1.56808863642138
1.36925214063854
1.80184171756833
1.38184167000603
1.54012991034885
1.50285184248917
1.68933134819838
1.48719458433129
1.59631519879201
1.5255760444584
1.4428145091819
1.62488395872355
1.65920539368282
1.34412955029915
1.67255593715894
1.42170412624257
1.47599240693469
1.53427006648184
1.559332209404
1.61424748103116
2.04188416567456
1.47167293639736
1.76757535442959
1.38376246607747
1.63942621669129
1.56845440920859
1.77580840040378
1.59930528008581
1.76469837897485
1.39717663221048
1.52545940833175
1.46638818476711
1.61804018719344
1.33778096317293
1.64401246451016
1.54097031560258
1.60008390872879
1.47120320199466
1.7305806258566
1.68911838550817
1.7673418708432
1.68165836401085
1.57384593995858
1.62271019763087
1.50292787643904
1.71687289344057
1.57766801091542
1.70909359742051
1.83430436177681
1.56723482627462
1.63835659280899
1.50538139312256
1.54902409494736
1.5517655193084
1.50068987096998
1.53096421767569
1.52698961625552
1.44272368870318
1.59766010897937
1.57362354354008
1.53079088671431
1.58021338106588
1.59529051126276
1.42848859938929
1.75721000895915
1.46901025307004
1.69940687014108
1.53268542528067
1.54698106943917
1.47394366792031
1.58259034722829
1.62509895129959
1.58020806413397
1.46142068766511
1.67975931398278
1.47317396496164
1.62681148708402
1.56267020555887
1.4266103252297
1.51735010972779
1.59227604357138
1.67708396223251
1.52273687065588
1.54273658269888
1.79421520790038
1.54285765323325
1.61120982550696
1.54326089631191
1.52603401561932
1.42557088848804
1.52111934138802
1.58210731708595
1.43865775084486
1.61258872148663
1.51291216136384
1.50758277286676
1.74670545013916
1.62976238844687
1.62126204066423
1.54115551063803
1.60544317227814
1.55201012135564
1.45508283218119
1.54117478328336
1.59586519113381
1.51176073096321
1.72519109172325
1.47203335684223
1.58367894836366
1.52117144852568
1.56930151338873
1.45268769056749
1.66380448733155
1.53802592942948
1.40127530237168
1.49675884968816
1.60363641342304
1.46502213503237
1.59875869428121
1.47332988712258
1.44271856832024
1.50246409359053
1.47337070929267
1.48790311683448
1.39527893369606
1.48434900694301
1.43955599749828
1.40127109636316
1.56757751514488
1.40011502024884
1.44477823839132
1.42063554126237
1.54751949302907
1.44314427844846
1.44071812786923
1.36023713866232
1.48436711101579
1.4204112414161
1.46929165163505
1.50130412496355
1.47810044231667
1.37417876282002
1.72624611521757
1.53452328908264
1.57311576565538
1.26581500149481
1.49191807081837
1.39322956366664
1.51950465497605
1.46573240789194
1.43560241962535
1.38776145746522
1.42233724801495
1.37864172763686
1.39465188332764
1.30849498538403
1.44150637747401
1.42897188987206
1.51359774793458
1.28984103355114
1.4136751539618
1.38744648682233
1.46813318451192
1.34309905367986
1.28674701913307
1.37739362375077
1.36640826938318
1.34546699886186
1.26714546125587
1.31318115630456
1.32500098167876
1.30182046523255
1.36868820087527
1.39693652158715
1.37683564407656
1.31698500334036
1.27154977244063
1.25582126723887
1.30391900472077
1.28373876486331
1.27782059511091
1.30674589226267
1.35009078730417
1.24451675939092
1.29142863812086
1.19932187927164
1.25171944749055
1.21611343295025
1.25009523886489
1.19242773325873
1.25376361692882
1.23418698793879
1.27979432450178
1.22103711232049
1.16957381327763
1.24448786191183
1.23827975813641
1.16077605588509
1.2208152832144
1.20929339350209
1.24983162343499
1.1537730387151
1.18059074658777
1.16627448159256
1.22444932028279
1.11844527585868
1.16991725864326
1.12922562952756
1.13123699467643
1.11655037941078
1.12462780805612
1.11250843575976
1.15237057896631
1.1268658842674
1.12608850050689
1.07055497887886
1.09559868289807
1.06836289877129
1.07330033920573
1.0744722173367
1.08713082218373
1.1369204231578
1.08798454515552
1.04475066790271
1.09483886435385
1.03729852633591
1.06026207812547
1.06287957862824
1.02084012034251
1.00344816518065
1.01292173931774
1.00750056117788
1.01108096607348
0.986091847122157
1.03974894396282
1.04512590976548
1.01160006655018
0.945577941438318
0.972881378206892
0.973274408608951
1.00878184408875
0.964923784285793
0.961797265467675
0.954131278714732
0.957573437609956
0.964637482864178
0.952535548479325
0.930388548689844
0.90392352139429
0.940379290139414
0.948319018422873
0.960611420373278
0.913210877835127
0.905667839589062
0.946416453457718
0.920766627262561
0.935232038471121
0.90576749019632
0.903075033303374
0.876888600742459
0.903583434225739
0.912330244514535
0.866227976516968
0.873588004915311
0.890741635874955
0.868005665110147
0.880251176658628
0.833326468930808
0.862783922255238
0.830737449965558
0.866776390131728
0.821944058245894
0.846415959210242
0.824062392364884
0.830124359817376
0.817562805072443
0.813934814153086
0.8086598321704
0.840711806755786
0.822959388731893
0.793981868134328
0.784444008229804
0.797482872871053
0.791875288380651
0.786329234277663
0.776318842074185
0.796883361699627
0.796606238188773
0.776507141297849
0.787036541536039
0.786663534970258
0.769804364895613
0.768165181789944
0.75095001095531
0.754893441374899
0.742238026170307
0.738263760241165
0.758839351382566
0.742829283820224
0.733021265836234
0.718772702206119
0.708685400989782
0.736886013717023
0.718720535990728
0.712566126679512
0.705545433886994
0.711351513790365
0.694744172137531
0.707095291174521
0.707778384671826
0.713140598845251
0.677710092423497
0.690487483636301
0.672163717577342
0.672822209469189
0.660160287234486
0.67653132776166
0.674228108342055
0.668193142356596
0.652105168785706
0.657148804308652
0.648684179453753
0.656910176551371
0.645299952704388
0.662067879152325
0.631059189281272
0.638434920805229
0.642095147646705
0.643968247252848
0.635631014062806
0.633963408421686
0.606915681053832
0.637103539580513
0.630121382378038
0.61069983828888
0.615332814868674
0.609410521192026
0.598009482373079
0.619231517202046
0.607668572529077
0.605884883675607
0.594653605982752
0.593945881755733
0.57635498520379
0.584022134495644
0.56430943657599
0.5725022411431
0.575050785753804
0.580350542953027
0.574709563878021
0.557470657082933
0.563624515381559
0.57044594103241
0.556921397260761
0.562120863126464
0.548907408978461
0.561113794865278
0.540053608182388
0.548075723020397
0.549902387978056
0.549542806801808
0.549984129329424
0.540780725727179
0.532053808205149
0.548338113008241
0.53561583119526
0.536069884931996
0.532112056007813
0.536816760593553
0.527042208372746
0.525827316903213
0.527748388570164
0.535039795547472
0.530409431327084
0.53209260298824
0.507700752022938
0.523156096475496
0.533793803426071
0.526575427152478
0.513317356851475
0.512260986834304
0.517166772298472
0.520117325795996
0.515106382643491
0.524164788518438
0.524040095919238
0.515342119696248
0.521725197747206
0.528551527450288
0.526725571531324
0.520101209596843
0.525835033098147
0.529928338721613
0.513629184351712
0.523932422967953
0.530700992624437
0.524057253695959
0.530387951524476
0.538143965565105
0.531219083504067
0.542319188550387
0.534541314222061
0.534943858588623
0.538269069643189
0.539727913028519
0.532094130132027
0.544271648203498
0.554143368893595
0.547392620848773
0.548375380576857
0.565085367600789
0.55853375535822
0.567243513889585
0.563556785030975
0.570655493051712
0.558554642580198
0.56683291176754
0.56764499849975
0.584976109999056
0.57333333072265
0.570036481507185
0.577396250930127
0.578704426943577
0.574296227036144
0.591389965956839
0.58593650366619
0.58947122640299
0.585149645943376
0.597343695032277
0.601210629076696
0.607285178510404
0.601847681299069
0.618790116274417
0.610238040926347
0.625491973960237
0.633360840735859
0.624970423130938
0.633240005754213
0.638220854154312
0.639832018541102
0.649276695825327
0.634849819568263
0.6562633786287
0.636956528196546
0.638006445916609
0.661045892884223
0.666792638747321
0.662683853133712
0.662648390082585
0.654865818850624
0.671218906231077
0.669168575235174
0.653448568076779
0.654888386407058
0.68050361411079
0.661175803682796
0.67373768459854
0.670928996480005
0.662630567958204
0.654978840356035
0.671036935943004
0.657975622828943
0.675692012516456
0.647426861032521
0.66339518887975
0.651514227082194
0.654340669513856
0.66357599242276
0.654971755439636
0.65272382953901
0.65444080062797
0.65533303296173
0.66235977310238
0.653771869334492
0.654997231473335
0.649289724668966
0.655618775514031
0.647637242699799
0.657873133928662
0.651876577010426
0.656919332645735
0.668855265874092
0.666680110712517
0.652731859624537
0.658503101792657
0.656232729662654
0.661718185358631
0.647460606966893
0.664000603687973
0.66325944860519
0.654227640343709
0.655189876320877
0.662755704547536
0.673413891034007
0.654105783282401
0.647297964694677
0.658771880490838
0.662816383651009
0.651363304819416
0.635655826074549
0.657818806825574
0.657456091219088
0.652738499740604
0.641976234199044
0.646573753558956
0.638685771477389
0.6412292506372
0.645087222150672
0.643263418557968
0.633726594075662
0.63978205454469
0.624589495214507
0.624700010428407
0.620473643145662
0.623486742228154
0.627149296067345
0.62572634822089
0.604572229577442
0.60086160058174
0.602846104506439
0.609516804693649
0.605952161054518
0.59883191605688
0.592873093056765
0.596006999236207
0.593434509204201
0.579004862807551
0.573202815730486
0.576780962135433
0.566646448952205
0.560083611349368
0.554393532676751
0.548814371112508
0.5475233457037
0.541295527571212
0.539290958240517
0.541791295476778
0.53153139057118
0.534863678950218
0.528152638252508
0.527203397370409
0.513670095728997
0.514802863510487
0.5123672632388
0.503308254166408
0.514012295325532
0.504620400242886
0.503398569629965
0.50690534531212
0.496594692541008
0.482323521510544
0.49491460985128
0.500394204609263
0.481690962031059
0.489747166449821
0.485448284165202
0.484636723590402
0.483626573586036
0.489408356002893
0.475727619093207
0.469267371180901
0.471190225459197
0.466352059255762
0.470001373944712
0.476102315869855
0.469020316154787
0.470827584743839
0.455135068542088
0.451800916734947
0.456233217722991
0.45561175037178
0.451344363205431
0.449837323529822
0.445192182338515
0.447263660219044
0.452871133194203
0.441995547024226
0.434218968850339
0.440590947342737
0.437549666472303
0.434037545012382
0.429469103384825
0.426272046255764
0.433024632764201
0.432930970480106
0.430886241034915
0.429884494730417
0.423106817386991
0.432405283134028
0.424733058250493
0.411757740983212
0.411045421465771
0.420598426512576
0.421531298906613
0.418575946865632
0.415569272112244
0.415704993184268
0.409058548575579
0.411970950891898
0.408456816313913
0.409138010718656
0.408282223963589
0.406551946450116
0.403571297824848
0.406417452997892
0.414079673209429
0.397656847626106
0.402511193250417
0.412221021648028
0.401380265472206
0.395894666865479
0.399061892459324
0.395602997091448
0.393441588058079
0.387334251468955
0.383038352529676
0.389787928548542
0.390100795878106
0.396187759060175
0.391316371614699
0.38970903397737
0.383067475151668
0.384968528232214
0.387177784279625
0.388220414090195
0.385444248828326
0.378754318335929
0.380100175549103
0.380736730477199
0.382659965465411
0.377885552036883
0.380612940854885
0.382026421121452
0.378686378129784
0.378725952472752
0.37279397855539
0.371999814675809
0.373472186935854
0.365409543497152
0.371950497993096
0.37132632739402
0.372318446236139
0.374082012066095
0.37082010483809
0.366233110908674
0.374770155527009
0.371680738857115
0.364423407266912
0.366621353272693
0.367551603218458
0.36547350084902
0.367701697942881
0.366482799598866
0.361294415783687
0.359246940837634
0.367683679846045
0.365626196935698
0.361947099712179
0.358600930937931
0.358617182759055
0.364656239272987
0.363214721413396
0.361500162149657
0.361687519015884
0.359772635347381
0.359370382622114
0.357147288943336
0.357078909107736
0.354459177801585
0.360214556755286
0.358970082751647
0.35503077524876
0.352918048944301
0.353971425633749
0.360857997848659
0.352267720323961
0.349214734792356
0.34810503488027
0.351163920200055
0.356368944531346
0.350083003326659
0.348233366116168
0.350859923718951
0.350041201083636
0.343674649838516
0.351707853936359
0.34856572631958
0.343029005797725
0.344611890536621
0.344970358631396
0.344810963674894
0.350420311561617
0.348414732135948
0.347360845349041
0.343583759846161
0.340152120775063
0.343405575827561
0.341227425102007
0.340021753457084
0.338663976638075
0.335371272834925
0.336398183462238
0.333633821602361
0.33471168095062
0.33409290936408
0.33444897382365
0.332279255122164
0.336377197607234
0.331212180219854
0.330132279802479
0.328402211692447
0.327492938953948
0.32833330746964
0.33207177019511
0.33021406641048
0.327890766402056
0.321503511772913
0.330730902559959
0.329231355810445
0.324122763618483
0.323803918741287
0.324184293675665
0.321930742768263
0.326806779980779
0.323289913885018
0.317001190123444
0.316673576904444
0.321402182676164
0.320872268425185
0.318088011549059
0.315691621782684
0.314772265529629
0.316783547735184
0.31757667995124
0.308575730322298
0.30641782664102
0.314043357151818
0.313034047989663
0.307327842850758
0.311652312820663
0.31106044010898
0.30736329724285
0.301383277183758
0.30479190123257
0.304010638685388
0.302763692217673
0.307094906852724
0.303649898428895
0.299698143804222
0.303161516259049
0.297786674724122
0.299035265879185
0.29741273639247
0.296272033476277
0.292856625575
0.296730817261714
0.296250431486329
0.289878435398918
0.2879908979076
0.289595367379621
0.289283557679053
0.290707151560044
0.281782568403617
0.289458421400831
0.284668941443313
0.280092997479572
0.285395453741977
0.283153889087484
0.28019938202355
0.279087681470261
0.280320759181692
0.278679979000701
0.275578935065472
0.27873505372439
0.275746781594013
0.28100107057521
0.277265717788017
0.280873032180927
0.27490023788801
0.274431774874245
0.276321796304484
0.274971637623318
0.272174822502659
0.27322594498477
0.271394125948798
0.274980292221033
0.267850557229774
0.270312536844423
0.267690545754206
0.267682264528987
0.264524359844433
0.269988563652445
0.268879312929519
0.263712771397393
0.258692072401176
0.266486593102035
0.263689513596709
0.263466558995617
0.25908574465385
0.261924041565472
0.263393528451675
0.2633143549256
0.256815384397741
0.258674516083629
0.256405381348483
0.263062917493351
0.258085923491341
0.256212065509038
0.254563000880589
0.256489176655844
0.255767652602682
0.253257067493431
0.251844274094742
0.25616396594624
0.245919643951819
0.251627386350767
0.249674639643472
0.250024831345147
0.250446569795708
0.248662255106288
0.243497236604685
0.24910135584054
0.248508379869218
0.249673820076296
0.248805915825962
0.250545773090633
0.245171438644526
0.247574392404522
0.249247535471129
0.248496454301187
0.246750945904363
0.248826242329546
0.242522976256461
0.246879102358546
0.24708358935428
0.244296758656432
0.243004863875767
0.245321860425408
0.241463017401607
0.240988829603766
0.238760342437103
0.242439959695917
0.242192012380004
0.241360120332237
0.239154398303239
0.241253874993435
0.240295419176018
0.240095654324351
0.24104555523665
0.238608191250315
0.231144069691333
0.240158067789172
0.240927167478056
0.238305502642411
0.23271357286893
0.23814998673507
0.239712205137615
0.237854873730446
0.236941768595818
0.241386021465837
0.234540579990619
0.237503758440121
0.233729045528506
0.236772798008866
0.23186859652219
0.230126002994402
0.232003224991962
0.233155607815393
0.231237647083446
0.235669336473852
0.228875518256249
0.231644156963677
0.229868465296115
0.230348483483818
0.230423435979537
0.23106441286107
0.225021148875939
0.229796373724679
0.227487776175405
0.224121958357943
0.22426000018664
0.225718584292437
0.224388942747362
0.229800157961525
0.22563847527341
0.223976467549244
0.222044132045526
0.227253775490379
0.226452251663019
0.225340382894776
0.221739195048397
0.224143901923958
0.223026409810304
0.22376926941816
0.222276221661697
0.223901274451122
0.222513540006851
0.225615504077331
0.218060588927395
0.218802481433685
0.222654058366568
0.222302737460383
0.219733311490396
0.22345687766011
0.2166621196804
0.216654464753228
0.218544820673209
0.222811508402838
0.21498076564115
0.21977812838191
0.216833654536613
0.218571706623259
0.216171960801784
0.215629739551107
0.214563517986047
0.21770070897069
0.215115409431266
0.216292244895404
0.212149210497463
0.214241249444309
0.211808451189538
0.213931768641839
0.21103100026854
0.214605767331725
0.212611687942189
0.212646238303422
0.211646150929819
0.214299117970136
0.210944553483277
0.214601188345467
0.209013808546577
0.211234616860001
0.209063325728357
0.208677180006533
0.206572947029009
0.208130207236841
0.202017229753338
0.206312081499933
0.20677272551026
0.210503407347993
0.204783189312455
0.207207844498826
0.204891589911035
0.203006331652566
0.195904068211752
0.200120071556505
0.196239306523789
0.195817840849527
0.19420913617568
0.198985787783515
0.200077238548845
0.199631343525601
0.195332982521926
0.197966266042837
0.19641648916531
0.196738211126642
0.19490462609898
0.198928975864103
0.192417064839007
0.195945952582023
0.194677782616521
0.194977686221597
0.191498765226939
0.191779317184577
0.188535844632525
0.193564345664358
0.192409838429402
0.191398296783493
0.190062615765016
0.192460258687491
0.189853005160974
0.192760007445554
0.188638743073691
0.191370221743517
0.186129297681877
0.187530287364236
0.182374886898302
0.189207313034872
0.184400405685972
0.187183825631737
0.18340684028864
0.183490038896609
0.183277924098614
0.18918812262506
0.181533175610579
0.183328964511025
0.181036457519628
0.18334160292271
0.179564720817264
0.182733237640738
0.180366165942362
0.183353639742258
0.180622075390387
0.178979071242037
0.177800634347652
0.177258773258488
0.174343433238443
0.181764783625887
0.177674316360315
0.178337122566061
0.174038215492808
0.175781611646151
0.17113821716023
0.177023608482716
0.173597598299235
0.177304959207333
0.170475241842235
0.171801271700884
0.170628609029303
0.174144662004824
0.169653152345214
0.17152002628269
0.165703560278517
0.172964234463741
0.168667068458572
0.169229818720375
0.165333188605482
0.167123527271994
0.170610972847114
0.170433021231729
0.166730098764366
0.170295654433783
0.166911959276489
0.167302665664453
0.168755835666771
0.169454749399247
0.163541705027762
0.167147645691006
0.162636639740228
0.168213621177369
0.16544081705344
0.168389645160621
0.163476515951033
0.169217904720856
0.163800191725463
0.167241501598601
0.163972649754471
0.167041320990436
0.162534310153492
0.172548146055232
0.169849413591496
0.167492817453015
0.166229250101577
0.166961995840486
0.168818381516491
0.170340750081759
0.165535040849255
0.170006166356249
0.162608924183135
0.170271971359651
0.167360147919515
0.169329254525947
0.161310957292955
0.164601501289768
0.163496149328723
0.170183245833045
0.154804933592325
0.163207768843752
0.164081045536987
0.162064170498221
0.154568742836811
0.168720132125701
0.150817416824926
0.166609273726971
0.159713096827787
0.166115230009529
0.160572992782248
0.164934307520304
0.164665858831718
0.167794309590989
0.159157470505844
0.164999105308351
0.153173933359012
0.158137287910392
0.154386411298536
0.160656271865489
0.153345033549027
0.160558015260112
0.149835783266026
0.157004228694925
0.151463963721199
0.165374608654274
0.151785764797017
0.158363556044329
0.148965385759517
0.163313715284733
0.158117322411193
0.166118655245147
0.154208956313105
0.164713685748607
0.147153383660248
0.158488845995298
0.150656165478317
0.168627414024835
0.158408814478664
0.165423744969833
0.14438261096544
0.163733930594517
0.159347343313045
0.162189216245121
0.151152852529839
0.156005463522099
0.161403081163222
0.155725066836959
0.153475151240979
0.154147227237276
0.161148884805712
0.149837401950144
0.160521174641073
0.152400762851609
0.156654022985129
0.15105732989927
0.161169536225231
0.154390425436662
0.157692188388543
0.155860667713077
0.148904147776041
0.155510407806796
0.148545662537559
0.153337238701049
0.148460976430955
0.15156792211281
0.149401370945244
0.149086912516276
0.149213151773476
0.149710630470214
0.149475693235481
0.148993893739289
0.14756000806385
0.147794670717384
0.147630781631876
0.148296953657182
0.143368838908735
0.148674896454265
0.146545787700812
0.146819276774327
0.144390210986067
0.14969903453236
0.149718098350372
0.147076060389337
0.143227672561298
0.150884855915687
0.145327663557559
0.145564016494809
0.145573734846246
0.147768396901075
0.146296215736255
0.147993628199934
0.14668317471653
0.151812583330667
0.143867830057223
0.149791723554881
0.148572471018369
0.147020227355349
0.149445956928307
0.150996359930002
0.147338069183987
0.149440559499365
0.149089907197146
0.148139640895914
0.145975817770862
0.147949018215276
0.147028290799595
0.1480978306653
0.147509790094318
0.149558493369423
0.146992867512199
0.146709022108922
0.144626809543052
0.150551007118369
0.146774613005334
0.146063327069772
0.145324021502994
0.147694884874094
0.144601319946016
0.149327831048373
0.146896058064501
0.148088955514013
0.146750740261549
0.147113398389298
0.143755855365272
0.144562041059737
0.147120066839324
0.151400995972547
0.147966055414386
0.149759715025792
0.14734549951193
0.149225380511653
0.146330810203402
0.147280781004572
0.145336676289426
0.149466257749937
0.146157697577166
0.149460180981551
0.148577246126453
0.145652681258335
0.143463261188671
0.150560996716908
0.146770895066074
0.14995595855189
0.147876277743267
0.150501222575466
0.148905479938062
0.148273530854682
0.146541743965106
0.150796559154953
0.145846335060855
0.148587015619807
0.149656612497035
0.148701101757489
0.148552992743893
0.150286952348437
0.147487775153072
0.152748260532377
0.148146283592536
0.15240758451165
0.149852144376389
0.151601375756713
0.147344959501361
0.150489759717508
0.150908754625955
0.15029961966325
0.149948842687165
0.152792472380831
0.14688822821712
0.153220896439789
0.148847290019245
0.1512236825409
0.1501028499696
0.152448594157969
0.150213998269976
0.152514394748869
0.149206550917912
0.155259248590271
0.149205472512513
0.150071356260487
0.149141112149977
0.153381350131402
0.152054377880591
0.151636482598801
0.151062829613184
0.159203384591083
0.149110428399709
0.153848006342772
0.148978158965066
0.153555594537122
0.150851577483436
0.153980619552138
0.149859714779741
0.157876782238456
0.150123073177803
0.153782809887994
0.150887246382599
0.153705721812345
0.153487207223149
0.154210013558859
0.153524641594448
0.154967564268683
0.148700608120288
0.153157790425103
0.153673664704095
0.157756068361252
0.152864986371894
0.155665395967596
0.15394970363392
0.157099865957221
0.155327108196081
0.158714529289789
0.150366602284075
0.157076800866428
0.155603232193239
0.157412871087171
0.154785954482581
0.157687057841732
0.155611889245615
0.157643940243556
0.156699257277908
0.157217818186991
0.154470227678419
0.1594452749344
0.155383362652415
0.157044773809722
0.155783333436352
0.159086769950086
0.154527743920757
0.158276497312088
0.157075928466969
0.158185239395752
0.156284873996382
0.159519050900883
0.15541525097969
0.159131548383126
0.154910089028697
0.15587436056645
0.151211026709506
0.154933381003819
0.152444927729234
0.155186942545209
0.15646320089521
0.157645844554374
0.149748703819061
0.15771867514749
0.154729304431657
0.156265129227496
0.149689319237336
0.156016471131811
0.152903075844933
0.155395255498486
0.15262349053626
0.152622795003095
0.152243905312501
0.154523355199757
0.146747289621392
0.154127131788643
0.150261079483994
0.155243439633702
0.147785214940806
0.151595664949476
0.152520369250715
0.152064645138285
0.147937895594454
0.150450139353921
0.149346047181071
0.152645575143465
0.149086825029225
0.153991799721321
0.14690964755778
0.15130286031893
0.14832473509319
0.150826770326172
0.15012562936368
0.150560950615494
0.146883561935248
0.148724801927697
0.147921324611949
0.152210135471557
0.148283602022421
0.149851570086751
0.146822093886567
0.150595078682149
0.148189568943767
0.15004300199457
0.146490180223642
0.150475778945629
0.143881589861831
0.149230335356222
0.145855660438012
0.148230069935527
0.144161856981483
0.150095435987079
0.146625801695984
0.14868462647707
0.146936180852965
0.147104080119193
0.147843443804793
0.147973915119217
0.142606919367896
0.147168669062607
0.145339136362991
0.146167178389893
0.14348589088342
0.146732043927852
0.143628451416847
0.148300842341282
0.141678192768876
0.147931959499125
0.145545731050476
0.146068759501261
0.142506451088173
0.146050130397583
0.140338806629013
0.14284859061534
0.14297069231304
0.144388052298682
0.144443267520595
0.141791848776526
0.142115510112026
0.147159730105128
0.141635797432282
0.144700554437795
0.141280497541853
0.144409911256299
0.141940178805803
0.143416694502831
0.138026726348981
0.141353369517123
0.138994847306435
0.144348518944623
0.139000561633297
0.143515252411697
0.139508056820144
0.13934304647462
0.137755702431226
0.141385583222129
0.139216412663263
0.139843790963931
0.136961441993418
0.141375372270115
0.13620877802668
0.137361334709402
0.133864304056245
0.140822570000242
0.140851030018209
0.139777891365821
0.134233429494164
0.138715151120081
0.135577667456476
0.139064253655132
0.133469241634971
0.135715610603194
0.135650570492872
0.135580791110365
0.134293776770975
0.135222627591394
0.132567997714691
0.134120889156533
0.132981323628537
0.136015139746352
0.130602028268918
0.132979695690883
0.128921280371793
0.134723030358256
0.129427608599131
0.133459595707999
0.127626718525315
0.13028392170344
0.128894617424241
0.129394856331283
0.133616760317127
0.133749044908167
0.128867748569271
0.131569626628779
0.123624730772406
0.127328545871747
0.121394660149
0.129178286819403
0.124457387945175
0.128529934393604
0.122897100798622
0.124575214076941
0.120622002296503
0.12738534962827
0.120441997102483
0.122433524917937
0.124178192376635
0.124875033220276
0.120483555779502
0.124932008658389
0.120517134022518
0.122584488984832
0.118275580863687
0.121351883356832
0.121820143493698
0.119272545029394
0.119340093130698
0.128223905365201
0.119655116821648
0.120213585390638
0.118472780059236
0.123005441583982
0.115607582535157
0.123489524899087
0.116581956743736
0.120212390215321
0.116776037401286
0.121304970605001
0.114328747832612
0.118958799607309
0.113846285388901
0.119839001250514
0.115876765283103
0.118326752336533
0.116352950222248
0.117187970124755
0.113576195717554
0.118778314834276
0.114070229918338
0.117291329849725
0.117307292155307
0.117254433017411
0.111655836600271
0.122945655149504
0.113122074043576
0.117637344495567
0.112456383868744
0.114958913118446
0.108778050782672
0.114340296856312
0.112195882724343
0.113238342045371
0.111361270531842
0.114084806959017
0.110719573796315
0.113114111732258
0.109571244967228
0.114045426014139
0.108488572227071
0.111557565783606
0.109149294449683
0.112045762850285
0.108311547160492
0.112433478707237
0.10664291264357
0.112408784608099
0.104713421620002
0.112823119775479
0.106552312096875
0.10922687083908
0.120689004866716
0.112305633734678
0.110265239581461
0.10698890924659
0.106413867488143
0.110034433642987
0.1053956989524
0.107144433675706
0.105014568503005
0.108992061722492
0.105698784136524
0.104527890426237
0.108437259844354
0.108189053473702
0.105569289034665
0.106605990920764
0.108060010192159
0.107005224091492
0.103308242516952
0.104247477131529
0.104473502130987
0.116253335706106
0.106691244990242
0.106257647984586
0.108203607443435
0.0993782588226684
0.117766630391924
0.110696558442405
0.104127515118475
0.104806592447593
0.104707162331078
0.105022806602953
0.0995881540921546
0.10522547889378
0.106486312001938
0.112806715784649
0.102400668816216
0.110215943780538
0.101477452790695
0.106962203614591
0.0999310304159591
0.106718296975155
0.103147731278116
0.101635035381062
0.101183783429594
0.102932960177407
0.102972930655273
0.101585142236934
0.1021051734151
0.102046898068141
0.100900387772727
0.110512079485628
0.102382386900273
0.103752649810875
0.103428651029463
0.100640708392791
0.0972639744639837
0.120639929148895
0.0982424225853716
0.105781932027029
0.0966056948995457
0.106123667162621
0.100102572291801
0.104011521594977
0.0980547283605638
0.105372328796667
0.0969969269293426
0.104012063853851
0.0985789842703454
0.102780959703016
0.0985138614141832
0.102539549185357
0.0983318322079733
0.103270360095155
0.101123872060468
0.100448420009403
0.103336292730808
0.0956695064241943
0.102513082313181
0.119554370921071
0.1052914246313
0.112472052653888
0.101366043140791
0.1023015698494
0.0983396885705293
0.105694195854878
0.09682030551025
0.104286004319377
0.0957492132907179
0.10551071825666
0.0970061530709731
0.103801301102585
0.099523172195644
0.105124513324425
0.0942779337372137
0.104012692403319
0.0958307219483353
0.104074757262494
0.0930304932852235
0.104517365683113
0.0922765185857357
0.110361079102144
0.0964008443269966
0.108694790885395
0.0838207983462217
0.129785718519935
0.122206020718826
0.101688160484416
0.10669938857984
0.0989868762082868
0.10014456834442
0.0997056880373884
0.0982697992370369
0.10541435365842
0.102096404530881
0.101041026155415
0.0997965590196833
0.101710707682107
0.106402649143357
0.0983375533523541
0.0963593899767369
0.126760050705478
0.104581885493676
0.108182431764858
0.0989766854101495
0.100787342848796
0.12104668434415
0.101208862188568
0.104511715947796
0.104703025143909
0.102094201593511
0.101714007012271
0.103259583434266
0.101009571077638
0.102865758383547
0.106695826778032
0.097507222731062
0.106399443669027
0.0998102870817491
0.108696727954934
0.101999834002126
0.114303775131919
0.11522462147103
0.102084020984641
0.109199233643783
0.109439947157564
0.102370595280871
0.107027341708147
0.103086376217538
0.107114859031184
0.109146289656254
0.123918641842219
0.100463139206138
0.11826873864728
0.113596410334584
0.103684510100177
0.112244941106177
0.11136563196094
0.115874611025028
0.101361143006688
0.104658491880848
0.141025030693986
0.109166042461573
0.132496484695457
0.0985539021994128
0.118623362110927
0.102167196273154
0.11977622426896
0.0967576277682932
0.132969897123425
0.106141901014636
0.121420943013189
0.102954014312249
0.126844226671033
0.119460425462254
0.114364277567906
0.116401621553628
0.117165921775556
0.112408037246962
0.123575908863823
0.116617289524465
0.102694306310579
0.13741744046401
0.142213447768531
0.134335690442085
0.12701392054692
0.0994533540885158
0.161592968011217
0.122459345490986
0.12714928747771
0.112979432914862
0.126510172651153
0.115586668044338
0.1142043756059
0.14265413021223
0.130998356643593
0.117304738104757
0.133150729083225
0.10919459598262
0.14603798071569
0.131189146333059
0.131403661299726
0.120660167077251
0.142797510602241
0.106440013219084
0.172893916558631
0.136484951917724
0.139531519670767
0.15290474784552
0.139770438575806
0.153064605587843
0.143112947972997
0.140110299725328
0.144091516982719
0.153896683839776
0.14772315485039
0.132314317796706
0.147269029038526
0.173031305507121
0.141636083167134
0.160209513449347
0.147942743686669
0.137563671822098
0.17549436816757
0.194080212987784
0.182068424769749
0.165264947220975
0.154355727668476
0.182915390381274
0.165085677487623
0.161503531187442
0.161091223017388
0.165187778394927
0.17188248061805
0.16439114373835
0.183574061931417
0.1728290601731
0.177466224125601
0.175833832287785
0.17834943058448
0.184295768503527
0.211246252022474
0.228838888730524
0.185159432491644
0.235790315629036
0.211176025625563
0.202505040122993
0.197201002906615
0.19223267313446
0.216432934051341
0.205739059708392
0.206440739679214
0.193789043588262
0.23288224744312
0.225288220685348
0.210129090186731
0.245597683575601
0.216906595118877
0.240741766150244
0.179766616340975
0.422823149214475
0.25241632241066
0.261530047016539
0.256559600061459
0.236290766507829
0.356872648621865
0.278881156226549
0.278508594666664
0.282536846367692
0.289335710102465
0.296382773934274
0.314341589252582
0.317428212523894
0.328824453660947
0.338261473230745
0.317829140002124
0.332348888586322
0.4238657771879
0.38709714596611
0.40229655044757
0.364222919194979
0.401103050745029
0.402589223028738
0.400461812085159
0.413932128650901
0.415126350575129
0.401515047338026
0.52195405879584
0.439042652617028
0.476805276297721
0.435912614333211
0.521349194232946
0.450465313395267
0.539603512058047
0.52685648027345
0.517455383023799
0.518925466819
0.523808495334759
0.542332331161863
0.524070984717048
0.584958477281219
0.586194389224125
0.570504530268379
0.586967199486286
0.581875968276488
0.59680803599644
0.597611854139847
0.630899733396316
0.598140642274023
0.671787548225772
0.604808786213734
0.838439517706888
0.668704983593357
0.638115295356656
0.642842021460156
0.628344614324667
0.695224127958246
0.675169194919698
0.662071085523706
0.70412090230949
0.646805625905115
0.675738667609791
0.647351040596453
0.683320480883088
0.652695174645099
0.692943217141774
0.635888770273679
0.702450240826216
0.654007318815151
0.682677726906588
0.812513349520118
0.673086086993503
0.67248528774738
0.671795406221868
0.674553620099933
0.667249679330501
0.663435001807703
0.653719914297792
0.699758386101592
0.644625225464243
0.66237001746664
0.636452788016374
0.666656929147972
0.685317307251244
0.621469535615626
0.642440009082326
0.614315900265205
0.615912490254081
0.588458907953547
0.592689344283575
0.673873693339602
0.593254653537359
0.597024159325471
0.583811749845091
0.570638801173875
0.563245159601041
0.57092342352184
0.563927181538084
0.568701671157734
0.554225024584733
0.563483307678832
0.544515669960617
0.555919420861614
0.545937312146476
0.55560394665031
0.553743769261623
0.53953894511505
0.545563791241273
0.542235283431472
0.534554124019266
0.538672333840099
0.536510563456916
0.538574439381808
0.53382399362604
0.537058516827627
0.529241487262327
0.533753705494453
0.532881984717066
0.531651244259195
0.533175996453263
0.525029547249088
0.527953531757747
0.524502556893747
0.52903535681895
0.519311846977663
0.525515708647295
0.516590460692468
0.531382495745143
0.52059929714561
0.531162534724396
0.50078205552445
0.534550102802128
0.483077805188277
0.575526135428618
0.551511019030177
0.510251677119255
0.521418110929997
0.505154411451277
0.51379535327765
0.473236783213421
0.547573604150481
0.530595274159949
0.507621087580858
0.500466111091474
0.481090054468009
0.498938558026469
0.50595627642486
0.473366525907382
0.500205707699115
0.447648326937391
0.509382927622388
0.547444009093334
0.468797832236574
0.581636074982782
0.483517908747757
0.466978943845065
0.444215403252185
0.528574123408265
0.443274932129527
0.477777668215199
0.440630916211687
0.50121328549573
0.470920701182094
0.446311940133616
0.458017752459506
0.438504931132152
0.463772917446856
0.485831800846853
0.442407936266725
0.439897347958598
0.494886782940888
0.443033713527898
0.448783514615136
0.49081450408021
0.475700579192984
0.420886839975819
0.4172081276495
0.420405917733434
0.384886072699764
0.488628001372609
0.407782600695866
0.423332109671502
0.406538339302492
0.386230400042006
0.394223280592642
0.401752926199355
0.410386486233784
0.369337735513527
0.449488959693417
0.367821433271011
0.392748410604585
0.384936612354941
0.395661839464562
0.424970836916627
0.389409326467754
0.37056701296573
0.373343861430892
0.429360230827424
0.364944379656929
0.388822845092316
0.358116085374279
0.354463314547297
0.380942782592792
0.356244318420713
0.356790324016964
0.3717237039625
0.337592689773016
0.40212820832079
0.385314400360123
0.404122702880997
0.359704437309536
0.338703295212457
0.343074098368132
0.336781937154052
0.34981783516528
0.324142514890041
0.357175446194025
0.363969604337383
0.304903412192534
0.404755191243686
0.346758637297481
0.348413222647094
0.35058252762964
0.347584904252503
0.341023552821183
0.367683831661792
0.387090828497121
0.381488094116147
0.358760930335731
0.397971143794431
0.359185434900401
0.386304843658851
0.365568951552195
0.39024553366324
0.380200139769566
0.409679572450429
0.396899367672845
0.411398135280541
0.411330150621219
0.418206520042763
0.41781379395371
0.486408338606068
0.411502064222153
0.496463286193012
0.448828275747725
0.528123445169334
0.491940182992925
0.480444831389558
0.489088630798228
0.495082170962223
0.506798722857186
0.514493874807173
0.489981390662414
0.573440521109545
0.515821459131409
0.542046183530992
0.526126077833662
0.55566161054656
0.536942666403287
0.569135833928807
0.549709164210019
0.60109145728602
0.637579306214596
0.568210926289177
0.601779958751515
0.563124914946053
0.583489428833572
0.583074065119657
0.582239828161726
0.595206063320786
0.572486966450345
0.631762250148822
0.59514512251676
0.585363245075707
0.592674247735076
0.602887780535967
0.60098833467945
0.607916436733435
0.605681789964409
0.630005953700766
0.618935588859436
0.631625504190826
0.581336531572907
0.706751908995686
0.652651388986188
0.640083541613808
0.646538545223176
0.651667371815524
0.664783344551778
0.641476774481506
0.664759273003144
0.692727215267617
0.66512496745169
0.683068991729496
0.675898750485563
0.697276805977069
0.6837544134272
0.727310594048072
0.681449574837605
0.704857371549767
0.691712664756576
0.681831306538034
0.755226619311495
0.693679469234113
0.750601770375172
0.709272324904417
0.725931780755971
0.720157150960047
0.725864620556522
0.721437807595021
0.732410252332793
0.726150368557703
0.726673010377151
0.732725073409735
0.738484953924559
0.726194734092557
0.722234066705004
0.757873853739595
0.73912288776011
0.733391568703791
0.728127080419934
0.729614447209452
0.713848798759198
0.751366727024103
0.756483823364866
0.728146454922633
0.744946760708254
0.725398965847556
0.754748575552731
0.77206413536312
0.732959403577503
0.72369071954784
0.726013423210449
0.729664040562978
0.734925681505269
0.72295734426227
0.77394026029581
0.733254062744695
0.758915179353606
0.748900752990726
0.746845192056383
0.759518169580135
0.772510047280179
0.756010051605004
0.767270313600368
0.772728932682219
0.780765579254741
0.778041660890166
0.77163742849794
0.783550489779532
0.782665180579293
0.79026669247182
0.784283699057149
0.783600798994175
0.782056277713223
0.772468288654419
0.779506457384712
0.769587842668585
0.780644300826808
0.758853599484622
0.762014680203595
0.739522400390816
0.801482193323306
0.735043259761881
0.734051285167901
0.74512796475494
0.726418391230341
0.729876938346176
0.71146454954783
0.714077191310376
0.701590741642091
0.708517063774533
0.698312628782096
0.691975354568338
0.700133583057435
0.697299143548001
0.689042440545058
0.685015914514888
0.695428525345904
0.681523987229512
0.689410223651457
0.684133958978306
0.692232121959909
0.687507815426706
0.694440881808403
0.680612469025779
0.690900133073126
0.696971836418263
0.689749996785364
0.698381187630111
0.683399025463569
0.701520237736178
0.682381426074489
0.686731496680097
0.676651732457515
0.684456760122796
0.680179740707923
0.689377405285863
0.682665668793914
0.683304187848964
0.676028974723958
0.68297171409443
0.675168875115107
0.684041730211183
0.684595879247404
0.676223753124504
0.680078850140245
0.686659419965465
0.683624554923235
0.680810070358205
0.686236004418306
0.674846011806036
0.683547598128237
0.674688299519031
0.674364967437435
0.674855621346098
0.677984423979493
0.68612902072335
0.674486577125177
0.681850236277491
0.677569550283869
0.681571530414356
0.668457163693723
0.678132804634653
0.671865377352398
0.674436785956145
0.669113729280677
0.662575881424744
0.66538933062154
0.661620680123527
0.649925109848532
0.651966706674769
0.64320307129834
0.636323112267766
0.636753856527308
0.631680682423767
0.629279328056742
0.626239681074702
0.625426424038653
0.613618057115225
0.612397737210775
0.608664283775749
0.605402985941791
0.605339486938971
0.594710690948675
0.600511591066143
0.599689402033206
0.603930724579066
0.601181446488116
0.594566598376595
0.588242073096992
0.590812325632712
0.590954764800529
0.593967744615979
0.597634565192318
0.596313811350427
0.597073191307493
0.595222377941925
0.599560846140707
0.603146938613676
0.605216639578233
0.604544644956453
0.606359169054997
0.605524982107979
0.611704690212369
0.615417379518493
0.615720402528029
0.621589160021719
0.616011357749238
0.622768687414087
0.62827530790569
0.623921118824595
0.624832317159297
0.626542036863045
0.628107350083659
0.629176522543016
0.635481169694111
0.630675706230504
0.630920144066722
0.634610610685229
0.62608825127858
0.630732483279838
0.621476886341089
0.624682387347097
0.617137655072013
0.618458954090877
0.614502776421653
0.616524581057731
0.61732598052791
0.617012593041361
0.610757010359699
0.60549870201412
0.603111356482947
0.60446385244036
0.603043599208255
0.59811495156334
0.597730827745
0.594596757945692
0.593741722772888
0.59597302004522
0.589456567260086
0.590479756082723
0.586908372722165
0.590242266043669
0.583113128655783
0.584268634384384
0.583106884829519
0.579868304149778
0.581336404112956
0.578118924319179
0.574745377686727
0.579515387996307
0.571999293713275
0.574394873983892
0.57242164225559
0.566426069797477
0.564549374421431
0.558372540847543
0.556623003083411
0.555281959975075
0.553180714475925
0.549506480939968
0.541953542251822
0.538613786886936
0.534370363202886
0.532218646708462
0.523851068394658
0.526556861467151
0.52303551060386
0.516625423146844
0.516511583528914
0.515029814695963
0.509543032849991
0.508451063313547
0.508658709203973
0.509618531250182
0.504804290828056
0.506701067650374
0.501694886589419
0.497533878662008
0.495135926265119
0.492547048925247
0.490544738490214
0.484695518767643
0.478607085596929
0.473318850854728
0.463358421186114
0.460062251331636
0.454679050777731
0.451707440710329
0.444843984077563
0.443368523704817
0.444080142482248
0.441869388993779
0.445669443832676
0.445021074894352
0.452303894230591
0.462283281672766
0.468279527371279
0.480794158184939
0.492474640054574
0.501183551997544
0.52326373407012
0.537134520852197
0.555040676533748
0.578727919895298
0.593475017382253
0.616825005964522
0.635495008733281
0.650348170715931
0.670539187330384
0.691079393740234
0.706470677799792
0.724396686619494
0.743379116141411
0.768356219793478
0.780123769041289
0.800152034991168
0.818816756669819
0.824769465849656
0.846467087683074
0.854792518394148
0.869610223073071
0.884940681520263
0.894289962693879
0.899831895741667
0.912628633584593
0.924187205980436
0.918790151846377
0.934338538153473
0.936701357500477
0.935245232153891
0.936128485582182
0.94274706149388
0.947420645138538
0.940649217464774
0.939878467063198
0.936804207236009
0.94735459301569
0.935702391609569
0.955080141575028
0.957261770053433
0.951080113345133
0.95337167860523
0.962764161970888
0.961540197686637
0.978573443317828
0.980789954670794
0.981657145788903
0.986738230394496
0.996209358745391
1.00758628222773
1.00795071827272
1.01832535721552
1.04060176672147
1.03963668233586
1.03729609606481
1.06405358734584
1.09721981471692
1.10044617834746
1.10493443611016
1.1177577786455
1.13038688511434
1.13219580278388
1.14666958199332
1.16408305211972
1.18621823124467
1.17527057902558
1.19123841728618
1.2023799306374
1.19041520545606
1.19536542426826
1.19905747534137
1.17166072330839
1.17011433016282
1.16577925048248
1.18590038821267
1.17323367676639
1.16229064142394
1.15332290168044
1.17925525268175
1.18327996432003
1.19733451721316
1.22057217286749
1.22656318371028
1.23986555507316
1.2625624561334
1.25112667647288
1.28630033991006
1.28281308160951
1.33256971473427
1.33230483384351
1.35882728498445
1.35826695727399
1.36136592583756
1.40881986235832
1.45029023609477
1.42200005557506
1.45337410215683
1.48657611061769
1.46622809308011
1.48498868243594
1.55944999584633
1.55748782672357
1.63622003345423
1.62694319468121
1.64643980732743
1.71851889307614
1.75687351825937
1.70607440592057
1.73945766153386
1.7292489908473
1.80848987112785
1.78020831658102
1.78429174475483
1.79854743586661
1.77843173427831
1.82437371277607
1.84825880102198
1.81855075473024
1.84133156282302
1.85917172502289
1.85615574404317
1.81065039350365
1.95784182063516
1.94199804278354
1.91929595021717
1.77096763829148
1.70873186185633
1.82410941192048
1.88163966164868
1.8441475230797
1.88424580688708
2.01466240028747
2.02425248962437
1.85699669863043
1.95257200262764
2.09099695133427
2.07171900111638
1.97760475275881
1.86648601587533
1.88085010167231
2.11407796423497
1.89461853799499
1.95471094113721
1.96093104136078
2.09968014976186
2.09678018762731
2.11497167361299
2.20616203757551
2.14669750279583
2.05779052633748
2.09665901733468
2.1271796192829
2.12607385909595
2.08494575857798
2.21624749775244
2.15036849305576
2.28510674864751
2.09936977963981
2.01597899653432
2.1864093915277
2.36839406661006
2.03999363850382
2.00940824781428
2.16316550223454
2.43597032250231
2.07422142591272
2.03307374181099
2.17068302082217
2.23104457664518
2.23897917624593
2.36577777760189
2.24031622599654
2.14743261872586
2.11948368960186
2.44302584677976
1.98532426157665
2.08598074353823
2.13130265524695
1.91860570957644
1.91143477052693
1.98889139223191
1.95293130924957
2.01465885126021
1.79037104965909
1.86021654231571
1.78709298210761
1.74223686365999
1.68372732576755
1.7129417575853
1.72826232898831
1.73695009903643
1.73610550026121
1.72036748665979
1.64877566279335
1.70745690422874
1.65257631979095
1.64922576521025
1.6584702466803
1.74372054014453
1.60824822065541
1.64974672324134
1.66880676611667
1.59299740506733
1.64249067038894
1.59652379641496
1.54629457926903
1.54340939325933
1.46549802304232
1.45388590033693
1.42709689840133
1.47350449225242
1.43823131884772
1.37628191479772
1.3442920696518
1.32328809275672
1.27958091776329
1.28803601772268
1.22587467718865
1.18336999527802
1.16485113123706
1.11933612634829
1.06808367326752
1.03384143256365
0.987700064027186
0.971613497579687
0.946298013775778
0.916923167484552
0.895787558717371
0.874513923487103
0.834736778723169
0.81211862786059
0.804956099841662
0.798279956322803
0.768783898042012
0.761168257333007
0.758401355807998
0.752694403092198
0.738111261577207
0.737935512458571
0.735243262343236
0.735695124508264
0.734294061346512
0.728393087119474
0.733446514209547
0.734268131726657
0.730245469517218
0.751512588348342
0.735646887204849
0.726863408271462
0.726540498728301
0.729491482736677
0.723750506216629
0.717368319552079
0.710937711133977
0.712904582983392
0.707229742243698
0.700448122159335
0.691654071852853
0.693889068962009
0.689455512454711
0.684616848764669
0.676262748172244
0.685020827658641
0.675135086085262
0.672735008195407
0.680539936209791
0.692601682044672
0.68074412470575
0.688016231331935
0.687794397021073
0.689566017855082
0.690556098174389
0.688489739282462
0.685800005147429
0.69836059562629
0.709553345898013
0.706564039134614
0.704352256982051
0.721830121642191
0.716699245446428
0.712341949576178
0.722762833337053
0.71330471846347
0.707162550677597
0.727387396819173
0.720528470612596
0.723431796966598
0.734612774535615
0.714758649006986
0.708954052378451
0.729889629560383
0.737642330497131
0.747308832199715
0.745375424409941
0.757846133413229
0.765338377722213
0.790736050444724
0.799895197823548
0.800418174399653
0.836805684336686
0.861131556744533
0.868845878041195
0.88072824281547
0.910966997829366
0.931399252862533
0.916300420809514
0.915099358003316
0.941430990688575
0.915191393445283
0.909418677071017
0.921774860747704
0.890883443470617
0.856506924827907
0.844139971426565
0.877756802540554
0.846343536623072
0.830749833257069
0.836144451293333
0.829082978561856
0.855898176991727
0.867975662072312
0.862141217131734
0.873114533456783
0.879372555362325
0.861399227618174
0.843754051678684
0.831748673144769
0.832477255916896
0.83312513675488
0.815449173198772
0.815840315630943
0.805377914109883
0.806565901920963
0.81452677714797
0.810631489636883
0.801804567619019
0.802958467385386
0.783473670252798
0.788289892143975
0.788469443702663
0.776314176488312
0.761006185562979
0.779639911901003
0.775731353458111
0.7611388379155
0.742442408932932
0.751355305190855
0.767806550839762
0.771520716343172
0.764666748161557
0.758743718067731
0.737450938566437
0.750012304100006
0.752381241334452
0.719703307459226
0.73051196393717
0.737084435733373
0.744501129301578
0.755804453748095
0.751157208419257
0.741352458881993
0.729275051662569
0.722085997597465
0.724304615174946
0.722883884161697
0.731248261431725
0.744472395316753
0.744438170833154
0.719492869176932
0.710686479893204
0.728832926229809
0.719798115490897
0.708306606260704
0.723714514393224
0.74327621785043
0.737553074644371
0.702189638289461
0.70511534580698
0.699345891991045
0.713439132117135
0.715154732877504
0.721582723293635
0.718373291533212
0.723164100841757
0.733825145642025
0.721372399484899
0.735680515945335
0.745060505492653
0.751874548740606
0.74652717017986
0.742081853881408
0.747193768563714
0.760768273656322
0.77196529365408
0.786448547199852
0.743720256096208
0.72081703220382
0.773159747694153
0.775204230408357
0.812487020770816
0.806998777167019
0.764629519478041
0.77541286253978
0.827662280861459
0.838008982840307
0.836178262339692
0.851166793626266
0.877090528301604
0.88605353277787
0.923756197210459
0.935930121860412
0.897837128005718
0.914690928232602
0.968873744988588
0.93791600891663
0.970172641757534
1.0518435705923
1.04555706911244
1.04152908832529
1.06664908304151
0.976234639641037
1.0196093927799
1.1184864683968
1.23451423661422
1.10153634698428
1.115039367769
1.15041272525457
1.07131835875956
1.08418942432549
1.12126915739573
1.14125105834373
1.06550847238579
1.07892253807201
1.1485980983355
1.09288729689973
1.06203268760546
1.07046294977082
1.07037199899147
1.05832022483181
1.09829263727764
1.09324696976219
1.08821803734522
1.14907717991842
1.08104126443108
1.06153194675563
1.07969319445814
0.987522817347753
1.0714354142122
1.08958865148949
1.09798391564362
1.02042232688463
1.00099936427755
1.00481172360294
1.07274062797492
1.0317534053251
0.970880094849711
1.01025614880336
1.09550538602388
1.01971096333558
1.05255710128124
1.07377277553592
1.08489291731168
1.02881168980807
1.04759139749859
1.00571777953717
1.09833113773201
1.10900754911108
1.06057807821165
1.00010572899284
1.01986509865561
0.954012056861496
1.01750479209831
1.05441292855672
1.14749533634349
1.07151984680381
1.28293948480367
1.00421403579618
1.0347134097971
1.10314277004366
1.17753984904344
1.02142586225622
1.06593329668934
1.14715697364483
1.17818607129142
1.13093021479892
1.03936785601538
1.12220620430331
1.09023996001985
0.996230897499454
1.07312530045507
1.17066834764517
1.29547243728911
1.17384926815745
1.193451096998
1.12701850417869
1.25032113081867
1.19452264588157
1.55550434910611
1.26406627080919
1.22290102396757
1.48661873023033
1.52475943062583
1.34530893477613
1.95588202683971
1.8342755240574
1.40211726451273
1.2012737999638
1.16420005912833
1.20856749690256
1.78561485362416
1.72337576432355
2.37225170302897
1.72052841850354
2.05643880269143
1.31190896782538
1.47409152485047
1.27291431405295
1.06218960029889
1.2509565574985
1.26037477489494
1.02227839009325
1.25213312446046
1.02650354882991
1.23583248546758
1.24542795673583
5
1.3538875190914
1.45946736783229
1.29181278168282
1.86078214610249
5
1.42181003877938
1.08907956493872
1.3011790115983
0.955230162778952
1.35041040507043
0.972465931555275
1.15181011118936
1.09706324850654
5
1.25860054511443
1.09151148291978
5
5
1.03430611003393
5
0.859536422567446
1.51111098540481
1.17016386127633
1.4490807786469
1.45968472680988
1.61938185981661
1.07335254678304
1.1870854270904
5
5
0.907320388454919
5
1.45944648797063
1.17460275624703
0.678202644456224
0.809166162009585
5
1.3960988017444
0.470551516553412
1.05186258765195
