3596
4000.36533379555
650.420452594757
1
2
2
0.0801552069370794
0.0767736611151752
0.0829939206756872
0.0785615507996167
0.0814403560478453
0.0846941702482186
0.080704621805831
0.074423982176944
0.0803560391035235
0.0825733695586028
0.0903336274158963
0.0854345765442372
0.0863311354059513
0.0825727242496587
0.0808868284411799
0.0713747420019872
0.0690876640431402
0.0733666585119457
0.0793211585186384
0.0773302728659062
0.081919852460726
0.0723009430880679
0.0757924011992727
0.0757743218453717
0.0863710846462154
0.0789340273922679
0.0733672943415114
0.0817383441569524
0.087197947219227
0.0810030088504973
0.0819070363706196
0.0730016658452853
0.0692293114045517
0.0719907376409499
0.0786658504831041
0.0830157215788889
0.0809541726749862
0.08045231997152
0.0753952718658051
0.0784552522124994
0.0931794260153168
0.0812217878444382
0.0843381080465312
0.0794139856230619
0.0777706133742168
0.0822756830297981
0.0866727605890231
0.0803522021117424
0.0827260458212534
0.0751094820500155
0.0764348749700529
0.071793440474062
0.0834234760060285
0.0859995423878007
0.0867803609080295
0.0929711817650391
0.0824598946362425
0.0757751831759547
0.086538063721699
0.0790725503259695
0.104046254407544
0.0916949004563529
0.0777257626878637
0.0692608205349519
0.0690546893487344
0.0694984848407643
0.0762628165209694
0.0660646522061629
0.0732007071988039
0.0711343589349177
0.0732779244075663
0.0840043593638041
0.0926438921827567
0.0784859380832963
0.091869321282792
0.0884009456369963
0.0720698669976553
0.0691969775574151
0.0728698112802306
0.0738881086263468
0.0909467785647242
0.0839721360626876
0.0819512722426461
0.0699480858585585
0.0807589156862421
0.0898581956039908
0.0701217894123221
0.0684442356800959
0.0931276861892914
0.0821610321506521
0.0729857766091477
0.0706253039040542
0.0704519122693003
0.0696726891851896
0.0701009307966401
0.0752540459417351
0.0735859550525272
0.0821725891195282
0.0751175343106701
0.0820853326790898
0.0677797235430244
0.0915171053162662
0.103548974067063
0.0804343772338406
0.116104929023704
0.0778412100250434
0.0768345240808804
0.0986212037886594
0.0998813045761487
0.0799168686774674
0.0773653191921559
0.0646395697828951
0.0760692336467613
0.0739537991863566
0.0654812487906609
0.0856708435743498
0.0986011722192321
0.0831782162101576
0.0778162439896769
0.0721058210051914
0.0453971189844105
0.0955662288318748
0.108820008227894
0.0754733487988448
0.0840980470549134
0.068783211996139
0.0513475266478189
0.107592862492826
0.10696591209306
0.0706587703188411
0.0617670970709555
0.0798712385693222
0.0613637393889247
0.0805929271296725
0.11005097384712
0.0765232575024233
0.065764710211017
0.0561455612515269
0.0938202722744841
0.112295434410215
0.0857217462620792
0.0696302697408908
0.0545636657705324
0.0693532123687474
0.109448234742423
0.0791993614048276
0.0666369328651806
0.0872674654081194
0.0735098646973499
0.076232505820744
0.074630645282336
0.0590069702666761
0.0950545676242231
0.0761641874624322
0.0319040057745106
0.12378530380117
0.103206868301352
0.103473124234823
0.111435991438589
0.0868899214698831
0.0782667410626402
0.0744306004833656
0.0780920691586245
0.0667233356896065
0.0656552708138882
0.0580426062966095
0.0870614179201997
0.0851647181084845
0.06716760608931
0.0691049069230469
0.110251476310974
0.0740060367221606
0.0701737024448239
0.124530631803542
0.0835376199324873
0.0645605487498405
0.0887889895486121
0.0844426248006739
0.0556599886780461
0.0855961900320311
0.0867912829971153
0.0762765463522923
0.0724905726187735
0.0583058554282153
0.0621891546852477
0.083236562799382
0.0784468018511833
0.0768319617297129
0.0717425846390292
0.0557368811769376
0.071503332857723
0.126423953481117
0.0962653832235494
0.0864515482085623
0.0745882425813832
0.0474888073415288
0.110468793772556
0.102108740588323
0.0772921175285809
0.0707424066961693
0.0733610881660623
0.0690019586380606
0.0608503641863729
0.0723463881127327
0.05115671697173
0.0428426486418611
0.10668259100411
0.0875221595102223
0.0714976513054592
0.0734335782805644
0.0663198571462936
0.0480340168238406
0.12987315521778
0.098972453288376
0.0799119926342251
0.0632861123624172
0.0677377827892682
0.0884558770173136
0.088629859851092
0.072323168301374
0.0693531845748013
0.0647850188007485
0.0688092561390118
0.0646372706845026
0.0693323631346693
0.0702572422933356
0.0734577844554114
0.0703102905989128
0.0753888815866186
0.0740191167505036
0.0798991184765768
0.0703291133035222
0.0770106678726548
0.0704141635156001
0.0623628620584989
0.0858419620136268
0.0893541307843498
0.0772493914102901
0.0705573767580828
0.0685837876307426
0.065984355797167
0.0674071234146196
0.0690971183451655
0.075084990375487
0.0534693067413336
0.0604980255699373
0.0989071506568838
0.0785614080919087
0.0705064121048019
0.0563101189861408
0.1009048153488
0.0812782109101874
0.0722389139435134
0.0664666834492314
0.0782084041170839
0.0503289772359048
0.0648679795938355
0.0876483418255307
0.084392328788722
0.0670977201118789
0.0813859794134847
0.0720642968394731
0.0824886143979681
0.0484384952800132
0.0657483718196222
0.129798816626312
0.0805272075345845
0.0779610848549726
0.130507612090905
0.0827599693441908
0.0921933595603847
0.0530721613236931
0.0417300453089334
0.167158744662837
0.134212735275596
0.0710864883375265
0.0766556111953774
0.0915535514582314
0.0704880766509714
0.073638727804367
0.069288110098428
0.0806847959297875
0.0824928783029809
0.134472577570717
0.119693370001474
0.0623970635373719
0.107513712620737
0.0882258276433069
0.0859851018194676
0.0720372854467945
0.0777478452113778
0.0672983187297009
0.089587117572684
0.0742844339884841
0.0997715753471975
0.0707652066632086
0.08212252554542
0.0886345119674971
0.0931651673282825
0.0692100493977096
0.0959953770423089
0.0826136412884633
0.0833105803132461
0.0752665424312023
0.079904580730624
0.0888399080543526
0.0602264247853404
0.0678587317885833
0.129610242916911
0.0826715401796382
0.0917784063288376
0.10234202436007
0.0928582916383304
0.0674641919233418
0.0810637020408507
0.0741403425319164
0.0845384655668844
0.0721341788134175
0.0857549872097411
0.10251566286153
0.0893678094629224
0.0805829099208128
0.08215616084584
0.078304186428054
0.0869909353311824
0.0841929904757977
0.0854694379272081
0.0852381232860081
0.0792392551766435
0.0653080222076518
0.111399191758721
0.101467539678592
0.0759511166634004
0.127787874657906
0.104592367959769
0.0909628557162254
0.0852052828402359
0.0878048201297137
0.085422253357115
0.0880615180861727
0.10000651273369
0.087887442288435
0.0978331319210899
0.113398829977544
0.10194236256116
0.0857382104233699
0.0955858342756329
0.156489480593166
0.148923904229124
0.116301278887719
0.101538324600097
0.0723492681926421
0.148871706698163
0.104205060293333
0.145498336296649
0.116720201897949
0.114256233496816
0.108462981317894
0.114234953961459
0.112748058586255
0.111723266387622
0.107962566656528
0.114356208367474
0.10827870350432
0.116987638824484
0.121715077563302
0.101056617994841
0.114010404966123
0.16454926287456
0.132426057127148
0.130216728986358
0.117302723023524
0.10760715342764
0.150360918067421
0.131333046267732
0.176346752756194
0.148624333181063
0.166128236690343
0.176849744405953
0.156395638613224
0.14724348787272
0.135282852265516
0.144890370542268
0.151688547724373
0.149081215722608
0.146244702839259
0.145133624612382
0.145796639166351
0.148918169478474
0.154138413980491
0.148803978923603
0.152437487102628
0.181239189752187
0.162113186278727
0.173810927830826
0.149567058237368
0.184658550944363
0.209240321482601
0.227347551468794
0.17299846371617
0.198415291322424
0.167399113008216
0.192211781006249
0.178477541501995
0.186282250410269
0.178631925520871
0.20296939536076
0.22131521112445
0.209020352215234
0.223819017300037
0.219594918174127
0.19021642645271
0.226896368149265
0.202185663842379
0.226147067697109
0.235841328088487
0.233154742886425
0.195212723237021
0.272814902414095
0.231068981024874
0.243763098008507
0.231745792456213
0.241043661267015
0.229108123822847
0.237425482424869
0.227851427681467
0.242946437067402
0.24005139280229
0.260883277067383
0.244036672846699
0.265854536697206
0.255608878888144
0.258462991532512
0.278660190172427
0.278111892106603
0.269332968075003
0.288907063690831
0.264760545719659
0.287852248496674
0.259473060102702
0.298016374250766
0.276193016070696
0.331095416778552
0.31187706132812
0.305630882258611
0.279087772123663
0.298387553501428
0.289139022464831
0.306300048798825
0.301924050086132
0.336174784974732
0.308011833203598
0.306070029396458
0.335444338653144
0.319959194645447
0.325374979663303
0.334107534447201
0.326472130309918
0.343375822855137
0.331717220425377
0.356785762011952
0.32703558180231
0.400404816607601
0.361196059973376
0.398364156661567
0.361683761759407
0.376358146917328
0.36130039018261
0.374377375027032
0.355923369067784
0.368382483348165
0.396207321297697
0.401192750444463
0.373617161557487
0.387830486718313
0.379281478636282
0.41560350011441
0.403810513150434
0.413866065018473
0.407834548678807
0.420459778311058
0.403163465266237
0.430318855243908
0.405103492450662
0.44234651991462
0.424163337223007
0.435229128851684
0.448057467475704
0.485983040789161
0.448949107956458
0.461950695321345
0.443080784705747
0.455329375531961
0.458013316234007
0.478869402306499
0.449614034962012
0.483361527266968
0.472803643810009
0.524959283205625
0.486153716581176
0.488807165470495
0.495707559810912
0.500120596129136
0.476214815277699
0.517536364367977
0.514291310851042
0.542687316086523
0.509220461422248
0.553217397216824
0.503105846055997
0.520736753491193
0.552443775366949
0.543955452607321
0.52844181549059
0.56000776442514
0.54415236442069
0.567065452168388
0.532748516596437
0.568444607607325
0.547373133604832
0.548022540936083
0.541458927707554
0.605827495935199
0.602813699201917
0.612342742501325
0.551835937791664
0.59505153851987
0.589702848671101
0.612285605207836
0.581322119994419
0.588201160582575
0.571119545226129
0.626756528031116
0.632015209931027
0.659248673688371
0.624269115276169
0.641768473361551
0.594964416551815
0.648625094155515
0.637567898375827
0.647370691101816
0.646294466769359
0.636131257364358
0.627737860998054
0.68572634617839
0.680334146122798
0.681501628386035
0.657360145869801
0.737139706477106
0.667268695832457
0.688162457550082
0.664816237394995
0.712937217358578
0.678967692653401
0.7109395331907
0.693257014693551
0.777263658740704
0.681476589167797
0.748237972726161
0.716862095082747
0.748888918662592
0.713113281805349
0.744407134798733
0.717367916078957
0.758186508231387
0.700067815697217
0.792703846963624
0.71852828827103
0.728678241772044
0.702859343018976
0.792804198724234
0.744546341886089
0.818909415598852
0.794058119493633
0.761710942309097
0.769206073026394
0.800722274354456
0.81386377582652
0.803700104441287
0.786790693540843
0.817259117362816
0.762108418092063
0.837991131691329
0.836872321894302
0.879841017803374
0.804714435720012
0.833784795164528
0.818413535858851
0.877892067578284
0.783497320413402
0.898198291466279
0.863698333038212
0.862530780702418
0.859973919122592
0.887867929039966
0.814824695312373
0.894058971970427
0.846183758347572
0.863805537366077
0.862092897855547
0.916423572195103
0.830277055662609
0.913802257115952
0.878852146417935
0.926200209553506
0.872217072650437
0.916652445502913
0.860980178702996
0.993433510761437
0.880771226483285
0.915666904499025
0.839946847247004
0.956719846737202
0.890530699115726
0.962125747645382
0.896051146333837
1.01516170921248
0.878053332670003
0.983213109951715
0.899461196421062
0.978296025794028
0.951937127427671
0.977650918341814
0.874567027940088
0.960274502509649
0.924295263279596
0.969124415964067
0.914873375303354
0.933189115865459
0.909361622646503
1.01948279952788
0.949679780741815
0.961094247359699
0.930674456382687
1.03098124110537
0.999879908563532
1.0360061391099
0.933993597567478
1.06205631187827
0.944973147691908
1.05373440755965
0.97059438501293
1.11419284804089
0.984231545518008
1.08397904904802
0.971763490874306
1.09113794201348
1.0120700443803
1.07885600671099
0.995475870152059
1.07933939186287
1.00491865843325
1.02351022135515
0.993116334883123
1.06199940356094
1.05001842420194
1.03031357602523
1.03974158738939
1.10273215894881
1.03173782080569
1.13066416258893
0.994884097549705
1.10551441249043
0.998993477068266
1.13755875760447
1.04953436175613
1.10131622183319
1.05919096242922
1.14179544412019
1.04581248857618
1.14268698188484
1.01965470886142
1.23178380587621
1.07599662488731
1.12915329104281
1.02987960644543
1.10204188516392
1.03272897173541
1.10827481042891
1.05158015296549
1.15268845351631
1.07382637792319
1.14344798859101
1.06231924669448
1.17180971372167
1.04604288261676
1.14064523582776
1.04298234363474
1.09868189998874
1.06839483871631
1.1328499154868
1.1256570340769
1.21638604598133
1.13444096510305
1.1798896983235
1.11328367682726
1.16647793652056
1.10290890209805
1.16601026440064
1.14800114779687
1.24668590302936
1.12134902080167
1.22439223274946
1.09396930819557
1.22699881928487
1.09916615013905
1.22778379293965
1.1078173379013
1.15059586619474
1.08792180493435
1.17224338245495
1.1241256695116
1.16776164468425
1.11383363334792
1.20736293679197
1.07424516860213
1.17494984224518
1.07141029262001
1.24758962526219
1.10430235123884
1.18033104640093
1.15642989073954
1.22219860490518
1.10891685575159
1.22135722905173
1.08590354466427
1.17729487569759
1.12985004875098
1.20424808562232
1.11642282817028
1.22075852049987
1.23663001655743
1.22670041351962
1.10536469693208
1.24496204763466
1.12503224589599
1.20179875582758
1.09866773183059
1.21749979889515
1.16731032862708
1.30924862323306
1.14074657276471
1.18177988796032
1.10567425832411
1.26992034369888
1.16063076220297
1.21243454033706
1.09603919194459
1.16635524132133
1.08367068762408
1.23693337310974
1.18524082490543
1.23164578992355
1.16499269490615
1.19430524692692
1.13296486279436
1.19262871001477
1.18781714264087
1.20748511020344
1.12346825402139
1.29889107697929
1.11797075501485
1.24891369894278
1.15494347331049
1.24872398182597
1.15747018346169
1.22359258860408
1.09739022335965
1.17634778005589
1.13523469246314
1.15467017726748
1.13352508605899
1.14633606178283
1.1903626846535
1.2127292836383
1.13223653562755
1.1930197421109
1.10894463841371
1.18376225520892
1.14789829991823
1.22442411683478
1.10860777628988
1.23837402879807
1.19178809257277
1.22710858544014
1.188542305863
1.27676804780363
1.1317592854176
1.20342813813605
1.11214316083499
1.18881622949436
1.11090293105845
1.22768173789966
1.17136055154799
1.14131363507811
1.15666517913001
1.2044833952988
1.09472130542345
1.21757600137959
1.16468765410239
1.18431816281053
1.19223695360591
1.18866814058239
1.09390573164843
1.18131637030928
1.09617557523802
1.12949239666184
1.11546158390811
1.14024934390347
1.1438045087679
1.22456283378055
1.10838661928408
1.18794377948758
1.10787722897098
1.13477662809341
1.09539026924808
1.1609783706514
1.09096150899518
1.20663057113493
1.0882537537214
1.13402237038776
1.12976446744053
1.07990947113993
1.09796341099602
1.11708271341495
1.09316247209298
1.13773663764313
1.0722549933845
1.18821230746407
1.06447452317346
1.11521671995766
1.08742883098952
1.15214628748089
1.0904970368239
1.13379880458287
1.04122592773468
1.0302812694159
1.04613118675819
1.07302853121144
1.06421007453222
1.072731272905
1.03778414011288
1.06195065959598
1.07553522007174
1.12353043697387
1.05007275341744
1.09001883299301
1.07318109863709
1.08042159190373
1.00638607686352
1.03804621686347
1.02714586566861
1.07348023734792
1.04267451167434
1.05965169533859
1.04052151613601
1.04798633635841
1.0265100166219
1.02370612348898
1.02136699582549
1.0286539998839
0.995157677953366
1.01434973292606
0.997551922482814
1.01220189954129
0.976846769896571
0.980209931699591
1.0027586291899
1.04226011702937
0.957532361140778
0.964482215264309
0.999111318218169
1.00003874755466
0.975862279613666
0.98707964302133
0.94303904079533
1.00264029314585
0.957314447563555
0.944824640970704
0.962962138626736
0.950420451916711
0.921439054246415
0.969801217601952
0.980602770186301
0.968630699956913
0.944138748902479
0.972005360720201
0.92196253347572
0.956731966444074
0.900985746632054
0.91665309991087
0.913955266526205
0.922123444938891
0.906895347283189
0.923781204019483
0.867456968393948
0.934174720169485
0.879816669705256
0.910694182350666
0.88488882723132
0.885897478462168
0.873192128965337
0.905538805878589
0.864674510774921
0.878053343220402
0.852091697923031
0.906643761382263
0.83053603287293
0.861138296237117
0.81932977613766
0.869155904189215
0.860107427557936
0.843755094313016
0.820921796985111
0.84544508317414
0.82552658689677
0.828573155585269
0.842571890031741
0.810384088372456
0.788971321989608
0.825536404926856
0.786770359104217
0.821320790957725
0.814987608202411
0.789009825253062
0.785030803174684
0.801863848980899
0.76733465825184
0.790383261153583
0.774162257272732
0.794773894460145
0.765805029888399
0.771132719686396
0.747957161488935
0.771685153958
0.765717823394316
0.76749617485037
0.753517078807045
0.762749045865408
0.740137564641681
0.750153091097396
0.729569526102514
0.730959937073413
0.719285827949715
0.71755845524652
0.698664508095021
0.720686444815985
0.712098325115145
0.723664013060877
0.70931368482446
0.73239266475681
0.691580191508143
0.707832396383401
0.698901871679524
0.711999809976659
0.688691231844699
0.708928076412584
0.687211688626733
0.688690954432023
0.674762122509611
0.688757555547392
0.677178644710139
0.6630991767065
0.679569312807241
0.680043278648585
0.662651487696722
0.663653677197813
0.650129865255092
0.648717217757976
0.641690675431162
0.679118638784013
0.636706124067794
0.637966619703011
0.645244393103192
0.633035690127415
0.628550557450131
0.647097913908739
0.610556570260152
0.634697490730362
0.620609840661826
0.63132282794601
0.598919821998254
0.617646427431338
0.609986162819465
0.6129264582951
0.587221749481824
0.608090270211795
0.596853864849066
0.612309231427623
0.588326212371564
0.601220952056605
0.591006123996428
0.588448912567315
0.575927442964781
0.580997799241646
0.577181826894054
0.579232253418575
0.569232560459833
0.569345286670675
0.561323134454588
0.565322687988783
0.559901468410871
0.557766338394755
0.549043526195899
0.558827659749093
0.540934385014762
0.552700258769157
0.540910119746762
0.5461647380229
0.555618074071761
0.543822578105302
0.518548375089267
0.54300438966324
0.518950139816424
0.52990579691857
0.52072257780337
0.52465512664277
0.517636535409541
0.523936890076971
0.511296769802106
0.508325080445372
0.501534500102058
0.527941004781076
0.50443776724092
0.500158741626463
0.504112691090579
0.517862691571758
0.495260212309976
0.504512516791394
0.479859583492164
0.50201102874026
0.475730248461766
0.490343644227496
0.482903201541274
0.482823627436908
0.46572239609263
0.474557918127916
0.484538445692213
0.487382135605245
0.47420049789602
0.47693230679994
0.46630121663944
0.471706219766411
0.45349151765294
0.45692889494837
0.452992254579877
0.454624513102267
0.443480633537625
0.460035609734874
0.450216467271725
0.452391535539696
0.43602383957861
0.446992233431017
0.439990991282367
0.440470742776058
0.428349274649682
0.44419863460055
0.432645744197226
0.426544251494604
0.438232622539777
0.448229426079503
0.431541554924611
0.435438119517533
0.425543272388903
0.429846880121261
0.433205079419773
0.427979270677973
0.434068881401636
0.427041354730316
0.413575443145115
0.42574792041423
0.414678920769075
0.426339143083527
0.411927054282133
0.425039297860788
0.412465292123592
0.42258819896396
0.411034943887887
0.414944345937331
0.410535489578585
0.409870391299115
0.416415986624035
0.41273075192913
0.416432675258605
0.418715285487762
0.405450199035716
0.416442370774806
0.412609650401746
0.42283039760642
0.416707738489625
0.413656511250973
0.416350302970857
0.417222233085669
0.421323717505343
0.436716932424032
0.42283183043461
0.429644972628685
0.425982984326168
0.429279968693289
0.425596429785576
0.433643042053133
0.426247438113457
0.436400907511845
0.42619008700085
0.426707440689354
0.431672840635743
0.432562633205101
0.436108147766942
0.437452022326375
0.438633057734467
0.450339932743883
0.445565488217337
0.442455690713016
0.438791614451658
0.444738163250671
0.436736567262438
0.452832693412253
0.450852954795806
0.455892445475527
0.449821260599545
0.458509411281464
0.451535040209085
0.458837458641643
0.457464427633096
0.468154590030846
0.4578191068536
0.473569634066828
0.468358500348752
0.487272155371792
0.478445524183654
0.481883388014806
0.478835200226302
0.479962172735274
0.483492504154417
0.492707387575389
0.4961564293485
0.498497428248144
0.503220172482867
0.516303456863103
0.499506962023198
0.505587419819929
0.506475661112072
0.516259651250007
0.516539043579219
0.519581515643385
0.519574987301821
0.522663464727331
0.522586121751712
0.517377782118923
0.512583987416422
0.523019478683958
0.515816157455119
0.521951424428454
0.506614447745639
0.519609989454201
0.529202266635556
0.528432971983306
0.514032771343432
0.527687026871706
0.510422775846081
0.528911390392386
0.518167913668435
0.525005854232707
0.502383150339237
0.51573793434394
0.516401824373444
0.536533235191385
0.518117953223171
0.515423111312439
0.509305678660155
0.517220464355748
0.519593675511503
0.515976031588475
0.525957440942283
0.522721901896191
0.5077087458657
0.521076506830709
0.516099235952348
0.531820129122787
0.517194374474035
0.520051099434591
0.523204949194571
0.521814245635527
0.51189055613751
0.512686992034371
0.509071125553088
0.516894969494666
0.516793472063735
0.526588448845076
0.509443094812425
0.527994882974569
0.514578734586807
0.52240109912293
0.521942392524557
0.524603194247245
0.512773951456609
0.527093302351294
0.524024660530315
0.521014894056693
0.514514832201312
0.524966696736438
0.51788437437484
0.516863822038681
0.512209563670114
0.518582473646898
0.519085419550617
0.512078204526891
0.510390435198032
0.505487195596125
0.495264883796982
0.503126853616803
0.504627645740603
0.488373671416213
0.485984699177043
0.503851644823725
0.492585986620253
0.491584950561307
0.482461500938214
0.488807322994685
0.475238137229595
0.48270541351094
0.478778980681631
0.474800981543875
0.472101786126225
0.464596069673028
0.460965771667111
0.466746928144708
0.459768679995793
0.450478506234782
0.447242158366057
0.460098648219942
0.447452807532088
0.442541308600347
0.443661712206442
0.433600230517392
0.429666178520095
0.428028542473882
0.429721724389878
0.434553575016894
0.427703884442348
0.422583529568423
0.416661997354935
0.412841172782412
0.41898868702482
0.417677349514455
0.402486376634401
0.407861523980982
0.403391619843209
0.404403143932842
0.406366092543865
0.401816920120572
0.393495723435691
0.394796115748399
0.395321078453439
0.390555767114302
0.38688847868805
0.390794290105906
0.389273646280484
0.39055644282891
0.385463691076703
0.38982715225504
0.37948910124859
0.377957799318669
0.379822016194454
0.376144198489023
0.372742326602991
0.373476160930959
0.363750503339051
0.371119629056516
0.366214777601869
0.368256608189147
0.362995783740007
0.366955796670827
0.363854303317589
0.362326091415064
0.359283973990828
0.363464350013199
0.358042697091181
0.354159596237265
0.351470648019178
0.347985009197679
0.349233068291442
0.355779226091598
0.34530228598516
0.35190086443941
0.352697246882081
0.346957638339993
0.353275290864004
0.347338340654408
0.345407593514265
0.341075583626369
0.333803754523133
0.33817612631991
0.342848990394962
0.339307929557542
0.337347925305599
0.343191364543493
0.328646067811704
0.335009394746327
0.330760786215957
0.335117955266571
0.337956394637036
0.334330894598517
0.333146292337866
0.332799374433842
0.328900545194778
0.326339734900688
0.325591166886038
0.334027101266189
0.332267552645154
0.326850676014719
0.323931902815753
0.325576761148519
0.324799578552762
0.323344568370486
0.32205205854951
0.321622642025915
0.321256278323966
0.325194416621298
0.316730716558415
0.316822556761739
0.312915327348014
0.320651974203713
0.319628616783753
0.31610899845986
0.317695531712515
0.320671686053487
0.317813664505459
0.31173030939973
0.31128469349941
0.315584636557684
0.311725232703023
0.314062455401885
0.311084780683507
0.308253276779893
0.303221210945546
0.304189810797932
0.313335660505211
0.306473511598467
0.307239023099785
0.308728334429007
0.305539628789322
0.305879649301791
0.309751772593543
0.300941139771417
0.302508539348307
0.300484316580359
0.29984295551606
0.297115160066508
0.301367853755866
0.295017849693219
0.30073212519405
0.302264010850308
0.297001393598093
0.298008452171898
0.301681946742923
0.300390031940094
0.300146478423735
0.300054204439093
0.295557417855476
0.29835048515846
0.30129571390375
0.297644974105278
0.298729024234974
0.2988749956376
0.295923293096376
0.297883318685497
0.300141513107511
0.295603678197755
0.296660907446031
0.293214782178732
0.293549205647711
0.29131355953775
0.290163625363874
0.290456978826222
0.284259471168929
0.290530167956553
0.28832133600538
0.29012861801265
0.292918968202619
0.289681922001287
0.28966078810233
0.289264325521137
0.288614834523396
0.290351611471632
0.291201712542267
0.288650111370432
0.290562869415885
0.290649635869952
0.286988903073277
0.283015169699314
0.282135289573133
0.281945235308974
0.286411026533613
0.285492288329371
0.281716475343834
0.282626639192805
0.285317017804622
0.282524670309652
0.278016512777764
0.279784113443726
0.282020214511641
0.282231382476433
0.2774584389438
0.273571667428278
0.278158006821138
0.274020418656585
0.273516588158575
0.271698777604005
0.275353545629859
0.275175491215394
0.269378447615683
0.268339189452347
0.274757572090037
0.274907758024823
0.270980119906521
0.274030498371897
0.272890750193299
0.270322980994417
0.274705838067688
0.27067223896069
0.264517674605457
0.263111544468309
0.267119110846315
0.269298757835276
0.26906317619785
0.266876641621668
0.261840437133628
0.265678655160067
0.261396220581986
0.263147934305839
0.263254843577627
0.264839130107251
0.264954194378872
0.262229827111694
0.261154262230659
0.265296006093537
0.260372269759311
0.257931779006787
0.258732730607374
0.253999156911982
0.256799123911466
0.25353477410104
0.255677991141541
0.253283789765438
0.250148390548146
0.254958136087508
0.254219895772212
0.251309553065828
0.249179967708393
0.250530740390332
0.25308846720106
0.247675891297922
0.245403946184586
0.250103499367606
0.247482986616563
0.24507416685846
0.243916629146881
0.242012941721063
0.242791457315151
0.245283784809622
0.245441322573236
0.238225408925001
0.233999239145016
0.237537873507943
0.240579101168224
0.23798334349508
0.235653312011194
0.234615730854628
0.231670770843026
0.237356678406595
0.234250510516998
0.228345441070768
0.236375314846997
0.232390189187606
0.234631049947359
0.232396931581762
0.231105712469934
0.228745876132677
0.227621837892119
0.230918518850764
0.234648603554612
0.229490350199191
0.231652796448828
0.227989156015419
0.229236637369543
0.225895913635622
0.227908728302306
0.22758011334838
0.229812016227524
0.225493908407768
0.220946111924828
0.225302289467828
0.224344929484452
0.220330731379882
0.223415594810914
0.221676393057995
0.218539749962221
0.220077179991044
0.221473090062912
0.219977963070631
0.223738573209208
0.21978508742327
0.220361403304371
0.218353288416123
0.221695948982165
0.219340747766929
0.21852365737726
0.2192153066077
0.218566762106548
0.216193094878254
0.213847103669141
0.21349130361036
0.220529572552197
0.210312136255622
0.211884722632767
0.214619978662227
0.215534520353234
0.213022142576271
0.211701861924638
0.210061825849406
0.210120503232022
0.205665750011104
0.207597095392976
0.210078060793274
0.213483947674332
0.210767648273332
0.213535919969041
0.214555621740822
0.210890241294014
0.209404329095508
0.208868308415287
0.202834207596581
0.204996933626376
0.20613943026607
0.20841524347098
0.206707393118751
0.207400214833312
0.205205935305452
0.203967042247348
0.20375485750293
0.206963129105866
0.204778659283052
0.205346207595187
0.206197229283305
0.205843435149701
0.205435388640141
0.204121834408512
0.204215158321741
0.202302142373093
0.203279914950851
0.206809381878069
0.202069588240986
0.202396581743656
0.203065241776371
0.201252525739398
0.202680748109759
0.203062930614819
0.202671494532848
0.20492044389913
0.198444867911736
0.201218103642118
0.198108116762943
0.204200831195648
0.199075565542706
0.195571211979889
0.195381341268641
0.199666752095195
0.197491396619467
0.194177067522978
0.193354642457636
0.197812636814218
0.196858424991717
0.200302155349907
0.196838988849873
0.195636067463151
0.193347051307763
0.194684513217158
0.193468607001638
0.193558512081939
0.195349610951051
0.194829992178511
0.191768773443166
0.191737328471569
0.190987065381523
0.194536254257868
0.190614865346008
0.193671168098458
0.193312064216023
0.192281047461573
0.191516682994955
0.192598639965729
0.187748489374414
0.190142466275015
0.187674383068371
0.189872021266552
0.192785398068404
0.193174408584332
0.189315955893338
0.186916517363464
0.185685176503506
0.191029726282275
0.188866442812139
0.187281838291627
0.186810853102755
0.188827568467883
0.189122898591316
0.193106018512418
0.186519191994307
0.188545676125598
0.184535460629602
0.185692087647993
0.186336368316032
0.187405093193238
0.18542841055092
0.184988433236652
0.18333379052295
0.184862948720121
0.181457915198814
0.183758021851626
0.183267576109777
0.18300285648852
0.181064238330665
0.184010062768841
0.181978992196551
0.1832445867319
0.182278218886163
0.180112678827723
0.179745694900579
0.18416573469218
0.178267143308751
0.181083706963391
0.181106687458575
0.180917991365029
0.178990650037023
0.179401098860091
0.17420052957569
0.177640398524401
0.177329963545405
0.179216811656744
0.176082583938504
0.180033270010758
0.175404158201645
0.174410967524829
0.172816030900176
0.173215235021268
0.17049710557451
0.173295829987364
0.170981604725025
0.172525069673541
0.171682891260275
0.170837845260984
0.166575624023098
0.169970718950325
0.173526971489157
0.170088629117878
0.166600927323439
0.170472187201916
0.167332946804739
0.166645097301539
0.167076113898428
0.170993701116179
0.164830194573169
0.163835160532944
0.163647073135436
0.16965992048406
0.164313922482802
0.164064867435052
0.163403635484161
0.164685901822062
0.165167974176747
0.16525516858081
0.165717210601317
0.169427267268705
0.162629041812059
0.164775498312878
0.162470278057246
0.164176839883104
0.159080057760644
0.160397446337601
0.158077873346246
0.160786378181624
0.158237222965017
0.164340795174155
0.158217476700804
0.160957639720903
0.15826913755304
0.159203617270979
0.157013576630255
0.158717397624545
0.153748623414881
0.158815407122626
0.15661181233597
0.15376590474597
0.152154852661705
0.153613894224113
0.154918795847943
0.15666197639437
0.150237139425412
0.154010409154358
0.152193492126424
0.152218157623868
0.149602356583787
0.155485192226385
0.14865431357494
0.150339776010105
0.149011778670234
0.153140909259707
0.147159794940384
0.149058394874486
0.146427850335304
0.149212760100711
0.146561816725345
0.150444437005896
0.146868257482358
0.148437172568084
0.145836257837396
0.146674996501458
0.147859871336976
0.14931521569345
0.145762742804171
0.14594281799244
0.144677771246074
0.146536129515472
0.143155705737914
0.146718473456973
0.142267780240583
0.146472497082688
0.141158930955493
0.14474938878583
0.14467100378812
0.146050080355413
0.142067013348261
0.147267199157952
0.142667810790961
0.146157221311167
0.144798042388018
0.143775920711043
0.142394283447492
0.148502842758423
0.146946450325201
0.147886219563817
0.141886785913591
0.141705864298722
0.14332770527632
0.147864616080289
0.142026944302932
0.149257431945787
0.145083169674187
0.149391850787335
0.151441227942315
0.15121469766808
0.134937818706433
0.143332228908653
0.145097845475404
0.155384127577577
0.135565306946534
0.143579842142758
0.143540804122524
0.14499763929164
0.137130313807941
0.147228042961471
0.1342097386616
0.150837045087572
0.141948811582121
0.141374424035782
0.138510559572092
0.143585682191692
0.143786820831413
0.147209608645705
0.136555382472151
0.145015960271594
0.131692167667824
0.137234292635356
0.131636577014405
0.138481161398943
0.130139417270676
0.142556976070282
0.129933812387403
0.135979139441716
0.133806223434282
0.14256866424475
0.131432367347289
0.137002929533865
0.131508003217367
0.137710205681737
0.136561244244077
0.138024327349691
0.133915796905725
0.142321422221342
0.132106922126871
0.132733026942429
0.131445937788679
0.141851706548652
0.140276627436443
0.135337013080685
0.130525903183797
0.135958984725414
0.144518025819868
0.13401970696779
0.140209218472924
0.123309923436795
0.14803646346555
0.127734159424237
0.142076031477871
0.127398337113042
0.14815198037972
0.122843899958001
0.141877612687742
0.129847102383531
0.14169172836705
0.130401805355676
0.137698730839982
0.134600671672842
0.134759586932882
0.134769746720535
0.128057412054041
0.136290056362783
0.126821719535413
0.130536067518995
0.12753819305602
0.13052261480137
0.130491817717903
0.126636823734487
0.129982204986761
0.125488675232386
0.128258432666254
0.130150670857852
0.127768607987764
0.130139720626794
0.127177058109942
0.128173313471562
0.127043635708555
0.127160192657524
0.125222142502858
0.127408104474265
0.125288559489146
0.125665378531737
0.127036627323945
0.127781911000765
0.127198755662444
0.128212951686175
0.12300783601725
0.124925532573681
0.127362064639517
0.127040203510141
0.125204357514062
0.125696946698495
0.124467720985486
0.127818661809309
0.123388828764215
0.128821183360865
0.126669838364467
0.126030048858834
0.125462816759596
0.128465581122982
0.125492130149914
0.12807852915889
0.125859210543195
0.12499275027039
0.121513168433905
0.126149083358442
0.126775330305476
0.126209829125892
0.125600873990285
0.127154971455748
0.125571371350142
0.124835503740528
0.124272428595634
0.128506483199769
0.12577713167751
0.125980457647326
0.125624478969599
0.126113473340674
0.121941638398502
0.125979164080223
0.124721139533162
0.124851845782126
0.122200931468771
0.12318391403468
0.121639940124404
0.123516720473338
0.122656759136106
0.12555824155003
0.125500341690777
0.12785002179491
0.125455817203951
0.126341996080526
0.124095388927822
0.125677327070872
0.121825806084021
0.125093009093945
0.123925694073404
0.122869488565371
0.123276212846034
0.124309934924095
0.121784862500602
0.126130206388898
0.12356733007493
0.124976367744515
0.125802004252012
0.126512592009521
0.124461704531891
0.125177340843112
0.124691315978506
0.125229569375685
0.119513245800474
0.123819863746579
0.123974612260447
0.124792584147321
0.126444538812721
0.127919377965449
0.123675346599534
0.126511650455616
0.126705152212655
0.126829748861884
0.123473535222464
0.126517298139926
0.122494746997956
0.125725833906559
0.12789142608657
0.128095597568356
0.123611031791053
0.12572031221351
0.12314321664975
0.12882553608561
0.126964117588044
0.12465593426945
0.123598228914362
0.128823979265306
0.128496575247448
0.129469143156739
0.126060845165143
0.128238744614888
0.124201522576269
0.128429243936918
0.125915382892034
0.124616635674891
0.121872176334627
0.124488934332778
0.126019452099455
0.129412404778187
0.125125498653919
0.126288512978146
0.124025157016401
0.128740100906122
0.126726316573945
0.129658179097293
0.12407003129923
0.12950374818765
0.123826586809936
0.128041137167777
0.124957998343917
0.128622865472928
0.125301954137879
0.126538729308621
0.126550510652563
0.128829985488025
0.125163993057335
0.12723352186051
0.124909398452644
0.126549885117232
0.12524033955393
0.129822429495722
0.128249206186108
0.128123090913268
0.12929563292018
0.129340941237199
0.125781624304213
0.130044463017619
0.127351449515824
0.128821022450796
0.128687460850263
0.127656469056808
0.125281035904685
0.130362724665595
0.126778893996447
0.129004747086699
0.127829792028557
0.132799205323826
0.12919893654077
0.13191178463572
0.130917702348794
0.131316339897423
0.125435745294543
0.128269495114828
0.129054111323684
0.132101015019253
0.125846931464219
0.131154923741352
0.129068942531677
0.130585778643462
0.127344991810588
0.128426718233484
0.127229134811294
0.127996295685591
0.126449515429982
0.128764598432316
0.128427222932292
0.131957276046722
0.127696588202442
0.129402058923852
0.126173056011948
0.129549451893113
0.124161396719149
0.128382403299183
0.124630169533459
0.126422362835534
0.124954523147088
0.12679192765382
0.124205651559948
0.127322115777646
0.120998325196459
0.125640787835094
0.124491667122514
0.128395945686995
0.121624112968125
0.125220912514393
0.124571933484038
0.124418243368623
0.122911752018813
0.12451169956375
0.121318532130774
0.123143211392826
0.124225377342584
0.125708206354355
0.122461285821351
0.122722569697237
0.120300443131137
0.124993023015117
0.12298804018945
0.124530905643262
0.122622587052348
0.122363965178012
0.122261649449034
0.126126193811531
0.120534861276937
0.124849148313359
0.121179436042505
0.127251458156649
0.123017416301219
0.120992144909679
0.119486998057921
0.123304633412815
0.119984335316625
0.121919528060351
0.118893332521964
0.123518933598834
0.119471858344089
0.124507867854913
0.121070965226209
0.123227838915857
0.119846579340365
0.124207142825003
0.118102079133242
0.120640856520618
0.118286690148011
0.121896714316287
0.11945318132264
0.119864009195458
0.117289658471097
0.11875344531632
0.114801016561535
0.122335051962081
0.116881442532499
0.120728848111654
0.120108981402879
0.120830438705554
0.117501899546839
0.119571356113595
0.114833886234632
0.119894460544835
0.114708375982896
0.117899032368867
0.117180917011133
0.116522745270926
0.118292445969798
0.122435118632824
0.114813229233798
0.121390319932974
0.11680510371343
0.117400585566404
0.115313369725139
0.115400822062772
0.116150033038232
0.116576063223584
0.115317941763138
0.118071297441271
0.115167299627215
0.120256755438652
0.116719320013128
0.116364331207671
0.112014903686143
0.114334898794817
0.113279346580786
0.115589462610802
0.11190941136352
0.116594035266315
0.113200099314165
0.113385985155727
0.111741918524405
0.11670156648399
0.116219220342331
0.116026799344559
0.110302066558092
0.11138194683394
0.111099103521874
0.116308220856166
0.10859919130953
0.113399076996266
0.113225735239863
0.110588783436299
0.10914053820193
0.113919163708286
0.109880433398041
0.113838615470736
0.10896377968672
0.111720368795698
0.108558499067212
0.110365203954493
0.105677045688323
0.11121930621852
0.107624536845099
0.113251912383378
0.104434215868454
0.10993881109474
0.107859841961823
0.109437337278652
0.111397841676116
0.110823840549383
0.106141049450457
0.108900220338631
0.103023819957272
0.10554047251424
0.102520537470922
0.107531584131795
0.102714787226704
0.108107217632916
0.103830980158859
0.102107265476648
0.10063619196835
0.101952679011197
0.100196562531803
0.103870143431702
0.0996672965301654
0.104700233923952
0.0983180002487417
0.101579118610181
0.101226084259032
0.102617151853633
0.0979074276685228
0.101360678795994
0.102904651826668
0.0991112102030487
0.101907872547273
0.106872032699012
0.0992780433906048
0.0993629030507562
0.0981927503567114
0.103993677284815
0.0972167409682449
0.10331292598879
0.0981080055840487
0.101858959838215
0.0965336837193926
0.098971828924972
0.0973309219152875
0.100739890575541
0.0987408628442511
0.101133211868761
0.0965806472322244
0.101661019201326
0.0961980932933399
0.0951573285364222
0.0979738278749079
0.0984709873898438
0.0964156864621145
0.0973136018199097
0.0956063136407993
0.0980070745528195
0.0949836306376944
0.105097633027252
0.09821674700144
0.0980539905936009
0.0935599613701473
0.0965314169311097
0.0897762212627792
0.0968220529456978
0.0932695300302629
0.0961475285050356
0.092958115607271
0.097084629568639
0.0913782161796148
0.0964196928665444
0.0899456101786259
0.0931719544391536
0.090496144385693
0.0922702224722288
0.091948942515768
0.0931044826538861
0.0902190321053493
0.0955670956404709
0.0885119024461506
0.0939092332939278
0.0863683541041945
0.0945223489248737
0.087011533866287
0.0925108200285735
0.103008138798016
0.0952873210357791
0.0913243457257946
0.0904900079901428
0.0875846815896337
0.0919421825259652
0.0871206179705156
0.0898641675240802
0.0877044234492821
0.0909275694272757
0.0848157332448773
0.0885077123690228
0.0890986265873654
0.0897076133364512
0.0861799182760659
0.087934616169114
0.0878772608595097
0.0892794023486418
0.0881829277941871
0.0857875218766101
0.0871985522178832
0.0977617145687704
0.0891823209279514
0.0905063121434887
0.0891775607008547
0.0843476720747593
0.0964943578605982
0.0946180337939609
0.0875043219038982
0.0888691125832693
0.0882651284450744
0.0875255709079559
0.0853050970393688
0.0867841765596357
0.0869682277935751
0.0954474739475536
0.0855106079779956
0.0914051494918348
0.0842847660724452
0.0882714156200635
0.0806884643750903
0.088740828203116
0.0841649178818103
0.0849565020202554
0.0855338559920009
0.0863748579778954
0.0832007597445125
0.084145372529535
0.08616523673723
0.0868760617018717
0.0842847955546757
0.0942346089930972
0.0856963156743388
0.0854317663384387
0.0853500608531423
0.0833275970937082
0.0807040321722424
0.101795688684085
0.0828930479749043
0.0861728807792564
0.0804034713208784
0.089263731631348
0.0830893293474435
0.0888507417717542
0.0823077162733144
0.086844900679808
0.0791362425013134
0.0864953710122119
0.0809896466888329
0.0872095050691801
0.0802443868257057
0.0855245274864637
0.0814943869996843
0.0827380451533626
0.0846263292657963
0.0854486224572005
0.0864977530812395
0.0806039133688218
0.0860313887764212
0.102553286008632
0.0915177253674946
0.0920139483390681
0.0870230693553283
0.0860142546412952
0.0785006887081454
0.0859211017120539
0.0793465930006459
0.0860556631706019
0.0790799766988345
0.0883339309441279
0.0814514929059584
0.0857624333332032
0.0797893792917109
0.0874245969716677
0.07846533443608
0.0860664679988721
0.0777171652190771
0.088253523565689
0.0790184946014492
0.0859509113006465
0.0745158084308423
0.0941724002555805
0.0810377346840489
0.0913772587989286
0.0663635279388529
0.109481393065675
0.103321996403998
0.0852309242560489
0.0889098586660725
0.084805847534388
0.0825634455446052
0.0809718549792193
0.0819321082573519
0.0897223026073262
0.0822894821479616
0.0863534616346467
0.0795299368378711
0.0828882204257804
0.086692658125055
0.0780712246295157
0.0804768651125988
0.107737300720517
0.0882223577480345
0.0899405857414824
0.080118024213638
0.0842294052915546
0.103219509486972
0.0863075290870613
0.0864772434199832
0.0873321161280074
0.0829953890633628
0.0856391280224003
0.0841038343604036
0.0835250781964653
0.0870264538067889
0.0898319315010223
0.0820112635676894
0.0875067498823045
0.0781419985796584
0.0890737265335494
0.0836152183749633
0.0956193260746435
0.0961300055318125
0.0850432444980915
0.0904774517043985
0.089821895142905
0.0816702491674877
0.087953686605734
0.0885625380055142
0.0870541525861147
0.0930809710425188
0.100390846842318
0.085016516331433
0.0975069135315861
0.0958004676135327
0.085103832331026
0.0899066404615072
0.0932530472214684
0.0959757802356935
0.080159378065624
0.0911275958998522
0.116250568658481
0.0947249999197132
0.114660566594727
0.0826179905946704
0.0985616408110902
0.0838164981535992
0.0977936151458175
0.0806699148409493
0.114721260685135
0.0829038555809519
0.0976283546534613
0.0796009110199177
0.106749385064138
0.0973766488387296
0.0970027716406905
0.0948298513282222
0.0961987757605584
0.0905412800959586
0.105814610085411
0.0953858025241847
0.0828892155607598
0.110109519965687
0.121094172014422
0.10991411369782
0.104315602580712
0.078713734629689
0.136732911619314
0.0965415825124748
0.103098614029029
0.0889046141154736
0.103769091098263
0.0926720912114302
0.0943229813061592
0.124474594982486
0.105077105028245
0.0937978915880007
0.108148519633017
0.0877514322990728
0.123409044748594
0.105553391974138
0.105272856492438
0.0960503508147368
0.113872251424477
0.0821800574591477
0.153325549556242
0.110369936641144
0.113857818232703
0.125939251812758
0.119639395697236
0.1182838818301
0.112819411634219
0.112292856236594
0.119222330556406
0.126659045172869
0.119772467478641
0.101236764846323
0.12566883482445
0.139373889452179
0.111799953428879
0.127087727812846
0.117493142804235
0.106016401072381
0.147095377697443
0.16576563036995
0.148892985065156
0.131902135530049
0.121765313700511
0.151152295843935
0.131971005674343
0.125843567689676
0.128267347856239
0.125388603976088
0.131924075116246
0.127429812542134
0.144337196993088
0.130964071785888
0.139805593979691
0.136708362571574
0.13681726512243
0.144803381677854
0.180938805912197
0.18529299375695
0.139221708775585
0.189917863165519
0.166091344054741
0.163280589210243
0.152136750512663
0.148783349866483
0.167588716439435
0.158763065018018
0.160446069109673
0.149340288650827
0.186050992777375
0.171743096282328
0.164564527239885
0.19224599875383
0.166848983726163
0.181382523783315
0.132519558870088
0.36161378079836
0.198341245781632
0.210308492412606
0.197330095910741
0.178771930654417
0.281491188448496
0.216048104370751
0.213324712644634
0.217527402824546
0.221767473567541
0.230331158420946
0.238439142410959
0.242952381622697
0.256237662556785
0.258130637439367
0.246724715660499
0.26291341577382
0.336494624807909
0.314939568712594
0.31204424148864
0.278969198665326
0.312832260899292
0.316922066933347
0.304759631808575
0.313659059896786
0.320788056722793
0.306499672113985
0.40340856750872
0.333147116108061
0.360937365027534
0.343322041126257
0.411712402337067
0.333864880589699
0.438427718849328
0.405133487000973
0.396600700820653
0.396958453941574
0.400530274310549
0.415741172288542
0.40366125742444
0.455406015411667
0.448551787345194
0.433669456832234
0.454354490038319
0.451008837752795
0.468449299491562
0.462798534868628
0.476554370067304
0.453914877147992
0.54152856938065
0.452622376709514
0.702521343025796
0.526496176784023
0.492658530440555
0.499933647448535
0.483856563395322
0.540143468537983
0.521398452262997
0.533849746649472
0.545402447846111
0.495208995793227
0.523123067751525
0.492544895629712
0.522489934779086
0.495695289009807
0.533001177887676
0.490441269222878
0.558596445659493
0.507823287955968
0.525863350305092
0.611440290376921
0.519194932836278
0.513638434209145
0.510616263566365
0.512403591744694
0.523662961885333
0.515552852013023
0.512358568571385
0.554691519602429
0.49894187362774
0.514847272538784
0.478020544590037
0.512058434286566
0.53324287057068
0.469104708204219
0.482983303295873
0.463302103874609
0.473842509267807
0.441161574501708
0.44918631623639
0.514263474641048
0.453584721310173
0.44612371519365
0.434762478185833
0.44008804227649
0.432028064137216
0.428865388013355
0.427605883081781
0.426422284132903
0.427554145837092
0.425857553778613
0.417563950111861
0.417023739872783
0.413952938326658
0.4241285104665
0.411646760310162
0.419227825720719
0.411957373976226
0.402797328407139
0.404291494676338
0.402253902123284
0.404438429927855
0.408158380150666
0.406919337233756
0.408320518814654
0.400929440658454
0.400965257814957
0.409172136607605
0.397463286424138
0.407070226028605
0.400688097008413
0.403533018348487
0.399836036143461
0.402499264894574
0.402973597961934
0.408811826037745
0.396476067205805
0.397280661497344
0.394775219141465
0.400059886924457
0.383952444838678
0.411043933559395
0.37043025621563
0.457456362073963
0.41714194051213
0.392576906578396
0.396950348701896
0.382751448683167
0.389103991422069
0.365472288889585
0.441041603698018
0.411705158695447
0.389856205873741
0.388193473131719
0.371386508952964
0.391072175861682
0.394200442097054
0.370986630462315
0.389287896288607
0.343403100666487
0.405138496725589
0.445568436524874
0.38687891441994
0.466703524562944
0.377785785834056
0.365014813016088
0.352326836108965
0.428388633281684
0.351658794070341
0.375433436259062
0.341663729917474
0.399914998253831
0.376766043449371
0.360361473223276
0.361986606413031
0.348377203894978
0.372145734258455
0.386618261512571
0.355900465741795
0.350178591109437
0.385895125771615
0.34769535923273
0.38957831070137
0.397412961551744
0.381150388965257
0.331228702567522
0.333115814825852
0.331967331985847
0.309499436692141
0.394652652966427
0.324796432576102
0.341325132258846
0.319233641121087
0.319738008779884
0.318494644265049
0.326917790840365
0.335338807882871
0.297486029321123
0.369823916841408
0.292229970861165
0.323686846819757
0.314957186643304
0.32925744194131
0.347286551363534
0.31073683863836
0.285327055926833
0.315004767532893
0.349872524860314
0.291577738164496
0.314375418539685
0.28372819333799
0.279443576614128
0.3057358106293
0.275940736468564
0.2934394052058
0.295553067845309
0.271789681401452
0.340509541903318
0.316173746041748
0.327950825355384
0.288191125665181
0.263847248886411
0.270379294707381
0.262666810058815
0.275324796156816
0.251066253535226
0.280890310279716
0.284596401150761
0.231746796899033
0.337273327684214
0.266709709747477
0.266086491791307
0.267751401668792
0.266609090847671
0.269793356691728
0.292468950872341
0.311342425436608
0.297382411453721
0.278964799988822
0.314951684773232
0.273120439746958
0.292897025980434
0.278516850337418
0.299016031098533
0.289887354141908
0.315143901648968
0.302556528111168
0.314601695857715
0.312948180319484
0.323401100706297
0.318689042354367
0.378613602716905
0.308562801598141
0.388254040500306
0.341508753317417
0.42045932737506
0.377137389714431
0.372762436619104
0.376307105933433
0.372771059398277
0.385104504156681
0.388656421885458
0.372991430822849
0.445036475432266
0.387343358345773
0.421088430659044
0.391030001754348
0.429688755880091
0.404240355087943
0.455518000211257
0.42458135583179
0.477448635432449
0.490241876335149
0.441429324528545
0.447439569454525
0.428154398965477
0.449514478375383
0.448757129916301
0.437694796434757
0.452390257872742
0.435064244827248
0.473929525933622
0.452499327272271
0.460163166378521
0.452143564144826
0.462366019923493
0.46194762922093
0.458720120344522
0.46320566420375
0.470141872444538
0.455662286493084
0.482405217273729
0.432845543416298
0.578735993552211
0.497727568962365
0.483573525937247
0.482772217678906
0.497135811612383
0.501093438931161
0.494690579037093
0.509839403417412
0.516820094697804
0.505346244888584
0.517107654195178
0.504645236501995
0.522259922369277
0.514088091052839
0.558589157767437
0.51908039495079
0.545429271253648
0.516138211477653
0.535687424656752
0.595118784161863
0.541795581189009
0.5753830437082
0.540112149670561
0.556327415258464
0.541385452163644
0.542761748812415
0.544598265363168
0.55341181789535
0.554732357607538
0.552352757436891
0.553929180261175
0.553882942313444
0.55688518655369
0.550081606757581
0.579513941914769
0.563893248386687
0.550086516542272
0.550366593616747
0.564007484648804
0.552485417408316
0.568807913746571
0.575244001456805
0.556301617297883
0.559110565409012
0.553056040923306
0.570187445666563
0.572668114284669
0.542317915998985
0.553214082344688
0.544572772871166
0.55001483519345
0.559202278715385
0.552776049269481
0.59093214374519
0.553079394149262
0.572479615170643
0.56351842911963
0.578039075956506
0.569686957402692
0.579021629410614
0.575610037561239
0.580358645306908
0.586019086666004
0.592621042575791
0.583436211195964
0.583517051075565
0.595006761856192
0.597186519547897
0.600990763759724
0.587672345481542
0.589443916193716
0.582742583263906
0.577640646683339
0.592501699843114
0.578965624425549
0.576688557598467
0.572945154561734
0.576049415465766
0.559166619001511
0.60021398222344
0.558385417984667
0.567489514021211
0.558650673227865
0.540981529067536
0.549992642636451
0.54066390471076
0.542446412013205
0.537275939103839
0.535416181970002
0.527518024263166
0.532515386517839
0.526474646049144
0.528927432669781
0.527298673600085
0.524045126434164
0.519594480217296
0.523171978388787
0.521175397067601
0.522265455496492
0.52634332161882
0.518526897175236
0.530298051423175
0.517697654705403
0.528658436477108
0.536465300618703
0.531750126357173
0.52523068422774
0.513651353398842
0.530357692648285
0.510325350274446
0.521206901910542
0.507312975503106
0.519393601264465
0.511622750283565
0.520890311815464
0.516155816821897
0.516286520505575
0.511326495400452
0.518697570664809
0.51172768625071
0.523495283637521
0.511178125692723
0.513691510865071
0.509057228065456
0.516528291481931
0.511981510692798
0.519168224722843
0.51714372772646
0.513173135070552
0.520579724660619
0.514631637969974
0.515268483007456
0.511509297227814
0.512469345893405
0.515310448105528
0.508669706736743
0.522230476726471
0.507232132122292
0.517697752822563
0.504785448314077
0.513789545085069
0.513992547905094
0.513258110485632
0.506152396040285
0.50889727934102
0.504622665197712
0.495234838588025
0.493479046602807
0.489941546045753
0.486801627184236
0.486650687297595
0.483427865942852
0.47944706801843
0.46990923004132
0.47018119760889
0.467493965695295
0.463691763428631
0.465986080293631
0.462017107757307
0.452479513155276
0.458545372011541
0.450151167403757
0.448907335521822
0.450488829561937
0.449890579338053
0.448547511544876
0.443361994306514
0.444955052218391
0.449011690363691
0.447996686332241
0.448302083908248
0.449765046784669
0.450171914810852
0.448652421010656
0.448721861584554
0.457006121812913
0.450489685206357
0.453381310812476
0.457742542532957
0.460163639782746
0.458033201669765
0.460548677167881
0.461127968453454
0.463041924332666
0.464919222297475
0.465661410468981
0.470552340592269
0.467170220928636
0.468371821371405
0.472597888479133
0.470601510975033
0.473757727195019
0.474254977741111
0.474896513111379
0.479363076967896
0.471566339206114
0.471509131987123
0.471613362500217
0.477641885177919
0.468969134545434
0.465352138103515
0.468071235420926
0.466262071657691
0.465349874552131
0.464967564201901
0.465717238782701
0.467423177774006
0.458378438212457
0.46213022475947
0.457827187433638
0.456060292418041
0.455773622067737
0.451414390322803
0.447796019114582
0.449697599209568
0.448268923424524
0.444326472370578
0.444604870251042
0.445465394894667
0.443132448372506
0.443791180461863
0.440635987665874
0.44190592846133
0.440449264384493
0.441216720605833
0.437017357308914
0.433453167886033
0.430725692324202
0.434989276227848
0.435110176632596
0.431854418277006
0.429219251603065
0.426386372172152
0.42301155785501
0.423190728287212
0.421014581044052
0.419043619506985
0.414749315643871
0.412435748820014
0.410615315442188
0.407345772888199
0.400433581993628
0.401416407894751
0.396206458526055
0.391751228569036
0.391474809912781
0.390276909876731
0.386380472028103
0.385156813972284
0.385041310497044
0.384877401542694
0.383004313341332
0.381727259206766
0.379988583369333
0.379356550927821
0.375002719845042
0.374803584547827
0.369509978239477
0.370350294886265
0.365818372080037
0.365380683950109
0.362111288770643
0.353455916625294
0.348352430575956
0.345703493453346
0.340909962490971
0.33847865010472
0.333732962456307
0.331058779466917
0.333832229754892
0.334051390277993
0.333354804944418
0.333237347084308
0.342830778613944
0.34625799960242
0.353312590545177
0.362291178203092
0.371337588071896
0.382100357193501
0.394288971797903
0.406658083898564
0.418280431878746
0.433493967286636
0.444462873991076
0.462994736164804
0.476753041525082
0.491189211833403
0.504321095990274
0.519807225413107
0.533012777795804
0.544967279350988
0.562393202204009
0.573911214739893
0.589919061695839
0.602048681220578
0.6139747434545
0.628028752895948
0.63630145519669
0.648943241811143
0.660779755777535
0.664534718656572
0.667487941968223
0.680619411127178
0.688793078427053
0.698176451293923
0.695820992213765
0.699187038195319
0.703230388161491
0.700532425477331
0.702965791862534
0.70929149242
0.709884478825319
0.712673633760559
0.717424866349335
0.717445743702036
0.712583517248139
0.717399896077585
0.718721818781766
0.715037498106809
0.717902556912435
0.715295831914787
0.724639064630866
0.725574516388283
0.732229566189846
0.735602854765369
0.744674077550706
0.749878512188453
0.746410052642656
0.753364889531501
0.765127497750093
0.772721676004797
0.77700561930323
0.794217961547346
0.803446061475175
0.805936675684461
0.815531926886964
0.831835232819796
0.8488070167703
0.860610773514483
0.863561385273199
0.86859611772439
0.888043542411633
0.889871822004894
0.900381122698255
0.887182908426028
0.899044758013599
0.915286602070839
0.914454783208163
0.903937062982307
0.8847464461874
0.893584518610138
0.899472950788885
0.889836296134295
0.874626572862061
0.875589290130249
0.873374055208276
0.88380764407558
0.889277271988647
0.898568660382385
0.915754707659409
0.91951042663271
0.930649827416678
0.941604746022839
0.947966278168709
0.963791184393513
0.984940687779945
0.998557169966539
1.01278256040196
1.01466970326908
1.0365836751106
1.05673895003779
1.06803666212543
1.05467819820663
1.08017958432105
1.1120071432642
1.13937978077685
1.11821113348845
1.13699669709549
1.16046429851005
1.18725235563284
1.20531281686652
1.22976786717417
1.23467698788349
1.26819849659733
1.2957216697407
1.32286860519647
1.34258601151329
1.35240362467806
1.35860081636575
1.38308673433972
1.4006124293868
1.3788903039801
1.42268542079227
1.46446437675148
1.4602437987879
1.44120200245291
1.44074957996228
1.4996788750082
1.51651973394448
1.46759094075571
1.43105561153318
1.50591881458972
1.54243201617503
1.4803841571442
1.48808132098898
1.46642747539426
1.46276798588704
1.44749936263668
1.43391939729072
1.47009703678756
1.47568457374509
1.51038023464525
1.48108329237802
1.49602087842097
1.51116019582126
1.50967690097025
1.54346467085975
1.58537147607701
1.57273806008272
1.5925011751874
1.541850337203
1.57041028741657
1.58367931200004
1.60393020670106
1.6447241434525
1.68871313305976
1.6417400447934
1.71559075967141
1.77031204846135
1.70421089363052
1.67431095303069
1.81842219718508
1.69809644844819
1.69416660473543
1.82525156345707
1.81068124616644
1.69741399816617
1.76337812814058
1.80513478371163
1.79990011196802
1.77930992185508
1.90182735954433
1.82071206387557
1.83312298558138
1.83954747125268
1.78252000150144
1.81593214361573
1.84108882913733
1.95572797195152
1.88920504100792
1.77164751793245
1.8754661679208
1.82750240775706
1.83751783016726
1.73251447318081
1.70486943513615
1.64331932106
1.627345813258
1.73874721891974
1.71062759930412
1.64853492463078
1.61801377350221
1.56850469173228
1.51166020329249
1.48570088972031
1.52054641697351
1.45572667041196
1.41580008422944
1.37046488904139
1.37179096101561
1.39192017535027
1.35500102170223
1.30212428827033
1.33511718358122
1.34129573642258
1.33179635522688
1.32601665963621
1.32935140706775
1.29117941085695
1.30100124262009
1.29674962259602
1.29775647306421
1.27764352381238
1.29612665986464
1.24555801649993
1.24028937961868
1.24129627781639
1.19832693197215
1.15371928272728
1.16999936072224
1.13840963115369
1.10432121771948
1.07557994973461
1.04900767727156
1.02095145376966
0.998125720862052
0.933472008049277
0.901369897994911
0.870654474164951
0.859217114384301
0.814458555663449
0.778802185290814
0.771578998666885
0.750457811648003
0.717307006474034
0.701835965785818
0.672885458154883
0.647913897811398
0.633628877032073
0.62522669265876
0.601826715977412
0.595720208294437
0.584911259845518
0.585984579033348
0.572828745993185
0.571218134372156
0.559744000886731
0.562076075848258
0.558767791651787
0.548828203810405
0.555195076897739
0.5554713896619
0.551548024523771
0.54865896617074
0.546763813693487
0.554899297054535
0.548460206657257
0.551181647732809
0.55567739476224
0.550458478226009
0.540082781582115
0.542707266571308
0.536997438905383
0.533927826199642
0.528260870132207
0.525132765102869
0.518269066281295
0.515791148248921
0.502675934844083
0.50877107911032
0.505832850740634
0.503436176469058
0.502591901264274
0.509486980713078
0.515731787856526
0.518783444010549
0.509506270884139
0.512547887417838
0.520229033666811
0.522566461178577
0.515004056920842
0.527652395253254
0.524288807752284
0.526730814629908
0.533112082266866
0.535398673001164
0.532270034262371
0.531003061085451
0.537088428114201
0.537265249730754
0.529588265246037
0.529626875840436
0.529506780794095
0.538369350399257
0.535448633127278
0.534931420934547
0.542295186808576
0.543311597493998
0.539095360786108
0.553110981399762
0.558725521311913
0.550236629327431
0.551417178072728
0.58294053994653
0.579953575947503
0.582629973803489
0.599352251091706
0.612187764006216
0.622491607504807
0.629166513415822
0.653694930018922
0.678201071203058
0.680302161219443
0.684246398015156
0.674385851560553
0.676317451495554
0.683370538350816
0.680284819473868
0.660756326569311
0.665554672491378
0.663206645126753
0.653139395476281
0.634986658582947
0.628318217281195
0.646585576972157
0.633449300904171
0.616763625146266
0.62202706897067
0.634777879532523
0.627805368247181
0.61896409456824
0.637312879943036
0.636353297617966
0.628282421270453
0.630406713832379
0.624637091981563
0.631937310630783
0.629783263683794
0.608920057511552
0.60281870241019
0.600042220809782
0.609117331018044
0.607878428891036
0.604159599351452
0.591850692180238
0.596574510108385
0.577584051426425
0.581484782670523
0.579983884305758
0.573213264934563
0.571342354475096
0.577135735578052
0.567476906484484
0.579728785444634
0.571275705448926
0.562393875818895
0.56106714643341
0.575172478970288
0.567238226898711
0.562976328985983
0.558119122238333
0.566324619205206
0.557532366522173
0.564526405994744
0.537528652588368
0.528099616658974
0.55153814533906
0.551876582915613
0.544508214417632
0.5344752985932
0.532089137348748
0.542597578053119
0.544603742072502
0.544887677673235
0.520827424914014
0.518085779509187
0.530200502768542
0.527337816994505
0.526680947766714
0.526116364666031
0.519195641381791
0.519285954473348
0.528228495941121
0.530376339945317
0.522981552814071
0.534381524712098
0.538345724245321
0.530914697813336
0.527830790735902
0.531141166081582
0.523997674913608
0.531115756675672
0.525720164740316
0.538294432197607
0.538848194919877
0.53277427010408
0.546686706080797
0.550077667277677
0.542586120737034
0.536589810222613
0.534554649884031
0.544315478719928
0.562290089009776
0.563782023678126
0.563414004828555
0.569610456075899
0.582041105933102
0.585964414561772
0.568437516541603
0.5656840025414
0.593495954613216
0.589998936194209
0.58914321685841
0.621132569415483
0.620179097625991
0.611840581155372
0.642807318016442
0.672288744771836
0.660907269427824
0.671178316658714
0.686509288836284
0.723722003185636
0.712708915030554
0.705242164233087
0.738008762941578
0.764533655846428
0.824653719946016
0.793552586752127
0.790073842388281
0.786273807372214
0.766820442226518
0.806602959569913
0.833612826287381
0.851172301880745
0.816080282545554
0.776720359909339
0.826147103751227
0.865434253658032
0.846587375756955
0.808451445067935
0.784105520687581
0.813272758872097
0.846053193889654
0.838709203206632
0.849122535219987
0.866448682855714
0.83462398962855
0.797115092207513
0.782811757237391
0.829495976713782
0.785240348028422
0.782658070509859
0.791185617154067
0.761102440815612
0.788122290974196
0.780793600559658
0.788898071959469
0.770147394046352
0.792791205253745
0.774141864428531
0.787240956387968
0.818868017786618
0.824137397608228
0.773513759669433
0.777074570869593
0.764690340097877
0.786699843946309
0.775467701796319
0.74399378841699
0.803966038521624
0.819101532312538
0.747648382585869
0.759583762919134
0.726624901583336
0.713200653049519
0.794774966626002
0.801029177072651
0.745885488198671
0.752843713616721
0.779917909012416
0.789444550032942
0.822208428961883
0.732286591196843
0.759820048181128
0.832227412168128
0.76629496187865
0.793704441476648
0.839875938349654
0.860001745226164
0.709007985710133
0.790937225429208
0.891455782649162
0.76522613318162
0.846856708669591
0.74136168362837
0.756473485380621
0.814687370605822
0.837594202816462
0.874619607760527
0.822843233937339
0.745035884331964
0.871174706115269
0.856350739327957
0.86900293045847
0.946906358667907
0.831156589917282
0.948473406868853
0.960314936521888
0.940397345591481
0.879866409977627
0.865410557430101
0.930044973019701
1.18943889213003
1.00962657355547
0.991000620989976
0.951118768253165
0.958987240110459
0.949000512301107
1.1247910009079
1.01431025593564
1.18884335371761
1.38439488336064
1.06288443619734
0.901605829906449
0.959416813405691
0.957225458150687
0.853853102751596
1.08765880655742
1.19888154785864
0.90334922590694
1.215155296291
1.17204483693564
1.14273745609812
1.01286918702272
1.00843107252597
0.802260481873432
0.992634188878471
0.959358899876571
0.806177792406636
0.875158352392265
1.02762808306161
1.28941907011149
1.48636564163211
1.4997794035462
1.23830840568858
0.780735624875963
0.686325221757103
0.650026002248052
0.939443708427056
1.2729176554752
2.30692488992346
0.864120284101969
2.10378658139354
5
1.17691204074019
5
1.00214728554578
1.00650324201774
1.40723812551033
1.29160766826758
2.17152004604913
1.45984669933612
1.71497945261497
5
1.76121177702466
1.06200478512275
1.65323471624121
5
5
1.36367122545649
1.52077210710193
5
0.871458655072168
0.69438240022269
1.20802001782039
