3596
4000.36533379555
650.420452594757
1
2
2
0.0953488048399617
0.0971672606050962
0.0951183729536525
0.0955582018024122
0.0905601735525031
0.0956479629365401
0.0930106014063642
0.0920411241515693
0.0891312627957273
0.0894111430604783
0.0983938475570883
0.101743772785761
0.0971230850278466
0.0877280564586001
0.0924259654445075
0.0881041158822209
0.0802440689149136
0.0893566296305915
0.0936257267172612
0.0894600055808325
0.0874994323885043
0.0874153309591223
0.091753670498272
0.0874411675955724
0.0915110120582453
0.0959800734263973
0.0900483106546201
0.0936033051802526
0.0924416676179392
0.0889696530845414
0.0935451033781026
0.0934648821179116
0.0918848134008789
0.0974766289305523
0.0879807822089036
0.091925136966823
0.0986516402945074
0.0930830048499482
0.0884098137269504
0.0942557550498019
0.099153956805757
0.096298460452924
0.0983817059951633
0.0943278975718605
0.0926947113532858
0.0896300122009856
0.0938323078303231
0.0956292824110543
0.0906768028606749
0.0932678087084058
0.0936585124886554
0.085362822111845
0.0932955414419202
0.096828289633112
0.0953299262879348
0.107914789909833
0.104022950560514
0.0931268374849313
0.0928068509505594
0.0912528001482569
0.107949892140018
0.104271907982935
0.0911301051851305
0.0862004691028262
0.0849512347706229
0.0919626169497118
0.0871380976099632
0.0860933039218447
0.0865174064406679
0.0909159941143547
0.0884408310649423
0.104873845757885
0.104155430487561
0.0859544703358906
0.0986506710720321
0.0919155849689099
0.0848942269488015
0.0841614650390678
0.084925336439895
0.0991511399183674
0.103472733740984
0.0921352431956951
0.0917838713928587
0.0807100818755995
0.085192567224294
0.0991928127066092
0.0791719100930116
0.0880182799830622
0.104308716820157
0.0898145137111217
0.0943918787639062
0.0913407264547666
0.0848197425809179
0.0799170424652881
0.0839407437385254
0.0878602796381939
0.0821216720825146
0.0855641943265989
0.0852705821630932
0.0977779063871
0.0798482959796522
0.103442539771338
0.117281723290309
0.0871306351503394
0.131478227826866
0.101136609851443
0.0816826874127759
0.112784088535478
0.111884089067625
0.0894446490089813
0.0780442631790577
0.0766751984679532
0.0893577720992507
0.0917521019824514
0.0776835564398302
0.102668369183983
0.11292247990307
0.0815198129034737
0.0876478888985247
0.08800790708706
0.0591138256568326
0.106663903050007
0.117320851257599
0.0864136605457957
0.0939970931493735
0.079760312451601
0.0715695758546672
0.112102919047277
0.113522916775261
0.0884277825123843
0.0786573356279732
0.0831729900338498
0.0807548168044446
0.0948042297493828
0.127885345753561
0.0883719913784848
0.0725060833810298
0.069447399289825
0.10584145081633
0.125421504572538
0.0899787678858919
0.0857520246422214
0.0726252281627978
0.0791057145254016
0.116476644859905
0.095520929493783
0.0762903317297394
0.101039848880792
0.0977985298171692
0.0873391501589597
0.0799175190909119
0.0776042134784871
0.100881651015489
0.0842802105629918
0.0517163438200046
0.140335554664776
0.136741482208807
0.108763160861171
0.111436646297998
0.0920821903822951
0.0884629314203407
0.0922502656878497
0.0790819856873711
0.0702386234339122
0.0832231159556838
0.0785670869571988
0.0906236564746856
0.0968349806332208
0.0786071740275348
0.0846903820153935
0.112853543349376
0.0900481833904576
0.0850858376434668
0.149280104125806
0.0959833684919536
0.0689589173454492
0.117554961924383
0.100232816874799
0.0681910786479276
0.08891265398886
0.103218704205005
0.0925595975449919
0.0821777488616198
0.0706049022663398
0.0924918058729057
0.100619451302691
0.0883258977767596
0.0868102091639446
0.0798102060325874
0.0659478898138447
0.0839931129367656
0.138136395920127
0.114168321867677
0.0964643645653318
0.0830655187885819
0.0622763647917938
0.105507084734744
0.116484404709781
0.0913364276841838
0.0810581391017215
0.0783640980418309
0.0779377524898313
0.0773216577114788
0.0881062889649194
0.0651695916063093
0.0553479139948949
0.115439513451939
0.105265566401833
0.0821144808308551
0.0777429934426175
0.0784419671054117
0.0715463007488299
0.133446429250298
0.109574413400231
0.0893360822871781
0.0773470400637525
0.0711327547244452
0.099950479603019
0.095843024172925
0.0817011602876418
0.0868216651627664
0.0816320209950047
0.0819541275761349
0.0803002795934516
0.0802091061304781
0.0852401482024914
0.0893039000429872
0.0827453181600722
0.0843619840272216
0.0900416272043656
0.0948806332875043
0.0846591302285585
0.0811849825100503
0.083219593600876
0.0719068532849174
0.0903516909606967
0.102645170829865
0.0916334565539428
0.0861386085375534
0.0873738062276497
0.0750924506033494
0.0784595584345594
0.0808759897571397
0.0874540396465203
0.0709085581426376
0.0834502054734077
0.118598840542366
0.0951649563389265
0.086712314641121
0.0760329198348225
0.103418979010195
0.0991550071872999
0.0840611996167588
0.0809394494444862
0.0877460522747508
0.0677930642064822
0.0755452617332888
0.107812227017844
0.102239271032216
0.0792740150776584
0.0989436702345999
0.0885822879582893
0.0940037557955973
0.0729606771366935
0.0965727995710709
0.148723810357879
0.0960084627763329
0.0939021247646905
0.143245186749337
0.0979559719750329
0.100784831045656
0.0731805640640775
0.0599680907743928
0.173097521462993
0.144058257457046
0.0906906305718876
0.0972876687511837
0.102369881550863
0.0856793492745642
0.0851890558606452
0.0878107145700077
0.0979483069690073
0.10563761218972
0.151067803543904
0.125800611482068
0.0738947749796401
0.118913516187124
0.114671229072282
0.0928204142895833
0.090070422408988
0.0933599714515434
0.0858616694868918
0.109985324115167
0.100593041633176
0.117183666590881
0.0864182079619666
0.0937354287744479
0.114564386618834
0.102935595398581
0.0850119471969981
0.113168012279563
0.0929521896279723
0.0914061034865781
0.0934526181381226
0.104404633729286
0.101507667062685
0.0798817716337221
0.0896648715771723
0.141708050944295
0.104351474363609
0.109384551903749
0.117208689944851
0.104863808137751
0.0868709279343947
0.0947885258219438
0.0878613594111513
0.100292358844049
0.0858960743942992
0.0987098970452544
0.124260204838112
0.105719560837387
0.0976069731783393
0.0968890774751091
0.093352640090112
0.101429365754482
0.0967062354842388
0.0978940489743587
0.101332033273203
0.10358828604676
0.0920733182062121
0.125036777458717
0.120887219205585
0.101763932653384
0.134542476015224
0.129238899256629
0.107706839338245
0.10611788000601
0.105267681552093
0.111456938698947
0.103692254155587
0.108459718520181
0.109002957572402
0.108398444543424
0.124831575441073
0.117802179030808
0.102894256435363
0.115485217008492
0.1672577136135
0.168868688942745
0.139951218280247
0.122048665610272
0.0919280762932291
0.155470168118585
0.137537651435694
0.160250576262539
0.145824392295629
0.138595280458193
0.129838754271184
0.133193833062324
0.137710130159716
0.141516140258139
0.135443345522327
0.141305472407503
0.138081846870988
0.142208375764416
0.149658067481728
0.130261239334115
0.145871428258825
0.179518911274062
0.150354626895343
0.160066107264268
0.151712159506753
0.139505773963411
0.182640827432153
0.18346448618682
0.213680462263024
0.187893799294168
0.19820049682906
0.20609104583988
0.186145584283635
0.179275775742187
0.171906371216182
0.190103560053358
0.192213003859636
0.182202323376678
0.188301129671496
0.199151862683541
0.19130686838174
0.197962713649163
0.204888552294492
0.196365898678282
0.20230877680922
0.22666323345063
0.216954842127639
0.22162718289779
0.206982757520875
0.217616112441894
0.254356801983824
0.270133029159673
0.237828619268892
0.250191628146134
0.227794052313503
0.238145001851671
0.241667899580464
0.263168395653693
0.246069275480479
0.245394127507456
0.28255587815357
0.275108282491422
0.286311405956228
0.27750331321357
0.260091469554343
0.298260541068165
0.277704782744387
0.294652636244266
0.295402861853518
0.301646020961673
0.280595145869118
0.328608431924746
0.294681623455519
0.31184168755727
0.303758482792037
0.314956842453098
0.304707576936641
0.31765714916412
0.317518317627102
0.323920333147469
0.325118136298399
0.343061317003774
0.3288421728799
0.344403422102928
0.342667271775436
0.35261014143025
0.368772869750691
0.358555622980071
0.367875821497354
0.381285480829329
0.35765179993801
0.370400547019347
0.339236966762793
0.411183281669564
0.395624904765874
0.419095142978607
0.405222269697212
0.393461472243842
0.382775045752483
0.409739800685213
0.402757644028241
0.411182029711534
0.401461745946432
0.447315174261531
0.406688388680267
0.42330196251163
0.435088493492806
0.440844300069911
0.427842700215637
0.468172813545214
0.441729247145037
0.472828211749707
0.452703710421813
0.465537951133636
0.449297908442353
0.525044772025544
0.496811861079527
0.534919690989116
0.521836443847863
0.506863464208743
0.490371857435331
0.505755686775455
0.497334935839024
0.521786760842347
0.522220334191805
0.538352281623641
0.533022590051554
0.545749125303693
0.533532261599036
0.531445924739004
0.511327476468818
0.562903304869321
0.574098352467998
0.570953553955508
0.559420426897074
0.569275594386698
0.563490985014068
0.578892777065292
0.577408780889556
0.608532128896963
0.58865137425501
0.614625848297257
0.598241324371835
0.619527095950206
0.57565506248002
0.597846824067992
0.648645128552563
0.608026102990492
0.616922757757714
0.664243718682202
0.647877038231915
0.645392788070474
0.644026509560609
0.661818692044423
0.650376170321562
0.714855707594682
0.666626301297461
0.679726638467914
0.667164918213871
0.725789736107268
0.672706324300952
0.709224411576825
0.65870520872425
0.711490746005609
0.726524026462734
0.738420092423176
0.688421094871869
0.744991046421861
0.716768948735079
0.749279350116811
0.745413871902514
0.764366553105168
0.726936973877544
0.7758433454392
0.739330090853186
0.811039771490928
0.796092024270225
0.806315095507112
0.78055482211523
0.822628407253532
0.82564342391111
0.838313336868126
0.754797555454618
0.809524442981073
0.796645088241878
0.808110199741464
0.811507257170783
0.849414489081015
0.830009983804729
0.878700224559583
0.836504689367811
0.88872042184656
0.82547797010446
0.900333621915558
0.866464111854373
0.904198551540093
0.824737226373637
0.846960055931256
0.902178031621491
0.947304048709262
0.892503434270193
1.00060122605597
0.925785230520704
0.883935479859055
0.880916105884352
0.967437425117152
0.889179860670434
0.987548503498808
0.882119317339739
1.00604313569605
0.957137231173491
1.03598425567569
1.00373369089173
1.07364299698196
0.936833804010663
1.00582822345124
0.945500237737219
1.04078469396387
0.952020477245891
1.03369744024304
0.931625105922193
1.00133770583307
0.996398225053325
1.07700829366784
0.967023304661493
0.996427625657107
1.01426560555794
1.11205603215326
1.02585935196855
1.07971072057488
1.09695657021865
1.11429145519573
0.985433754038956
1.1987677642694
1.08763213883514
1.20596230932065
1.09188568575531
1.16359188306956
1.05704962516843
1.11960290179008
1.09207653286926
1.141774933492
1.09667784145086
1.17286407705378
1.0781781900417
1.18739630483245
1.15243351406509
1.16989633717548
1.16354740110807
1.30319882923101
1.05885889612879
1.14348418027384
1.13293178503766
1.26986663450973
1.13752120133706
1.08959258499232
1.18514512675584
1.23711975882551
1.0908510651824
1.28978220620723
1.12541394860644
1.20564595938465
1.09981701883335
1.29838402966579
1.18457859075247
1.2126557804293
1.10488890427303
1.48375366214754
1.17098629922226
1.19732985388263
1.20038244676601
1.31279029308267
1.17781060442466
1.40785035234683
1.17985704999627
1.37107122489782
1.27317367823827
1.37486704929395
1.28808976656116
1.28297042490776
1.14840676088752
1.37741292567928
1.23692662713489
1.3191346254763
1.20946233364197
1.25773330719541
1.21013931820364
1.364848055621
1.26486950190657
1.32267338809963
1.26565260762785
1.36783680976538
1.28779087529564
1.32063934041228
1.28340105349263
1.38553324177186
1.27898592630762
1.52044052791658
1.22620708277114
1.48223223686113
1.23735894271182
1.44853247152994
1.31498374245464
1.33754602788979
1.28817343042369
1.4730951847842
1.33200929770332
1.68298196724037
1.25154085719293
1.50305717756551
1.46364721426976
1.49453550934131
1.42519639136537
1.73995153157638
1.30296137125312
1.45404070439602
1.37173322339826
1.42603816346885
1.37840094745891
1.78225013013163
1.27752224934261
1.42239654408464
1.39496621855672
1.4555893744769
1.54473898504672
1.48004478996161
1.34947665402217
1.43427422457408
1.34633284443362
1.42031092428764
1.38279764954513
1.50786088411332
1.51131308612085
1.62306225422555
1.38893245706904
1.4859894490885
1.44967020652855
1.45780389845351
1.67261587471125
1.82474563123863
1.46569704600546
1.50898007036806
1.36232349522552
1.6187692494175
1.3549013181123
1.5997905022706
1.41554294991959
1.69616960426979
1.53094795830088
1.62327510298006
1.3605687161846
1.49456335857345
1.31699884145544
1.47736304239249
1.4627541443801
1.59657841003652
1.49651043289112
1.52791449976007
1.47122956912835
1.54534410265115
1.36326368516014
1.63656126053474
1.38800307693658
1.59824618862231
1.41318774206189
1.85495633993802
1.39398630158314
1.64888067567708
1.3846641498714
1.50321156699782
1.57454343184539
1.87858917154995
1.50839436132189
1.84257837882948
1.45896518135612
1.67938611174222
1.39951942037261
1.69274693893832
1.4505746024195
1.54775500378855
1.37260106237153
1.67438746389036
1.49307686087619
1.71692102551299
1.47475932200881
1.60066208788038
1.51165971461565
1.8728060382465
1.64608739285965
1.6822433574171
1.56996125457826
1.90956927181506
1.31088803775624
1.54276311794042
1.39134055176113
1.56632634085548
1.42985041496429
1.67404464475795
1.40761826406397
1.62454641446826
1.51212939144186
1.84000781743648
1.59817889484009
1.74822973198452
1.40994573800552
1.89196877819318
1.53366376334015
1.70356642858133
1.51353868727462
1.66538031716142
1.47116266156167
1.65213542593031
1.53520225412576
1.8865141455116
1.57213966480604
1.5989259902311
1.56753950689324
1.6190075501823
1.57270713504593
1.55092326124157
1.55503510933637
1.62429462309678
1.54171682489942
1.6928472488488
1.52136399661576
1.64821825962382
1.6129978954303
1.66735671260168
1.65193022257294
1.94078923891551
1.4461705902359
1.53714492981894
1.50019531594206
1.58454565708117
1.51258130194121
1.5074017602723
1.52114727932802
1.63527129930036
1.49091613618933
1.5783774950989
1.65013925486821
1.62776896139846
1.55608808079273
1.80599079160638
1.41622675710229
1.65773274978592
1.44868623959305
1.80141592145969
1.68517735504123
1.81165932154498
1.57890074123539
1.53105274355809
1.52899730562522
1.58554009079041
1.46383835211016
1.63245994779256
1.49987768938485
1.66972776548622
1.49720783696097
1.65315387193782
1.44726815400441
1.56755598859939
1.3476275042743
1.64069665516375
1.4978454151805
1.66600603508054
1.57955798647991
1.63063097852327
1.62053898983812
1.66358124021647
1.46985649792563
1.50205290495075
1.4185673031039
1.66835133976791
1.45075135780858
1.51346442892848
1.53056106085812
1.54250334095482
1.36371924982911
1.53674755348415
1.42937530606881
1.45705592221162
1.43720720488054
1.52390028238809
1.4634580930165
1.68985782291817
1.45617528330644
1.41585109111713
1.46742322875123
1.42848287625794
1.34803763216886
1.48198320409488
1.37589559516391
1.44659227385453
1.39187723805766
1.40801743466737
1.3860298807562
1.44765658603831
1.43464604680339
1.52161772871258
1.39418537491195
1.4940659369998
1.4056138361963
1.42452171431273
1.36507549513422
1.44118342101688
1.28974631095072
1.55977093214553
1.45543710967906
1.50096273855854
1.32366244739748
1.51558947666167
1.35564834704505
1.38225538776579
1.33746330804306
1.39695060775237
1.32774177003037
1.29964163979747
1.43041572313559
1.35949751418573
1.35260858708284
1.42055914082565
1.31063068489385
1.3703006770714
1.30730190095642
1.29957988627575
1.30038246787695
1.34631774157394
1.2888409012661
1.30325108904929
1.24938022151566
1.32225129031863
1.31001348272926
1.25833419011411
1.22459509464153
1.39195482610083
1.19484025386005
1.33595016411528
1.22407665349176
1.3978667184542
1.20520636505626
1.32207032762277
1.21548329808281
1.23871745440613
1.27541992014298
1.25309296487289
1.2153386210163
1.24641698144395
1.17094516920235
1.28886890928884
1.21151137203419
1.18548073536617
1.21751042169943
1.2564687695963
1.12247168156166
1.24385469617544
1.12942944533802
1.2413104222732
1.12551481989027
1.18948352500534
1.09786647270896
1.24498610521629
1.13658557292833
1.19405140293264
1.11822003713887
1.12751023763016
1.12186731827757
1.13653174909439
1.10633089426935
1.13202847263065
1.12824452017422
1.12142974056797
1.06469477467606
1.11612039177123
1.02842148470839
1.06428887937504
1.07167277199824
1.09579015725386
1.05599915863952
1.07030574563391
1.04430584547858
1.06738542637092
1.04215138620521
1.05796335980702
0.996548200311874
1.07950634547552
1.00375027613596
1.03141669873119
0.967952897582973
1.03225735770489
1.01358327778498
1.05492847790217
0.982963711895767
0.998336158494209
0.986285328638758
1.02254616336071
0.995773066974411
1.01910821694639
0.949298677696876
0.961189156953533
0.94879579010428
0.971925184914447
0.916605299347719
0.979005893643683
0.971553232187799
0.960679584152376
0.937380869292212
0.941590404119323
0.88261819770598
0.922578508343736
0.905398651141327
0.929360464982755
0.953138029532099
0.949445123401389
0.897554849423849
0.945061572911737
0.911035695342033
0.904260887438508
0.861076339189479
0.885225033030392
0.88028336951646
0.878485768196698
0.848463304272133
0.868070529028117
0.855526221658175
0.895168705311559
0.854498117656435
0.846861047385337
0.833120585244622
0.855847728226486
0.820882026741172
0.848120814686261
0.854533959334299
0.820515685122569
0.801726016250529
0.809962471941137
0.802096898306554
0.847529237943537
0.79042336227138
0.822053688322105
0.797159119318469
0.807344920334962
0.778849940329319
0.835543640643467
0.76697399945397
0.798049654547579
0.770182949905987
0.790532540234956
0.766343795326774
0.777739006583624
0.762652489240644
0.779422901287722
0.760652638022996
0.773428187328304
0.77070637750135
0.752534041472794
0.741783747176099
0.750593309593736
0.739667896373907
0.723983577694968
0.721892796033474
0.734470370002838
0.717222448653455
0.726422181962875
0.715082407503925
0.718189832366244
0.693825213814047
0.700443520890529
0.697378232752262
0.694036948916439
0.706579815141847
0.708435485268383
0.704807928221257
0.683893957515991
0.673238794212274
0.680272930185631
0.666257968498549
0.67552691907075
0.665269997696496
0.671036610711031
0.663351957934336
0.66791314358843
0.640069799328995
0.662462557372716
0.651347260893256
0.640760316973315
0.617721527732473
0.651955197770768
0.624362622022445
0.638212918251008
0.620160964037786
0.632856894463014
0.616985421401937
0.627911251922185
0.618002347298754
0.61486154019337
0.592876647899885
0.613246235202842
0.597846840320665
0.602655395548957
0.603162245592542
0.593221807026655
0.595122415678516
0.589531075348494
0.578460212202871
0.583826785958439
0.582313759599013
0.5801588621241
0.57208568524349
0.584014816401897
0.572139227070697
0.574634883163264
0.582602343098837
0.566240498045368
0.571174205520184
0.568310433840123
0.555098407155299
0.570345970542636
0.556210573698704
0.561458134680614
0.556787447468199
0.559075497709182
0.548653889151172
0.547451456288979
0.548470441878119
0.553924869581072
0.544482744786289
0.545077649904923
0.543465847307745
0.544303788414534
0.552795010907069
0.54249565605196
0.539307038530397
0.53993226577794
0.529546763264647
0.543334142807153
0.539717341471763
0.547400939067157
0.545162341355364
0.550375388415904
0.548120910408292
0.551111622954776
0.538802714510486
0.547512857332727
0.546351024400238
0.558534429858767
0.550794051974011
0.56170904298855
0.551379373384303
0.562279810241547
0.543891899306067
0.567267734418212
0.556571044669387
0.567517883797875
0.562036801000901
0.573833683187018
0.567025627356439
0.580175060652831
0.567385146527836
0.571592470304473
0.572096572927389
0.572724402419132
0.567684276627056
0.591920910087148
0.580874234384736
0.582285292096057
0.59087288626524
0.596161909253298
0.573368770939675
0.60287821685835
0.600534614553136
0.599522478115517
0.589830112801423
0.602550182994325
0.615643181077645
0.605217268500032
0.60449121010719
0.62320809396183
0.601919394827652
0.626886276829023
0.625380366984989
0.634771878662842
0.626431590083367
0.643403071249558
0.629153554041736
0.647435633001913
0.641494005674506
0.655187944292972
0.645253664816065
0.642878612653886
0.655746736590742
0.65756987573753
0.658296910968596
0.675765441806323
0.657596767804689
0.666834206049426
0.663539311227834
0.687693453558569
0.672658039770609
0.697556426288876
0.681548199701293
0.686481972733675
0.68384976205586
0.694321352056133
0.696735320022262
0.688949952608589
0.685427303289462
0.702348935885093
0.68890692282779
0.691191825320594
0.676894941816661
0.705278243207883
0.680935526897971
0.68736171379471
0.673471325160708
0.678000502970809
0.685524830538229
0.675668289755021
0.6810083359496
0.680148356523898
0.682436402844374
0.695641307803328
0.674603668920321
0.6655610279585
0.669987947833042
0.697523726489467
0.680613318282013
0.669431032724159
0.664021777772864
0.676240375849322
0.663566075805574
0.670666375178064
0.669264982761513
0.689197476365702
0.680321036716518
0.682730412380038
0.672343000749673
0.682680649841843
0.674620888929802
0.674531597762411
0.668850254754914
0.677851457972758
0.671288493465383
0.680419203987078
0.678055109857924
0.680204409503229
0.682506157505218
0.684739513414961
0.666748586376556
0.674054404736898
0.676698559699419
0.679368043331324
0.66074296196551
0.684730449809819
0.657146303622784
0.677924776005216
0.670917577697525
0.672547350536133
0.661163313235632
0.669948665920926
0.663662260916547
0.663355491497286
0.646102204792058
0.655378425926089
0.650203615396138
0.65648821093959
0.634913759583574
0.642413069374508
0.638953680953348
0.644146820836758
0.626793112878664
0.639674797763869
0.601089752995242
0.614385789213237
0.616133529132399
0.621758711822291
0.600548407867822
0.617626464570214
0.6059376549039
0.603860498038374
0.590340399850434
0.589977674937555
0.582746592199691
0.588425006124062
0.573416254175105
0.561642885010011
0.55114741245384
0.561180933136316
0.557329858188551
0.5587331710694
0.553540951718434
0.558822254678879
0.540974483479357
0.545807409551441
0.535180434501094
0.52471316443037
0.536145909520497
0.529287906888696
0.523353705180683
0.526653810264546
0.519088009027986
0.523907173189126
0.512572007434605
0.518155082141212
0.502642640401275
0.504278894012812
0.496767168378365
0.502595978076332
0.498489072134633
0.498006771227071
0.492480169443547
0.486599806375126
0.487946823861366
0.482400556705499
0.479545437935972
0.49204022573925
0.471278151030181
0.475852175435655
0.467098232731137
0.477242529625414
0.4669903072301
0.466141548838345
0.461254096044339
0.462896365212373
0.465459495432209
0.467896085959571
0.46236553206698
0.458716374731021
0.4489345931347
0.461207189181006
0.446010002762108
0.449750242647143
0.449625570072712
0.446409228998925
0.449809637647106
0.441929448238626
0.439811929381203
0.440748801360438
0.430642792037103
0.441662354361107
0.437157387403777
0.434482846545927
0.429798866425807
0.427376786240303
0.424023501044229
0.422900607704017
0.427535084746387
0.429008790101141
0.4203534251911
0.428594281025677
0.412639654004111
0.418473935084631
0.416024961858822
0.422592493715309
0.417138584571647
0.420483845826909
0.418224449038194
0.411352504197168
0.408507970830469
0.419377541070752
0.405067330760673
0.404502347977663
0.4105906507422
0.409357736414158
0.400039502633589
0.404035850780343
0.407819067691803
0.404589274748011
0.399920073803101
0.40286851352038
0.394227020684099
0.404274069754759
0.396390510966827
0.395735985530629
0.395301457056295
0.395459808215165
0.394805573813649
0.394084745816735
0.38891201232315
0.393007260252741
0.389418324096525
0.392551503990306
0.390683882322648
0.387056176074327
0.384732632923419
0.38589613873202
0.386590124800067
0.38733401191635
0.388666989848139
0.389276195332153
0.37629339557091
0.379336330635738
0.382015133847569
0.380750204872748
0.376115386947552
0.380068740819663
0.385837507112124
0.383114020034458
0.379917185386065
0.376800917342473
0.370085337384946
0.375352911182757
0.375558303860419
0.375046591277468
0.376517450136932
0.369711700935919
0.36966466532889
0.375511496763245
0.37384606472585
0.368027308519886
0.372464115562891
0.367667870699999
0.365281635308801
0.372987481667594
0.372109787228796
0.370301459891417
0.364353517387932
0.368569074328555
0.363901203281243
0.364537605420348
0.360620713028098
0.363417995600128
0.366809659232403
0.367108624396409
0.365173335244422
0.36205757297469
0.360106336731457
0.364663944017476
0.352698710917845
0.362056876298446
0.355726352616252
0.358922505403137
0.361429572711757
0.360219966586489
0.363132194853028
0.356282568641905
0.352387105066859
0.356830971821438
0.357573702996773
0.356612666279297
0.355511049907716
0.347706859744876
0.34919008556134
0.356428437696762
0.349831482147713
0.352437450724066
0.348490321047225
0.349444083991182
0.33983969374195
0.345475405846383
0.347260341563951
0.344530302889097
0.344532445190879
0.340704851969881
0.339974895138692
0.339332849942739
0.338643730011653
0.341397069256372
0.33983223102893
0.336281900469659
0.338323126164923
0.338703420205103
0.33580165642042
0.339094632164745
0.336156654604339
0.334827556119592
0.337438072248915
0.335293001410225
0.329550716561658
0.331318019777869
0.327807120522118
0.330487807336607
0.331213912543098
0.328078306539364
0.328097168833883
0.326042283645636
0.327088170965209
0.33062278524676
0.320294186827448
0.318872131083305
0.319443356411244
0.322517261397541
0.3222657622002
0.321132734278096
0.317842364200212
0.31557729730509
0.318183593397103
0.319647647544866
0.313741859369584
0.318770778446593
0.314277109961705
0.313414069820577
0.313284129144088
0.310938563460876
0.310472376011429
0.308468995713253
0.308792511035578
0.306275060325616
0.305024492740012
0.308340032530198
0.300824717073828
0.302597945034347
0.310238490523416
0.302023024060514
0.30201299564379
0.299579281399761
0.301796729364826
0.294135559420718
0.29028197095206
0.296072213325518
0.292578174811039
0.292409523793833
0.291189017691671
0.292316779081095
0.291575989106055
0.286295024013784
0.288607364965489
0.289384028890673
0.286839741096552
0.284143735748128
0.283904579800245
0.28898568393482
0.286428881785474
0.28449341436766
0.280980553047493
0.277790964526706
0.282069466801338
0.279600953107903
0.281670901049073
0.280829717664309
0.281333699948683
0.283444356818343
0.277006423756847
0.281547602760528
0.278672480266952
0.274375607200322
0.279930286530463
0.273818841231189
0.269485873176464
0.268702522657265
0.269420858035954
0.267674202998406
0.267613250225415
0.267776792242069
0.271530405796518
0.267208281112726
0.26249065361183
0.268967535982495
0.270323490657983
0.267412597787738
0.265702568696691
0.267727672252246
0.262399348137141
0.25918973527613
0.261212440707574
0.259739929939717
0.261419648831088
0.261482766438269
0.264265294321302
0.262344885553613
0.260837146862109
0.256475354372743
0.260134067158167
0.258336829381541
0.253003738928422
0.254192873151901
0.258559451608355
0.251559284340912
0.253998977436372
0.256624316805414
0.252955900498316
0.252894461449926
0.252163850746159
0.24978275917882
0.248409005302819
0.246291081292199
0.247714933193462
0.248849385092191
0.249152951249283
0.247567707565318
0.248779902788102
0.252577585179314
0.247387178888594
0.242697787279059
0.249816789071717
0.242984202610883
0.24222643281794
0.246588526649312
0.246344494355453
0.250880101704032
0.246488527751549
0.245690779916624
0.245741646039343
0.242279099679298
0.241462233279542
0.240157530806803
0.241092768551848
0.244164318827437
0.238747278737486
0.239482277144746
0.243120624143399
0.243405891029968
0.241478192353221
0.242943905390617
0.24471782634459
0.23945126749009
0.243568822378244
0.237392907868036
0.234352347590934
0.237652448309191
0.237658913385261
0.237807492529181
0.239497695619481
0.233743017125042
0.237438408836934
0.237011966227446
0.238246628147843
0.231909938791413
0.233885920468873
0.235306752661138
0.235408785992953
0.232970488958624
0.235260300980664
0.235096691495625
0.234109580160563
0.231527599998015
0.232271521251876
0.233229376102258
0.230917471003599
0.228464376566216
0.231995585757648
0.228500023434799
0.228863783392225
0.228355961661761
0.228589135903055
0.226430897384256
0.230589341925472
0.227493552025869
0.22618918170773
0.225054916118467
0.226422051235465
0.225504187350641
0.22368718492538
0.22143866742018
0.223853852118408
0.223797277310313
0.225832226333763
0.224084755369689
0.224074568451978
0.222684817974339
0.22602187903907
0.224163910952467
0.223544111346726
0.223114584494256
0.221578944844009
0.220378995948994
0.218884442380584
0.217946859288201
0.218931852425551
0.219769643997424
0.224739708201021
0.219048363199058
0.219165763972841
0.216705818502217
0.217893027583633
0.217893214771657
0.220223995646662
0.217083269630525
0.222188122205566
0.217084283397532
0.213158675776595
0.216133550933155
0.219513699800114
0.220168528477083
0.216827957433268
0.212811944809468
0.217293801300083
0.213181696293745
0.213588443310681
0.210712398581314
0.212422222189041
0.211535655502468
0.214607707680521
0.213628144044344
0.211785672828823
0.206829587886576
0.208519717879954
0.207185951500855
0.208918138280754
0.205081934184671
0.206225391082293
0.205528481175278
0.207519550993921
0.205679389250023
0.207702031991541
0.206848734127937
0.204873021524513
0.202393542609013
0.203312784349234
0.198165343366823
0.199753703996288
0.202679778646338
0.204125924788815
0.198826913934366
0.197833257091038
0.195069856564717
0.198936281068427
0.198488732553306
0.198620144784154
0.194408412367516
0.195781833952007
0.195134926989321
0.194670168677169
0.19574717708097
0.197378980477916
0.191819166242718
0.194668316556244
0.190729767161124
0.193783426840693
0.195504433829939
0.192442945891084
0.18937136523723
0.191722174660026
0.192024807967831
0.192508345460517
0.18896743124918
0.19177140831137
0.189007968851762
0.190566459382393
0.187422269123842
0.189993247062838
0.185019062845904
0.18692705358861
0.184395409467787
0.187219382241434
0.186800584248761
0.186672635417476
0.182534671819769
0.185000060165285
0.183265193356257
0.185685139215211
0.183271898883794
0.184828865325522
0.18129759224541
0.185533398812131
0.180635767614774
0.180294496044947
0.178804893990109
0.17895485372045
0.178984106385839
0.184907406271386
0.176890812599312
0.178088201923915
0.177927530334481
0.177807508712871
0.171903585535262
0.177859128645403
0.178281594576384
0.175381467305327
0.170616499592696
0.176592442042916
0.172835064036473
0.175678797215112
0.17264131492011
0.172492345020059
0.170760307589748
0.175253469447205
0.169123807130959
0.172201515447654
0.168936828400541
0.169717220965932
0.170991276278081
0.17217827471822
0.170095021785716
0.170386585961904
0.167902027930397
0.170334620826175
0.170636135627036
0.172093054055522
0.164641304332188
0.17196334606956
0.170112214773215
0.170714679261124
0.16757470577346
0.172590378037079
0.168222853509944
0.170154725563691
0.16551880853348
0.167639919268102
0.168351471901768
0.170217641658148
0.165727252387283
0.173488185228944
0.171337611193048
0.169058386145333
0.165876014268491
0.168430781069885
0.166424371490301
0.168165963131373
0.163171276490874
0.170431625642057
0.168378687810033
0.174351628001238
0.167280096124892
0.169590771656341
0.163760002640504
0.168031789318775
0.159442234264717
0.175562732391822
0.163168699640745
0.164790281568837
0.163299602652682
0.166850450808467
0.15884921167929
0.173664474399387
0.15756956023223
0.167409059673767
0.16555778555545
0.164190494438395
0.159477155328821
0.168690150007196
0.161345653667164
0.16837181796417
0.1606915242315
0.16558338091917
0.151922805028044
0.164877586514057
0.156696810628809
0.164651721275443
0.15672452160767
0.165975999501405
0.151716870562757
0.159265570232974
0.157233420380084
0.168371459511915
0.153233247362535
0.161519211210857
0.151543617463363
0.160280899043926
0.158115106993602
0.16411451849761
0.1601177618476
0.164212414941866
0.154260027019077
0.1561538023071
0.15689622050257
0.162028214752069
0.168197765998156
0.158774066662502
0.154602035241806
0.155318525218111
0.174653247686922
0.151503557075504
0.170490646481451
0.144998118386476
0.175576513077471
0.142099348473115
0.17037254135243
0.142842803960128
0.175920307649151
0.143420666635898
0.174156048460432
0.146576219476308
0.165322535736697
0.152628565568269
0.160513671933004
0.157769642808399
0.158246309238645
0.159619317920461
0.152757818136762
0.163158597284493
0.152421588934835
0.154310049131909
0.150658253377623
0.152882999800161
0.154780433298296
0.148156497632385
0.15448846535647
0.15180926296791
0.154651000543636
0.152199281788789
0.152985666294855
0.151758547582221
0.151815914659223
0.152529221758427
0.149279520767221
0.150607308880434
0.149809968966601
0.150707024360419
0.150802222764306
0.151631618859738
0.151148919813277
0.148165398768819
0.150050229926127
0.148699021197484
0.149864255429422
0.152159150623179
0.151932324725433
0.151588634346731
0.147602054197458
0.151189854862281
0.149571571506843
0.150673882300652
0.149347735784264
0.150707934073397
0.152229880203126
0.152003686396815
0.153022696418792
0.152797857913221
0.150642998853797
0.152704068951963
0.152817377415184
0.151811111321498
0.148603695584877
0.151627902828667
0.151513312334472
0.152915256635697
0.149256693239497
0.149696093690413
0.151689320437919
0.151698433255961
0.152131970084928
0.151695290028491
0.153503073211878
0.150252352266573
0.150920074933427
0.151913881510148
0.150000368378458
0.152593440402408
0.149177923326134
0.148645855090665
0.147494400061642
0.152964705205809
0.15102628621344
0.149872487921708
0.151162726738844
0.152740583093426
0.1509707122121
0.152384553182987
0.152113243810524
0.151312144064798
0.150386691416804
0.152929546606933
0.149214836594039
0.152621467463198
0.150784809550266
0.153601708638038
0.152156110493069
0.151280368101014
0.149854236662539
0.152246984222558
0.151352363738648
0.151213447743013
0.150892420825991
0.153905425767371
0.150022106414413
0.152424884467131
0.150810379325689
0.151573032095815
0.151029194091669
0.152936715347687
0.152156121056241
0.152184233323886
0.151189947622503
0.15360418749197
0.154703905716223
0.156246812103587
0.150856835930467
0.15113021848124
0.15321840449607
0.155257786888042
0.15167087842783
0.155878769382207
0.153519616261847
0.157089186204894
0.155536966112485
0.155413064503509
0.15357374765601
0.156689246616127
0.155561491812802
0.153528062443957
0.154861639438424
0.15765897554432
0.153925964393368
0.154553906502322
0.155184396892445
0.157087173701171
0.15351067182928
0.157883497335066
0.154091826499031
0.153950925094495
0.15588191523235
0.157102127549727
0.154595839183272
0.157832682525244
0.159977312380747
0.159612843948394
0.155230736494545
0.155498361188337
0.152596711056906
0.15987093663821
0.155181547474297
0.15732064181751
0.154624507041572
0.15903483366006
0.15540272991146
0.155571776658405
0.157159048929944
0.157486959014825
0.155816876084249
0.15809094700102
0.154860964021775
0.157395008685592
0.158121143072238
0.15783007044092
0.157805148883739
0.159586760689086
0.157127612079254
0.161546780920019
0.158265555673976
0.160050171263739
0.155051018715158
0.158676638768184
0.158882325696053
0.160660091825233
0.161438539401567
0.161408537781179
0.157293605865622
0.160645037323156
0.160848584593234
0.161716534762229
0.15952723481116
0.162280301645355
0.158810786254593
0.162283477007366
0.159764678822642
0.162335904133363
0.159411964758505
0.161648570297423
0.161258902458027
0.161537868755377
0.159388236569936
0.164255763464227
0.157661901861169
0.1603225210149
0.157901302396721
0.158572522543853
0.158676027794922
0.160412692536469
0.15724906182823
0.158265383487825
0.159037999599395
0.1619020648911
0.158019732517153
0.160018483988736
0.158323288232255
0.158679141978698
0.155529607087239
0.160124698713096
0.157203717114568
0.15712637689919
0.156631137775012
0.158063129148906
0.154964870189872
0.157951781737467
0.152735027918838
0.156839600177315
0.157434997206907
0.159633799913842
0.15206237840482
0.154787250071088
0.156517636038328
0.156659007121621
0.15459255476532
0.155914020931317
0.154825679692962
0.157020908616312
0.153336406141172
0.155992262910606
0.153570258481441
0.157176984334527
0.153764944351615
0.154278027912328
0.15394171704947
0.156411131576075
0.148830559291092
0.15200315766032
0.152996287746531
0.15379508151036
0.153615558651848
0.155458395935805
0.152099020847931
0.157349707975295
0.15224152724953
0.152815989616793
0.149579976384106
0.155489692318158
0.153112976873192
0.153960148398538
0.149089610474688
0.152605166116222
0.149559046444795
0.153338733860907
0.150033776629717
0.152500518053302
0.148914869451881
0.152948274260043
0.150456984486047
0.151187046718679
0.147709504802456
0.15005403961159
0.148663080460577
0.148807103342812
0.146319338603662
0.150316855507826
0.146561894513865
0.153230497870304
0.1468630122584
0.151573222333372
0.149749806279975
0.149726394377719
0.145939054013884
0.148538260109128
0.144922308599804
0.147888323334076
0.146541206526765
0.151295687665763
0.147288567730639
0.145149445231832
0.148620319997588
0.152476993432878
0.144155955529921
0.148378866526142
0.148129446165831
0.148603818888255
0.144729600919374
0.147030610517678
0.143016436174121
0.147381427189312
0.144980568088091
0.146224739483225
0.140508027130755
0.148290583396124
0.14526534868318
0.143786962665452
0.142772971208641
0.145739706705004
0.142010047578597
0.143520190098154
0.14210950789486
0.145581515010403
0.141603422432042
0.143747554175515
0.138742067789995
0.143148199385568
0.144772139595402
0.146400718260259
0.141786369878936
0.144137606460878
0.140920433375373
0.142587762739008
0.137953775972346
0.140038186132834
0.139705935199822
0.140978188127986
0.139359419963303
0.139513993149166
0.1362779147611
0.141859608847191
0.139151975182938
0.138898133470681
0.132409768265047
0.137679946097507
0.135155896060194
0.13599161620169
0.134221921673768
0.137496713739087
0.132504471205027
0.135778845707636
0.13169676500697
0.13526206759134
0.138004408359991
0.138458760140367
0.133855071498875
0.136587018550949
0.129509600815512
0.133643601105293
0.127002933152381
0.133411149591946
0.128315386939823
0.131403679356697
0.128906382392758
0.130187953720402
0.127243977433622
0.131440834021795
0.126036390613398
0.129306510245121
0.125821854227909
0.130093215836896
0.123960261199931
0.12810223965663
0.125113264758218
0.124609876176696
0.123947800657627
0.12746704913257
0.123414422064723
0.126315315432156
0.12820719201684
0.133038032649749
0.12705867258966
0.125811390336093
0.124680778338964
0.127057844930758
0.12269038433939
0.126320970260692
0.123845846759809
0.125065905659782
0.120038280398126
0.123196941750814
0.122409241716708
0.124186596662178
0.120367811120457
0.121778775684069
0.118740234947875
0.123496277306288
0.122539215577777
0.123826568343445
0.12321188096886
0.122616923109085
0.119945335695784
0.121716873766239
0.117504535160487
0.124994503188157
0.118791098703124
0.12922313249132
0.120177980796471
0.119513190918533
0.119319569054213
0.120190928528041
0.114663738182372
0.117654450299109
0.118306002654344
0.117488333150787
0.1151831480378
0.117642425990921
0.113366374479707
0.11865711050771
0.116933098379448
0.118993843495016
0.114490272710236
0.11792235327694
0.112820474742786
0.117108805852344
0.11217670876331
0.116258131886272
0.110927944769834
0.115057889015312
0.111360284024029
0.11949029599391
0.109817180031894
0.11597223690837
0.12581861399041
0.117477003928383
0.112211932809293
0.112343282918449
0.112149743251859
0.113716780908684
0.111342684378125
0.113772581861913
0.108943577717634
0.113896771332767
0.110133063048721
0.111838879110377
0.113080903864803
0.112785210428286
0.108518134033205
0.11042946201447
0.109996941087821
0.113096851232131
0.111733364411776
0.109117978181588
0.110112925006451
0.121670902589184
0.111650905202058
0.112379482943988
0.108490544103323
0.107088784140052
0.123315524931234
0.117224693051065
0.109851790930169
0.112216917566998
0.108026507540237
0.10943358557011
0.107966144787747
0.10870881609818
0.110552234727868
0.115264319682387
0.108884069360344
0.115255158984304
0.108457283253642
0.10971285450213
0.105424715803423
0.112713576831025
0.107650248732723
0.109984219639869
0.107850175292365
0.108771470156834
0.105855719030021
0.105649058436626
0.106797271763559
0.109791653208643
0.108660273122952
0.117225184708978
0.110409467009251
0.106864450727641
0.107197165673343
0.105240816010903
0.104585224813144
0.126121533661147
0.106835435865457
0.106038128273909
0.102614995337891
0.108688712380964
0.104857630300597
0.111280487927749
0.109167459609907
0.109857165576924
0.10348553204017
0.110132147558873
0.103634226152054
0.107693145587849
0.105765382722857
0.107795575306608
0.10171552545212
0.10577245449549
0.105296353240036
0.108721911696452
0.105415655468762
0.103564129948439
0.110368516934775
0.124572205996083
0.114638483681822
0.113906459434684
0.109523785696897
0.107095864743985
0.102530273189178
0.109774751264285
0.103791349243295
0.110459362611389
0.105319219459622
0.108488477433866
0.105042389125362
0.110109996284228
0.103992828746319
0.105100095763715
0.100768105840773
0.108706056171989
0.102465609383726
0.107708791654122
0.10253829562889
0.109933303068429
0.100316513272208
0.11609798660024
0.107626760408528
0.11474664760049
0.0929308828179315
0.132650292711081
0.123319891324298
0.108823199536071
0.109040216626675
0.106098741772859
0.105759956649273
0.105735758008577
0.103979306925639
0.112536313228825
0.108333854571225
0.108649194069015
0.103025741347594
0.105469761596171
0.107032496180783
0.104176797166939
0.103897627355473
0.131771610348048
0.111447911866934
0.111515870830812
0.104101258535258
0.111595104757412
0.126606107567843
0.112395391784385
0.109969207479631
0.110490617173555
0.106572836033861
0.10840768928064
0.109180244013314
0.106549748010111
0.10810869916241
0.114735089656174
0.10716218094295
0.109263786619287
0.102466409072618
0.115403260090541
0.107713951326833
0.122275370176497
0.121055522833341
0.108603738080253
0.11260848913749
0.113453559062416
0.105672367529086
0.11098335949723
0.109832670100557
0.112732461231876
0.116353246955299
0.127200798684918
0.111515384360765
0.124975836387008
0.12281240593386
0.107572896767318
0.114265253273292
0.118318395350525
0.121497920392622
0.106524377963267
0.119659331276269
0.140243853285822
0.122039682587037
0.13583333272539
0.111936963632049
0.122879822099283
0.109141259254608
0.120485741386676
0.10858209415152
0.139606065333393
0.113130552732375
0.12573037314029
0.107165255267075
0.135255377821952
0.122795180726471
0.123722349162555
0.117841898314598
0.122592074769353
0.11622057241138
0.135346313832501
0.120576308401634
0.112336527501025
0.138930424736976
0.149630909071444
0.14381148634403
0.130312390197099
0.111405560678528
0.162962458249364
0.129696196045962
0.131176943553051
0.118563426149775
0.133495853042458
0.120256372284426
0.122305515266894
0.147657105172744
0.136074976115434
0.122690177542643
0.136324637011305
0.119501971168197
0.150826304589632
0.142115119318353
0.137471818716897
0.129843039929332
0.145468516266401
0.115438133266573
0.181715280962931
0.145366243615797
0.152087928382037
0.164052534275238
0.153515258960567
0.155216003091241
0.154403064957012
0.14855571156297
0.157236310699399
0.162830463188242
0.157777950171055
0.140092327212624
0.164652555625577
0.183218982825585
0.15430365950165
0.16486614328478
0.15560950495264
0.145881814343335
0.192611234142353
0.205407466839496
0.195207888488549
0.169487723380733
0.164981738200277
0.193999103834195
0.176093094597066
0.171867423689774
0.174992744642081
0.172620002227626
0.177542339516062
0.173629762093618
0.191236455768141
0.178801050557658
0.190930598309735
0.180478748451173
0.186525272704759
0.196587123040738
0.231681769243786
0.232453929284176
0.194774732525355
0.243378508086234
0.222533200044485
0.212120067143754
0.20597506769371
0.204506957924645
0.222020714049212
0.216595915813523
0.217773028268593
0.207821210227197
0.24839846717519
0.235842942939868
0.231614209275256
0.250738510521722
0.239417730755379
0.24743796761928
0.20403449952523
0.431811567879041
0.281107518030284
0.285866405008253
0.271256923890595
0.266489229564533
0.376259196626559
0.306385255122898
0.309377407304024
0.317351538103887
0.320000974318165
0.330302933077615
0.3492321158519
0.355626623615891
0.369174454632496
0.375301821455231
0.364892244988791
0.387393607054977
0.482059716192391
0.457992313294191
0.446932914830455
0.419528535675501
0.451187695546718
0.454980965463618
0.456336305473331
0.465568859331266
0.471855177336662
0.462561522102774
0.570461502914108
0.504035376241992
0.522466806755335
0.519313233305423
0.584273015291097
0.520304565660199
0.640183764347805
0.604075546297248
0.602904603229123
0.594074990016568
0.605446760287084
0.618366722601226
0.609883778468589
0.671497158350681
0.676002710858717
0.660327341712103
0.677994738957377
0.678114785013988
0.693757069892056
0.694082974446481
0.719003252328357
0.69821068025986
0.770771051089022
0.748971083230738
0.980478077708597
0.790152533966374
0.75127388358727
0.745259810125835
0.758243416519861
0.803642235472178
0.774186387175042
0.801315615178718
0.816496826471402
0.747860030190904
0.78468188654863
0.770396299828908
0.789095935367201
0.757088299786966
0.796305904802539
0.759432525215677
0.822938175853882
0.76672429249637
0.80343724323871
0.865443188530276
0.786146357607338
0.773748546800124
0.784182310265774
0.776986970793823
0.766097826409336
0.790140867116752
0.774675048994978
0.806563831176887
0.766823044049684
0.753702536291069
0.720156415136512
0.755982748738404
0.805541574281692
0.706483985702451
0.708753170880798
0.682394900808836
0.702614221461397
0.658954585727544
0.691327834561537
0.754178158093276
0.656180933277384
0.66008132703993
0.639929650211295
0.634774986687424
0.63221141122938
0.632717906783295
0.620596135414075
0.619507896755848
0.598174201998393
0.607097809159542
0.592105105164997
0.606698175129282
0.586579103641289
0.589660910023351
0.599149057312249
0.579250295822413
0.585504417413223
0.575788603895264
0.575264645210273
0.563455888784298
0.574387777950941
0.565908137199162
0.571739026740286
0.572188396102876
0.567140398613373
0.563896867630982
0.562107670849539
0.560376324371626
0.565346367155861
0.555917677347653
0.573433766452551
0.556090495993843
0.560601193702899
0.571054728118029
0.566998872652769
0.564491205112668
0.574623763761172
0.56104684148279
0.56423145559403
0.546755164624808
0.573343785136589
0.532459925235731
0.624656380248618
0.589003184630197
0.560545586837895
0.568213621103062
0.560640311274266
0.568767097768199
0.53152745763464
0.612779804690382
0.599410016506172
0.560081753215031
0.559704131678677
0.548732105170669
0.564018570277048
0.564873247075735
0.541776281640761
0.566132739025041
0.515917037906903
0.574848601917282
0.622046759616166
0.564070727987275
0.642828349536282
0.565108060565261
0.548910543311232
0.52341475324914
0.610089345163069
0.53826352581485
0.565015834410225
0.522893047028294
0.602256396237483
0.565440055604116
0.546117282881815
0.547015996331777
0.530850466303209
0.563942038439971
0.57974033474319
0.533767828667232
0.546519219074617
0.585956406342603
0.540977211944165
0.569376489902407
0.616387114637693
0.545581325823651
0.50727992579895
0.51901768992815
0.50764802618866
0.491765091548403
0.571142258227469
0.49974730481319
0.509881700815172
0.495413962961115
0.484781040467914
0.487651769692438
0.493554713158596
0.493666706186364
0.459854211355987
0.53884034986327
0.446976547102025
0.483698290919562
0.473416655742521
0.49578604382397
0.521609054810296
0.468106087353246
0.440290741197348
0.460427291691114
0.508887758735839
0.438928676702312
0.466221270217415
0.426328286523013
0.422558604471293
0.45265499571373
0.414779321454602
0.437125514210617
0.430713892148384
0.406041987669801
0.47849661458281
0.462979466764598
0.46683119994731
0.409591108170535
0.387116342941897
0.387079404469216
0.379676017964419
0.396459388415187
0.364505089329958
0.416983690620073
0.401048772385272
0.34615566535554
0.449247597005471
0.392565836469468
0.386420846558148
0.379673462734104
0.378859258153336
0.376967647447126
0.39710713044936
0.429218672947056
0.413854834695831
0.392346347503129
0.429633629204109
0.38804096351621
0.416074458793527
0.397015831377135
0.417398406974709
0.405453991230338
0.431864358034132
0.42342189632942
0.435125474164129
0.435869128311399
0.441806254798056
0.443421017425481
0.514485460861336
0.437437983160608
0.522265127031987
0.474268980429711
0.580301636911037
0.519164041925645
0.515065051112651
0.526679358407289
0.524910032203912
0.53465365589506
0.537844072027587
0.543041873727646
0.607581881807921
0.544774357619001
0.577350920983716
0.558040649648997
0.588302153044725
0.561705348516035
0.618124199489494
0.578562797158155
0.649722343151244
0.664196475450723
0.627733132374452
0.616293067390593
0.595403307278936
0.627704178365341
0.622804755094458
0.609957849504914
0.623024098767215
0.603873094936579
0.663898545733413
0.624449088935791
0.627397087724574
0.625008509450861
0.63521956538911
0.623340151031011
0.636701067608973
0.642347633111713
0.646273137795506
0.642715844348967
0.659358155085282
0.623291759016486
0.75137205638218
0.684538134329242
0.665940990384388
0.662661127915382
0.677958701009429
0.679132316015705
0.677088017201259
0.695993050984293
0.701384290909448
0.693051825252444
0.704774863027607
0.68683691378068
0.706578816932947
0.699367375824491
0.75123257109271
0.700184095294969
0.750190050709127
0.705933804479178
0.741235521471616
0.795001746401335
0.733881989104183
0.770093759510797
0.728078542257601
0.750526144764276
0.748756276780664
0.749543394802171
0.746273944351862
0.767257970599274
0.753806259885176
0.756069797375148
0.752713886268734
0.760539636482916
0.755200737055159
0.750984675362677
0.791960425438142
0.764526001393165
0.763677454362912
0.773621454542089
0.761270503627526
0.754416663878294
0.774727712188686
0.786483547529601
0.743993629580144
0.768580245104485
0.7410897592672
0.774578494076956
0.78164067895644
0.738576000231341
0.758839220444257
0.747457382207629
0.763608429813176
0.761514880512844
0.761262053431774
0.806599345502914
0.771287157541792
0.769848541602588
0.768747963207818
0.783837467735863
0.785350304391843
0.788280306890104
0.783811279531489
0.790277306698958
0.788000147321832
0.806442513167076
0.80015827606209
0.791416956613725
0.812459068796748
0.813872670954273
0.809839433350609
0.786176660241189
0.804975462622547
0.801047591222154
0.792563797203767
0.791993061750533
0.778162831352481
0.778306133023038
0.778594091913084
0.779512358044844
0.755519309592454
0.792000937942397
0.758264699483367
0.763118417088924
0.761569648863287
0.737873617490909
0.745936998729771
0.739588370903474
0.741782459866545
0.726526479225341
0.737009999403151
0.71846656739753
0.717035051051248
0.707990136177864
0.721470386002233
0.71527205831388
0.712982165727437
0.715454452352006
0.708964510144737
0.709309958154585
0.708844889473746
0.703033603747328
0.702136239241052
0.718257027691772
0.698379742222463
0.720134666709333
0.720045407089056
0.719188695330262
0.708554084796778
0.700323556682482
0.709311242514564
0.696489607133912
0.709376208190723
0.699774547178163
0.708874952060671
0.696476061919919
0.707711919212555
0.69297452258957
0.702181218526794
0.698855231475793
0.696964970132619
0.694193074563858
0.698161306236262
0.697050652353117
0.701644260451882
0.696564597206964
0.703823887399137
0.690797793787098
0.711497620253953
0.704997525665676
0.697990042943456
0.701286335203702
0.700524727605342
0.70001501171766
0.702316880197585
0.711245720831904
0.705131496822508
0.700647621297326
0.699917979499275
0.702515679721924
0.706454349087461
0.701118709640556
0.704719824292931
0.694827299852135
0.696634067997882
0.685968899065401
0.688689561732408
0.685288208316597
0.683365471467961
0.674507225892532
0.672302982524496
0.663628077751164
0.66571265805623
0.654182058361893
0.654160836070037
0.651894292002862
0.63451476318614
0.636876628934663
0.635769843017951
0.631849099889307
0.629901025831324
0.62366514287777
0.626675123978736
0.621336165538086
0.619518462247887
0.615625582399269
0.620101138779132
0.615853967172393
0.614743345150755
0.613583775973318
0.618245380896394
0.614465838659125
0.615450957675459
0.611018652074265
0.618206565394254
0.613538608123275
0.616859151292767
0.619297177104409
0.621671842741423
0.625681841126522
0.618334135699624
0.624723161181795
0.63019773405641
0.631675233197694
0.632975338036514
0.639890102270207
0.634872599597416
0.638301025302217
0.64686364853258
0.640057596456575
0.648316963135442
0.646991973950525
0.650619491734942
0.652277680356012
0.64629444822281
0.651096600486895
0.651257410681605
0.648751824790154
0.656965705872845
0.648032817507574
0.646691588863025
0.643801760949667
0.641928662018235
0.646223137064187
0.64228986575943
0.645529688796082
0.636493259895564
0.640197649901145
0.637319188421729
0.635697062817984
0.633394434066223
0.626225134641645
0.629633694837302
0.62563441625905
0.629822775270568
0.614876104720779
0.612872929348776
0.621285753945336
0.614341526403487
0.611867601287142
0.620059382101895
0.616162341548951
0.611999222812489
0.602154000607983
0.607330459033256
0.60403299129099
0.608246385562537
0.607015184923058
0.603827997889413
0.594808918356762
0.597071440449162
0.595175519737556
0.596746706929204
0.587886608583663
0.589221887801789
0.584515080411119
0.583111654266218
0.574969091810292
0.574209329869459
0.567813561506999
0.567366476966456
0.562708331022722
0.558429500820519
0.55475977564612
0.543150393643986
0.54263621389562
0.537692385476789
0.536924107891719
0.535910382578097
0.525265870614745
0.532282878194739
0.529994206948243
0.531751900210968
0.524479871853702
0.524357487477154
0.520018379464441
0.519289498919252
0.520274855897963
0.516554316609028
0.513367794562924
0.505689750797412
0.504295539166298
0.499021873212403
0.494502273553027
0.487354960692296
0.480889158409441
0.476812503952448
0.467552939042001
0.467764411835549
0.460346909661066
0.456903530569357
0.457440194807327
0.457568191287228
0.460132972952218
0.463994571970506
0.467474006369674
0.475954788065258
0.485139709138848
0.495290700211582
0.507406367446114
0.521979789225719
0.537354282944674
0.557724146665878
0.572699122528478
0.598472895253806
0.61301020506309
0.634031767205995
0.651535846074899
0.673060796426186
0.690867982535355
0.707737875101404
0.725227812761761
0.750449958373364
0.770809736552512
0.784018633293369
0.801503942878524
0.824653907548537
0.832951627965399
0.846583673764975
0.861653574965545
0.883365907558047
0.885257486686886
0.903509914214511
0.922553163438418
0.923126314864619
0.937926289167429
0.948046633553495
0.94626096384472
0.942236297329753
0.94681443229899
0.953815954770961
0.969258624248974
0.957671441338541
0.952693320009073
0.964947320538201
0.959409486376394
0.969826560977793
0.96465944213058
0.955325090576387
0.965100763497389
0.970391791971247
0.954941944836387
0.972607127877
0.982738740868231
0.979125854309674
0.979989618935958
0.99458390280475
1.00002018419927
1.00169172538314
1.00298368296827
1.01820976904326
1.03905824746576
1.03904895031519
1.0510015008624
1.07278013396107
1.07574774850119
1.07986942584019
1.10418348214296
1.1121508097411
1.11593934996373
1.13097123303782
1.15536717947077
1.17968740809328
1.1760124517768
1.16701541236179
1.1969594040472
1.21445812776645
1.20647142043145
1.19616546384489
1.20575223939001
1.21307302333889
1.19852688618405
1.19478143229846
1.20309774081156
1.16531625778547
1.19189537623489
1.19167801170332
1.17903471923524
1.17677042050082
1.19454823627434
1.17466112822404
1.19743351685044
1.24268021353475
1.26405028571967
1.25272001105467
1.262754443763
1.27725031055255
1.31403371412082
1.36143188939467
1.33568739848579
1.36414210573696
1.38279923786291
1.38056396183044
1.422149362321
1.43071514000311
1.46001884424483
1.49409392086552
1.47946672073461
1.52294459817889
1.54150267400353
1.48113297724834
1.57673347341911
1.64067507031183
1.55891699699089
1.69601113886273
1.69125921885368
1.72321582452658
1.67593823511488
1.75976715399382
1.81302262066481
1.79393252120582
1.8330536874455
1.76154909189508
1.89674361769716
1.88096280720928
1.99165865769099
2.01549606744515
2.02028168450177
1.7766729753503
1.8430591071428
1.88807467634251
1.8690844562481
1.85213201621306
1.85232538503597
1.86031466444715
1.94334336385855
1.88740791950094
1.9765952436466
1.81356984492865
1.96140496953886
1.88548867607375
1.87283507154954
1.94408238331549
1.86793667359331
1.9465543181047
2.03391340197094
1.94813157931509
1.90500150162796
2.04639810815173
2.19325304633064
1.94019332372376
1.92066118103192
1.97841415308241
2.17727680737711
2.12450934038941
2.36337122785219
2.16358874749447
2.19701831744277
2.29937216943069
2.10865096439065
2.15602352194701
2.19402472642408
2.06923093269907
1.98082631456688
2.042764688973
2.10270619717496
2.17657083381111
2.31343575098851
2.2592629512796
2.119421165498
2.14103412691487
2.04726976698982
2.07110724895452
2.51475005795465
2.0396931909389
1.89039646058242
1.95278199038964
2.29352338422793
2.38287688821463
2.29716830670226
2.04947226712476
2.49790180547065
2.60256543361985
2.11139256490186
2.3509682532556
2.33805156966468
1.89347888282959
1.98823465232498
1.99989990399797
2.22888721639832
2.17198668826379
1.91943368361312
1.89708454944333
2.15891502920977
1.8119122154877
1.753750909853
1.78601771538322
1.73898276134723
1.76487691493789
1.78530935656905
1.71115780695882
1.87968686445508
1.730622983533
1.72204646508214
1.61711504739209
1.65263071724178
1.64130359692719
1.65034595000872
1.60851358714821
1.67383573462838
1.65428087773302
1.57455706953519
1.52877873944385
1.65799852132186
1.53515376013299
1.56106378143869
1.5221358474001
1.48124124417842
1.4660658832031
1.46796509123989
1.43028104257324
1.42980881306892
1.37529010958308
1.36361146155325
1.30584406273786
1.29277596367982
1.24641725603679
1.21887550771946
1.17056810902891
1.13257545488694
1.08318138810869
1.05431115082329
1.03218659385886
0.989625033543215
0.964304297072212
0.941586026893284
0.894159249982678
0.875431318311806
0.854317176311594
0.83757789435959
0.802345278968671
0.776424334862992
0.772447962700333
0.774254234652706
0.75765296081466
0.751086211111022
0.747395063518026
0.736295755583752
0.72298062306807
0.73643203972856
0.72048892925276
0.717501813842454
0.719921586047847
0.720201362747113
0.73065000853966
0.721708572469522
0.720645763739284
0.735005745724893
0.728914524917083
0.72491762427443
0.727244530016069
0.733463790262055
0.712901114550314
0.702457749360688
0.704603219356545
0.705518538029651
0.6933626671747
0.68992149360283
0.683482808887627
0.685931352365681
0.685353394469993
0.677661041118256
0.662890825724702
0.667101878899092
0.663913768791556
0.672864364150708
0.668373226713092
0.673693929134756
0.676884457292597
0.684250922920482
0.692698615062901
0.692008427462167
0.685392929783258
0.693361968827052
0.682059542023591
0.691701760394185
0.699699221417807
0.703690629385241
0.707859855132738
0.704032583610281
0.712274754945086
0.716883438048478
0.716099233147364
0.714759595388198
0.710933067129517
0.720314908266195
0.708985581410976
0.705672981026653
0.707925946784887
0.711832595321472
0.72528618834294
0.731044248993135
0.733404029195937
0.746152996515268
0.745411713581919
0.757854059499786
0.772449011252538
0.800073867207052
0.810321207851589
0.837080826079011
0.827422511987549
0.84342606418368
0.876129744137063
0.891816960925022
0.922900503592198
0.932699489282698
0.91337674032358
0.900622980995695
0.898385384508133
0.897615207228049
0.880992240845798
0.878530922635515
0.862466250008251
0.863165381748342
0.848185787672491
0.85606217955731
0.850799087711178
0.824673362890413
0.82878185422975
0.847064915863804
0.845798565685453
0.860797390642283
0.844636137212682
0.844620267543286
0.860266210953231
0.830828925357032
0.844808322423161
0.850821245427612
0.831459145337994
0.834540415905585
0.807784155282263
0.854001456859241
0.831930864736991
0.807231599247625
0.825328334736742
0.810862455939314
0.803742750270569
0.803589355099195
0.760766691417557
0.775532518377581
0.767510618479687
0.775965454758121
0.782294971731008
0.777977582808079
0.770989901625718
0.78270322936107
0.766200352888146
0.761965860423131
0.781138773472575
0.782742834178846
0.761063824799901
0.785504804368709
0.757279221967715
0.741925415458182
0.742172261238623
0.752427356830866
0.751137538117111
0.775683363998021
0.75927445658158
0.736915104614382
0.744185223263866
0.74103425137202
0.752265481977154
0.733845108192768
0.714933904453326
0.738378987309606
0.755326415789483
0.742324394033233
0.719132015695441
0.719755771483329
0.738659134998826
0.721442542227214
0.728715478769053
0.750715054710084
0.74379489992008
0.749880740089073
0.726534184834515
0.731559499700543
0.747499415242093
0.746188578417155
0.726937629280381
0.771018124780818
0.781713725347563
0.754374161411709
0.740248026558578
0.754385328966926
0.740749556381172
0.741534913621495
0.763509805216859
0.75454401411071
0.760653086454532
0.772243423055546
0.776074551948046
0.784969352923459
0.798561391006969
0.799386756836074
0.767379740258154
0.801151641010651
0.806463057744179
0.747254073004442
0.771669081245755
0.822988505368021
0.818545693637243
0.791971386434654
0.840487862478719
0.850331357769773
0.803000366720207
0.844924273587444
0.874486446536723
0.898592243558894
0.936403299583139
0.973506782760077
1.00827180416175
1.01954875963798
0.990142052175684
1.05330682357994
1.05197325514076
0.998704166181513
1.05112489540198
1.04532894972003
1.10476891845588
1.14360764563881
1.11536402952275
1.20279879371469
1.13746320735304
1.15379937833761
1.23783549087611
1.12809183274733
1.05027622590313
1.07864492099073
1.07336857089615
1.10111643630914
1.06643047463782
1.07369401248304
1.09045107784457
1.06142712433204
1.15630568446757
1.17147443985132
1.11523966773693
1.09554429243447
1.09059955285314
1.17522368284973
1.08689729571205
1.12987123047498
1.21858491601946
1.00922689328198
1.05051985169157
1.09628083945046
1.11406407385085
1.11080689418729
1.04588498864295
1.04781511423922
1.07725609742895
1.03911932627008
1.13534565290203
1.16926859241657
1.07244218280889
1.00500887511244
1.07531816967133
1.05921733517717
1.10229305052792
1.08940982376073
1.05289264934292
1.126657579312
1.14353948706213
1.16489058957388
1.14662531192983
1.10894606993688
1.09357617928971
1.16528258011623
1.16967144681503
1.05645658330091
1.13339197794513
1.10292890791029
1.12325806243973
1.11047706488337
1.03761410426362
1.03714768193535
1.1882389800447
1.13832522221064
1.08185892397852
1.19539013688163
1.34595218873297
1.0928465316438
1.11964268314352
1.25173829537882
1.1928267570638
1.13472464471073
1.08589219932016
1.07916895910352
1.14099880425157
1.11226422368762
1.16035432186215
1.13406228436117
1.36674839061178
1.27760995838773
1.34333731889607
1.40679298602826
1.33682437911644
1.25086355882866
1.31299264443385
1.23789998516036
1.27650315872144
1.23088741921671
1.25926123225865
1.3696339233763
1.4136205171288
1.40734494949226
1.35296298477916
1.02850277262894
1.24782538682091
1.34044194365569
1.32142782035629
1.43232738163212
1.35406600497437
1.68513391694915
1.49754480339651
1.09518778920229
1.27936988679397
2.26115516728789
1.27758577682321
1.33222744037287
1.50708628553287
1.14917287718838
1.11724110052718
1.28707305149504
5
1.24038038083493
1.52456068078727
1.33975120089697
2.11715365466582
1.62949380296119
5
1.67209810470453
1.50584196747166
5
1.41658870361466
0.993627271922265
2.23295314606159
1.15200325145263
1.89146618424586
5
1.23297466176669
0.763869465874551
1.41115905379212
5
1.40707914951539
1.72938707072798
2.04569085722668
0.988492167024416
5
5
1.24730073989814
5
5
5
1.01925103031027
5
1.63755447710445
1.11282046131564
1.21270996784103
5
1.39973123931295
1.05136726384832
5
1.07853107325293
0.613771728358165
