3596
4000.36533379555
650.420452594757
1
2
2
0.0557185393058816
0.046234015535813
0.0604607831060506
0.0514586239801639
0.0493630406447425
0.0539654711804187
0.0587056505543358
0.0522337752125688
0.0537104192184436
0.0494175850337261
0.0570220939641368
0.0513848725027599
0.061590250952768
0.0461287692942646
0.0542323504412738
0.0437053636032778
0.046928295770294
0.0458967925619079
0.0575266169034034
0.0512625836975658
0.0570527650002642
0.0453485038183211
0.0597127868251143
0.0439919935147625
0.0480258335680122
0.0454654587188396
0.0479325981384119
0.0482438037245073
0.0596427772083682
0.0460056353499718
0.0571182024054068
0.0492327988012344
0.0545682857752339
0.0463256136277469
0.0537344438195404
0.0506403107266895
0.0600803858410475
0.0453450992187944
0.0476830551636318
0.0520808194849379
0.059227702682381
0.0427128759648989
0.061836610821071
0.0514956240916174
0.052985472403393
0.0467855162620962
0.0533092495172726
0.049386117546543
0.0595906882041814
0.050952087848076
0.0519587316438616
0.0403830709965718
0.0575792190035873
0.0539235895940401
0.0547215619132624
0.0583403074752945
0.0564502491621626
0.0494535245459003
0.0573892860293657
0.0474086622005119
0.0723267421633142
0.0621347729897935
0.0478320368159344
0.0389002779375501
0.0391234333449153
0.0456986273719168
0.0526544980079257
0.0484683154889144
0.0417904837427165
0.0514586154481138
0.0397196547516815
0.050467141938926
0.0624096597084854
0.0473178853603287
0.0619071379010215
0.0449478785807365
0.0394564625838459
0.04084877276618
0.0438322619067002
0.0608394608811099
0.0601320094351432
0.0518530855070384
0.0539420698032244
0.0364965028752174
0.0449685696964604
0.0607776298917497
0.0480368520609739
0.0350483859382575
0.0630874160667147
0.0533273719147839
0.0526153139831196
0.054076788433897
0.0439188200025588
0.0429695735684597
0.0484260829802645
0.0431639637691499
0.0366100336959415
0.0526680148528217
0.0407095889990882
0.0534188980304573
0.0517990869458239
0.0375143914741056
0.0859328546733998
0.0267317822583497
0.101289443090592
0.052588386083484
0.0361900284631512
0.0692062039311493
0.0588618082056713
0.0533767020654289
0.0424277212013219
0.0444538295394749
0.046966094246959
0.0547611917799419
0.0316974373262836
0.0529841789102803
0.0782295214269565
0.048864185562855
0.0506766481579558
0.0555032605729674
0.0164383076327534
0.0546665904214
0.0839824608368985
0.0394883702445416
0.0532763066356168
0.0373058363191593
0.0250775010257684
0.0659476208967615
0.0757709508334296
0.0421822813009516
0.0422534114926051
0.0427385569699974
0.0442117098925695
0.0312836701107305
0.090076476071373
0.0454587192823726
0.0518067633554018
0.027598761404226
0.0497226972884443
0.0825727594625729
0.0616128021889363
0.0460996653181882
0.0247591777774599
0.0271154358850939
0.068870031377938
0.0589621377111043
0.0357889764376069
0.0453786804710271
0.0601526409093606
0.0435045938553124
0.0445179919666084
0.0327899205526895
0.0640909456363946
0.0510957301584492
-0.0110440782163144
0.0554518821854676
0.0911107117186246
0.0472174447279013
0.109234521246308
0.036328668018272
0.0601321243736283
0.0452523497836848
0.0519522790993555
0.0292030397612655
0.0534135159388336
0.0269181949308353
0.0461400510599589
0.0592785266010862
0.0364337929172119
0.0375269988254344
0.0709649548403957
0.0517866658452621
0.0219564381068521
0.0953299564712995
0.0637321150926015
0.0232987616656457
0.0703021145375716
0.0558403918903805
0.0362296942314933
0.0448626411848369
0.072441144335756
0.0424828686648393
0.0558758350848756
0.0319814437810468
0.0423732006285101
0.0608198019591307
0.0526145768909822
0.0412816728957913
0.0527948078499968
0.0270360277628016
0.0480556081480847
0.0816757577397557
0.0770579489935408
0.0440631954266798
0.0581953177024835
0.00377982994094379
0.0795408442823544
0.078955613658655
0.0529137049511824
0.0450766715228168
0.0424447538541964
0.0452723170652277
0.0370806344339124
0.039492424077835
0.031666892600029
0.000604399512024804
0.0956274995809044
0.0589262848790757
0.0526164348891866
0.0360996891827569
0.0486361970218452
0.0134153924867635
0.0836714138099861
0.0732744288364464
0.0507541354680136
0.0499408871054987
0.0271298985332481
0.0501183744784193
0.0658521889617789
0.0432219011426966
0.0500023782639148
0.0436843035065782
0.0477752580193933
0.0456666932536168
0.0419456611029588
0.0429086397813505
0.0460710733534218
0.0372882764979326
0.0383344726779965
0.0391304490638777
0.0555006125275803
0.0476420761588839
0.0438284424764182
0.0492876218792735
0.037083581489592
0.0459280465029675
0.0677562776532372
0.0476147240969381
0.0546511540890603
0.0432697258006051
0.0458081847584969
0.0376656589777806
0.0497168362530659
0.0426123682095834
0.0396374128292022
0.0185506672344162
0.0763638996599384
0.0488068674901619
0.0508276750254803
0.0270669048980987
0.0616046332369936
0.0536817691109835
0.0458541894286322
0.0418091069930057
0.0507747911306111
0.0378564844928409
0.0322325617741999
0.0589370619840818
0.0531533240739745
0.0420560607912794
0.0625801974990638
0.0502956197623509
0.0504008804443016
0.0312343435973264
0.0118365332498144
0.106863738438158
0.0505051774727606
0.00835527251001992
0.102747545412613
0.0590317182581862
0.0680686699204798
0.0364427854024115
-0.00677032486784364
0.149543388001732
0.097712805128518
0.0465387269189082
0.0561623090123769
0.0689900454427644
0.0514504063074916
0.0498349364654828
0.0360203498264485
0.0410701835002643
0.0584488315733061
0.0629456968447909
0.116191734103817
0.0192011953747727
0.0685245963725204
0.0689515571110545
0.054425268378754
0.0534577657564774
0.0461971749816707
0.0386175953405985
0.0666465105350168
0.0582612344941084
0.0629074177047959
0.0513715686664514
0.0397992994819451
0.0700454438797507
0.0629426796819385
0.0479500856212675
0.0585992306895687
0.0533125476285832
0.043040639890011
0.0548197838777393
0.0472878938657715
0.0602707361725232
0.0324176791678556
0.0186835700886043
0.0951087174759605
0.0513875843236836
0.0509953298845059
0.0822023936652732
0.0604431735818132
0.0551968250959385
0.0528079126585832
0.0532406067368617
0.0518484109461192
0.043935316657638
0.039682565554158
0.0786172627199691
0.0627138143181275
0.0572022363109279
0.0534064619927831
0.0468558654253818
0.0556421422221655
0.0531054500144544
0.0525531883769886
0.0490229875938923
0.0545677943222834
0.0385874644839969
0.0691166123813044
0.0848803927862295
0.0316095449905229
0.0718973197341886
0.091829008315674
0.0668828871289545
0.0670420885704598
0.0518686757349472
0.067145142137229
0.055446770861559
0.0625747014885997
0.0590418489903006
0.058406205803907
0.0708055027391099
0.070387623523538
0.0465872999121239
0.0506280381001487
0.0972633220754283
0.120455251330732
0.0789795500314056
0.0785486868223244
0.0383353901467813
0.0865083960817831
0.0854370403889665
0.0806571500434148
0.100700239257637
0.0751067498149696
0.0791713394744148
0.069759423005173
0.0861048688438879
0.0795399503681296
0.0789612743249175
0.0751301027839204
0.0789520611506707
0.0784082846373482
0.0849206075520326
0.0732660219154219
0.0751227693217758
0.122549465514099
0.0938446749306632
0.0878127077771966
0.0919507129587196
0.0625397475824979
0.09623014195541
0.107558459653771
0.132907805800322
0.116655689522229
0.101278718615106
0.143124082279777
0.106676759646088
0.11374717170891
0.0980158712086016
0.113955008836289
0.113058822231814
0.113441547059818
0.105524253000121
0.112683773370495
0.111905165855317
0.125611497451616
0.122735882357828
0.123434016140946
0.108245545416429
0.147845606227756
0.129669094725737
0.129969257113758
0.120034634423716
0.132349186002677
0.147138277486729
0.183720619944089
0.151844934569506
0.150339878323378
0.149647205589483
0.154399205639613
0.156856844099235
0.147912569906339
0.154498459003164
0.150270185641023
0.177298232126245
0.179180014347459
0.17641429954534
0.187358473496463
0.149992134520306
0.176284794912103
0.170597580221872
0.16532208603869
0.187983227077618
0.201695541345053
0.174870367390424
0.206190800389281
0.204437192674904
0.195026324395791
0.206566620312047
0.189085715413159
0.20028650976448
0.198056894292213
0.20902041927483
0.212636025681695
0.215664366461528
0.22096563415729
0.224045723150974
0.234928414728695
0.221135513780372
0.231350829095276
0.243586822394246
0.242576121047818
0.229247211675283
0.250834498489063
0.233551413943005
0.252688575149934
0.238040548581134
0.260818147466214
0.269741195249406
0.249395985958822
0.270579619816148
0.259882755996815
0.262255293966537
0.270732048532331
0.270736365033852
0.267527724530628
0.276432145957104
0.290093554326833
0.2870500593797
0.302228798288022
0.29767970845419
0.294535057216103
0.296756507677193
0.31672983014549
0.316534264264071
0.317598888284839
0.308976089406486
0.324570016019122
0.313437486136018
0.344742694893398
0.356425620924892
0.356440291931923
0.355381069564962
0.325054960694491
0.333368838794281
0.352736547592476
0.366428390065856
0.354996922836227
0.351715687423057
0.377219878983873
0.367097216326833
0.379800983194989
0.381487724141042
0.384961761185645
0.379860283452038
0.38354807551833
0.398418546881138
0.426603755213624
0.399245100023285
0.394683301959241
0.408469160264282
0.412064823505925
0.442367394235746
0.44580151261559
0.431915084131993
0.437632816027731
0.43112348479341
0.449919108466851
0.452008313791072
0.468707855750188
0.461183367208535
0.463318009212561
0.471340586102199
0.479274897044628
0.483184423812715
0.488850191595867
0.492426301627534
0.477135317420526
0.489395669588783
0.512361629935998
0.495808964999416
0.532288245666327
0.526688694062455
0.523796905632635
0.524962179710271
0.527577521939756
0.510075828113993
0.520700964271275
0.561458164296316
0.561229209932252
0.528283577891164
0.546553963632287
0.562869217680604
0.567941531327863
0.562582587729759
0.563524272147466
0.566986587998418
0.579452382059526
0.571942271922304
0.628029140548062
0.646440025664014
0.6542432339544
0.593392062513657
0.619151726378085
0.640213131289647
0.618075092876918
0.618952021976382
0.633460069857485
0.606463615407901
0.631345618752858
0.633049075326763
0.676151965082037
0.681945986797162
0.67726582512972
0.663647837912037
0.658434090563153
0.670017882304876
0.697594027246121
0.682985133311258
0.70253150155347
0.697234962220431
0.740943932075464
0.721190314630991
0.693767268007904
0.713706843801141
0.762899671247111
0.729468997640712
0.731360737160159
0.74119871888883
0.761258662373521
0.762888801866772
0.772170550637021
0.763085760140984
0.758295315565434
0.74364019667519
0.771200838767481
0.775399904159306
0.770431312389564
0.784361018519421
0.813231768999814
0.803337232768401
0.777563119700974
0.787551590505227
0.790917934842476
0.777851393877237
0.83874122392298
0.823047313832513
0.809557365593881
0.801840056531729
0.879913598676142
0.876801499778168
0.831430036818796
0.856894322894651
0.864634091073492
0.834003098904156
0.854482701543812
0.89137927895482
0.868299824408529
0.880511069430248
0.91298922872055
0.876597334449719
0.978380052555165
0.922055937469045
0.89166396104291
0.935973744067685
0.928303774681138
0.929191837197472
0.962036161137983
0.917616824651331
0.965700475550274
1.02157052243831
0.99365213910232
0.964631238549818
0.971626923090692
0.95058750150077
0.988628733393713
0.96990861957145
0.932550406920136
0.949688781557755
0.963610248671869
0.943949259355509
1.02636603461022
1.03834980053607
0.993235796345843
1.01774073358379
1.00816965876316
1.00264931369039
1.01364740869734
1.04193170786013
1.08712009464331
1.063988032673
1.0550527435264
1.03792267926854
1.07914763721848
1.0389534414193
1.12057108409679
1.06105751776801
1.00345401810347
1.08594775972819
1.08068253309256
1.05093197297277
1.06428192696717
1.07442766697596
1.10192877004078
1.09778605617474
1.10933949335217
1.11285014869385
1.13248703347163
1.13125328844205
1.11918192007079
1.11388382335753
1.16196059921142
1.14606674340294
1.16942561100119
1.07790317712492
1.09872387663529
1.07668542212546
1.11057830309755
1.07195739744448
1.17670303791654
1.29161367145496
1.21917891576234
1.29529013267638
1.21384908163543
1.07217488229347
1.13757433833593
1.19937546788479
1.15857165526647
1.10644584316716
1.10992413907518
1.30010724833691
1.29052620255433
1.14173849968609
1.24609667331454
1.26061068999007
1.24461420747138
1.24596677748632
1.24133037110145
1.20940031687994
1.26070665229543
1.27611745077792
1.17442114180425
1.15875535034035
1.27852656902479
1.19630180134829
1.16959362385673
1.26518982093383
1.24999280737952
1.21382364690885
1.19449828867549
1.22399213706878
1.20826316097777
1.21517002974185
1.23933020149253
1.23155072211777
1.25413961508093
1.28955986540202
1.32286550666752
1.37764034788285
1.28925649700838
1.18728877249126
1.31681411464935
1.32996505561201
1.25951633041157
1.29943397530326
1.33950253563179
1.2724414692094
1.23794438692242
1.23654450373915
1.28425246004443
1.28624204029661
1.2328463813224
1.22233633660449
1.2587402462081
1.25708789216339
1.2887182946529
1.28085408637321
1.22226427870083
1.28995291372514
1.35165362254554
1.30632804267912
1.22509285515373
1.22668596644245
1.36767307362234
1.30854278876365
1.28538161263652
1.33877054596002
1.27800723892807
1.33899166605894
1.3302185933328
1.28203308675671
1.37921951374426
1.45871074613272
1.29543848747088
1.28627522795559
1.34457223909039
1.28708638999566
1.20149833960866
1.27323064157458
1.37831974285022
1.29374295928384
1.26584247782636
1.26411668125319
1.28734966661586
1.34382738011849
1.35680884755179
1.33295161847457
1.29475761503415
1.34180635392546
1.3963255056136
1.42783303066189
1.44304785145839
1.33569638849973
1.24770899946387
1.30639311481776
1.28675739973568
1.22973416263531
1.33121309602544
1.35087915345639
1.26989812733704
1.37012133179752
1.28004331379803
1.2762398688803
1.32274355890066
1.23716679391492
1.26631538910045
1.33759801884374
1.30179779009036
1.34928515497045
1.3274838178244
1.29947417200881
1.41326613467753
1.38549078897834
1.35019170911279
1.38790871542554
1.35192277573478
1.27665170573759
1.32562750332657
1.34430429755301
1.30044602932366
1.32648372175494
1.25986029961359
1.28911028361672
1.32698389641136
1.37044174395402
1.32835517090987
1.30441227683748
1.28213308233237
1.27822379221587
1.36833299397564
1.35907884701188
1.26456846525487
1.2949146866956
1.28395414338536
1.25804539447295
1.24664805932695
1.2809573651015
1.27376433719318
1.29135816939036
1.23904584717559
1.23144575348727
1.32691670772593
1.34287939258029
1.2998567466744
1.31380068059177
1.25404264231261
1.36516671334234
1.3387629552778
1.2643548772553
1.33811701897598
1.3406385848614
1.26530342525681
1.28920787112689
1.31650430116238
1.29400568863137
1.22328826415272
1.28275066507352
1.26035148731126
1.27359336401551
1.30645689580571
1.24460414909636
1.21337811279492
1.2437519984438
1.1941032559753
1.24945067951806
1.25724442822009
1.26095766380884
1.21939340690343
1.2675491644186
1.30450607469681
1.21462041373341
1.21507242619381
1.22257034375709
1.21109594507864
1.24863102296128
1.20948884763138
1.23544872841019
1.2028427900933
1.16465717284151
1.22748599925297
1.31917450206338
1.21520888805428
1.23323319587777
1.20598165929013
1.17224456166695
1.21386907226655
1.21774598585521
1.18925693146545
1.22513663981783
1.1785226776534
1.13064722767196
1.20492707939321
1.18026320243956
1.16118264445139
1.18633078591285
1.14315239427748
1.14712690545955
1.10297915007093
1.11440774516774
1.13325057426588
1.20679874698177
1.15112036484629
1.13646530272697
1.12124434160012
1.09457545356542
1.08575274820499
1.14381635876841
1.12641128639123
1.10189743712769
1.0938380250761
1.10517977056437
1.08245833393632
1.11487602304409
1.04572399315262
1.07562175417254
1.11881057095653
1.08965703455185
1.04177002897749
1.05874231666417
1.06157623246937
1.063584229613
1.07151783247896
1.04573085341623
1.07896951742392
1.14078256076276
1.04856895692439
1.01773080081134
1.01108776894721
1.02636165044895
1.02843934218455
1.0310180485909
0.999658974755072
1.00436124733678
1.02126701890966
1.03089411071826
1.01072484972954
1.02069167642335
1.00727458883806
0.99979651164588
0.983963029308699
1.01588816466405
0.98690111890959
0.970614508570188
0.969457181082393
0.988636562013541
0.96250798632746
0.943574094824457
0.944832678883197
0.93454411807203
0.936158280217082
0.959423118777246
0.91109772872641
0.940515336113556
0.922042968846082
0.924474575284967
0.914565038933205
0.925567498535937
0.901257407870222
0.874564758824042
0.892914639101401
0.881803055258504
0.874162180787977
0.914955266878288
0.870669501509978
0.879203268933318
0.865497430542303
0.85594353493532
0.840032175928989
0.86320029117243
0.851344073703903
0.865304540761333
0.843798674714564
0.853427521312762
0.832527138652024
0.840740793180678
0.831735303594862
0.829265090997959
0.794874404374509
0.78184700445547
0.798042069150421
0.838228626444963
0.810275113739309
0.804476876906672
0.780693657174762
0.783662234240697
0.771581897702085
0.784765319651307
0.785909491918666
0.783787300342008
0.760142870928488
0.776317072097662
0.757401243347542
0.747066629990992
0.753939064760609
0.768808273531104
0.739163664024986
0.733665850534997
0.732946303340089
0.732706772259289
0.718105467455769
0.721819911624634
0.692947737227353
0.721499705013177
0.718577594782016
0.697515649227359
0.705955918603302
0.720858373025122
0.698674991137732
0.695991995768872
0.689661715644403
0.699205054905211
0.68742932753748
0.692043600944319
0.671474256361556
0.674261893759444
0.67184203587208
0.668474093026633
0.66190529479442
0.670463275662698
0.645819816041337
0.654393510501917
0.631532503991559
0.643143405477882
0.636976228249246
0.643843569776808
0.623862803496238
0.629517262200229
0.625462804349303
0.636402821226872
0.615920742375335
0.621098519870817
0.609870863390834
0.610074545418745
0.594179760588815
0.601976784432632
0.614685198128892
0.602286858372158
0.577382654760647
0.589225647638957
0.570445651270924
0.583458338115449
0.578086305705855
0.571616174458341
0.569656181160244
0.567177959146305
0.555248910882782
0.570331448402422
0.559404692323517
0.549205760658577
0.539867347420583
0.552982449100885
0.550489707802332
0.550217342436681
0.542198080928794
0.540262854779215
0.52758477169775
0.541419096401106
0.532480602391843
0.523984843493583
0.512371973735803
0.523631841996628
0.509822112975253
0.513700614618968
0.504402072333656
0.506056378359629
0.505651052481586
0.510160807572502
0.50126729603339
0.503619541985682
0.501307787239616
0.50055862126972
0.482637126917486
0.490275476141436
0.484919143598385
0.479773246788524
0.474919188881815
0.487905345751802
0.475187629634837
0.465141549451036
0.466914053332702
0.469062008353291
0.461128387177445
0.480052547597087
0.467611111237637
0.468151910092355
0.450919350718859
0.459848682551046
0.452477126235551
0.448524095808183
0.437120399327145
0.437471139042699
0.43689023357295
0.442054709486378
0.430474386352348
0.427931198676335
0.421767862110988
0.42533053012515
0.416515522362586
0.424290544131586
0.417919632060527
0.419514685771376
0.417647807999077
0.415359177708189
0.405850442798461
0.409672471981217
0.400175733894771
0.403434062305452
0.398722506735203
0.400651742023139
0.393068210965359
0.403003504614721
0.39190606796034
0.394283441164164
0.381631017516412
0.388717895021993
0.383971912963197
0.39407741790491
0.389641654416264
0.387922705061144
0.378965330459344
0.382644140069399
0.380223686738834
0.383336790252737
0.374156259181866
0.382636940387315
0.367446695972967
0.36706904832571
0.363720155051817
0.365849578617017
0.367826937336707
0.372116103659135
0.357306100443676
0.372798139703148
0.3605493851619
0.366463240302355
0.361869309088309
0.369252457137753
0.363404552147449
0.371212739031448
0.359995846460126
0.368666854770869
0.361161994057969
0.369162003454297
0.368897392567818
0.375714666689411
0.370336652397464
0.376936760959485
0.367669118677028
0.377790269095424
0.371729099806797
0.368408636102538
0.378194164005731
0.386924258732254
0.370850512526031
0.382949946026226
0.381915087524428
0.387762475554076
0.385620648346721
0.399460435989365
0.390232358076396
0.396083046932002
0.395152617177577
0.401863337213865
0.395500692685089
0.40619193675048
0.388412966634518
0.409277108614815
0.41392206619875
0.412988695597152
0.405318857160176
0.419978834805554
0.411233238975973
0.421212959317795
0.417199482189111
0.424228335570002
0.423646654956812
0.430535936621537
0.42741920096272
0.446973727403699
0.426817916804909
0.429564781112085
0.430485248440861
0.447348337804066
0.450630465772872
0.459661766741564
0.4550681806158
0.45380851028436
0.454805863519591
0.480610651403462
0.459647306012366
0.468885119625806
0.469492264764748
0.482980621653708
0.482293647543909
0.488630993913082
0.483419317155518
0.490012905755515
0.489154023121426
0.494538064407463
0.485301706423929
0.507470368175757
0.494080479583125
0.503166154417456
0.512316671366428
0.521396717300413
0.505429966821414
0.509400671025339
0.506331652651751
0.518957611551606
0.508502612669949
0.51023337817
0.508904541430343
0.521157364741044
0.504974898170324
0.522903957786023
0.51736761094323
0.514355777593551
0.50800598523996
0.512259228371805
0.503758050553457
0.507243011719421
0.498704378848427
0.507953376076064
0.503790463949815
0.514493503971211
0.510637108628409
0.517494433630577
0.503454269040232
0.509776370903341
0.498994551548252
0.512504882568406
0.50233386138369
0.507698206963374
0.505887018503979
0.510941503607618
0.509944258894779
0.510674228085884
0.504611405777779
0.515856579441091
0.502553169492581
0.510472157839182
0.512470986746328
0.514258792455994
0.498557790318818
0.509578477176047
0.507958605117922
0.507132884167762
0.494467743525326
0.512296107615752
0.503516137745038
0.510117578458992
0.506741988902405
0.51305457229191
0.511315410933392
0.506806442056389
0.50548373308159
0.521589555574801
0.502457234859214
0.501657003674043
0.495783897628511
0.506019979424113
0.494730137437296
0.507985338073225
0.49812159931091
0.494451857637523
0.482502224567091
0.496202034284891
0.480917115463381
0.487824090844069
0.478532410431722
0.479195044841622
0.485447292489027
0.482824408873188
0.466427546588828
0.472682598739121
0.446137581825247
0.462162630592267
0.448500734791101
0.466210432868787
0.443096411037682
0.445039539094521
0.438073502574277
0.434917126091053
0.438760661786284
0.437727430567189
0.425671687009639
0.431887726158869
0.416752775749539
0.420428168824746
0.40782765005955
0.413651381909246
0.401512448286528
0.39974656222191
0.393535288016885
0.404563651494737
0.386050472543161
0.394166287618344
0.392987742504384
0.388547319609522
0.381990094412801
0.386482867240356
0.373956681359326
0.370128546144762
0.358134284153831
0.369680131531218
0.358703665949687
0.363154181894326
0.351848808523188
0.359549162725134
0.349731572740941
0.358508641089721
0.34281450638061
0.350291059210089
0.341392338688231
0.347190975320537
0.346643175740368
0.335805005160599
0.333454206542352
0.342944646118745
0.334189586614599
0.332054972815527
0.322524027042079
0.332274503372873
0.324691715624839
0.327952076671376
0.318363481508858
0.324946416273902
0.317786797579809
0.323603074352782
0.32024458139528
0.314650744897378
0.308920961847301
0.311058083816748
0.306214167606482
0.312811644698198
0.303276989431274
0.309480618075625
0.302146879417376
0.303439741950157
0.302089729205179
0.297079527971553
0.298740279648978
0.298729223635542
0.288080043929875
0.298685313349458
0.294022449976343
0.298426249336
0.291015672722574
0.2908482713341
0.282342833399646
0.290467056948818
0.281819789665914
0.287640673061201
0.278415172357837
0.284097008627107
0.285092669481868
0.286964663415811
0.278626027099999
0.286421081999447
0.275187299914137
0.281998171850069
0.268461627577988
0.278725006040705
0.266639431049352
0.270757999513093
0.269052991361703
0.273903115433147
0.267748272698033
0.275964918249397
0.267485534696855
0.270417679046496
0.258690694058433
0.274966204176026
0.26485761353736
0.266464787864365
0.257897961983969
0.257535731723507
0.254972787294281
0.262358463462766
0.255819261337871
0.262478442952925
0.26059587667306
0.266861997819887
0.255541312420651
0.260042490582888
0.258657736869741
0.258603356336035
0.250657441166081
0.253902315460665
0.249445412719525
0.255677034271782
0.247823834658036
0.252383582177479
0.242481887843419
0.253562627710804
0.244374301365692
0.246697800785819
0.243247528546483
0.244799718270718
0.242428498441574
0.250523301326288
0.240928039230253
0.245660931308463
0.239593538436381
0.243572395879482
0.23635897081909
0.244233894867497
0.243240159629835
0.243190755508432
0.236042207379108
0.244279951796774
0.235153835783939
0.238650222393113
0.237217063072172
0.239495917687893
0.233013489860604
0.235952845053864
0.235100312947032
0.238909995172304
0.233492714036522
0.241958228661802
0.240123823451999
0.238941088512897
0.228236995664055
0.23737597922998
0.233271985763369
0.232420318028934
0.231321384556395
0.234637728172268
0.233975285603412
0.231055360767571
0.22808316522768
0.227771435774615
0.225151856847949
0.229862566727189
0.226988903082492
0.239770159347183
0.229459403824542
0.23071695451426
0.221483492885677
0.229469185876559
0.222024939956318
0.22906930236179
0.215448604543418
0.227971077643765
0.219020725058097
0.224067941462239
0.218992491087181
0.224685476577916
0.215896261875727
0.221299437849625
0.219202529247294
0.224116805823724
0.217078035279879
0.22047146266526
0.213898458566144
0.218758891980315
0.208871301511042
0.218696675197939
0.208815823431163
0.216415683506471
0.210603676214107
0.214874186993432
0.204974407005441
0.214794707623746
0.206920193093546
0.211809356828867
0.205122479023637
0.211447405046391
0.202861948129207
0.214262165031862
0.21139844589846
0.207708106561248
0.205629289015921
0.207110710819837
0.203198861777015
0.208815910011024
0.201904527105544
0.204410598947564
0.195004721438474
0.201734076811487
0.198705629844401
0.20123024914875
0.195276244895047
0.198751801494431
0.197888486594648
0.201805241235819
0.191955010416788
0.199311720106154
0.190550827693931
0.189720281845525
0.190052254681874
0.194049275782697
0.193749400087675
0.190401454718594
0.184725511077896
0.189087891536687
0.188134114180019
0.191090746404292
0.183289570050673
0.186701494644646
0.183458435020862
0.183557970024602
0.188769127105027
0.186971792886171
0.174213056270837
0.185184525119109
0.173873827414309
0.182339280755982
0.174365114418789
0.176962038573474
0.172903093250062
0.173675000211585
0.170087624619985
0.178286609190585
0.169860115910816
0.171952094864475
0.172570284006039
0.172490714551052
0.162955394171
0.171459967272019
0.166002637037608
0.168117030757164
0.15984477121125
0.167313229596652
0.162694365695647
0.161508344263774
0.162748599334382
0.161760670428833
0.154700977409803
0.165895205279134
0.156749500989298
0.165772923794994
0.157424419024841
0.163697085990197
0.158292695561887
0.161725449953268
0.159796553954444
0.159259759604025
0.154655815845289
0.159304458541923
0.150142149938744
0.158281275529812
0.150669767255808
0.156458545519516
0.150909146849079
0.1544592611249
0.149321418053183
0.154519482280161
0.149044869307089
0.148650286060698
0.143395495516407
0.1509416897759
0.142172748850972
0.14872327201982
0.142799893696502
0.149799030709977
0.141004684764215
0.148042461789197
0.140281699409246
0.143892189913214
0.14464398722553
0.147840114822423
0.139996996837508
0.146523711916326
0.134474043789439
0.140570748017143
0.139821307399923
0.143447203485896
0.134983065993172
0.144549581713002
0.131760223121178
0.139943368611499
0.133489523667013
0.137488803296636
0.133684411310292
0.140809203685863
0.134958594555622
0.13535671374862
0.13266536009349
0.138856541663519
0.131157917369665
0.138046424902382
0.133197877054375
0.135993493948483
0.132860580053172
0.134278403244219
0.131261809982676
0.136198462464774
0.129811262194179
0.131999784706104
0.128921908343365
0.13321651438964
0.128515725489272
0.13351260430466
0.12481987818751
0.133124345335144
0.124824008096995
0.128271066011735
0.125881834173671
0.130005689417569
0.125253494943446
0.127109680185879
0.125628117700885
0.12742868824844
0.125157764834299
0.127964612401751
0.120993974694831
0.13161473740694
0.12374280859417
0.129215508095735
0.12478252769419
0.126459615421699
0.124975763892786
0.124430520287098
0.119384126731753
0.13353123213115
0.123824323209732
0.126603216326416
0.120836464405657
0.126278175691868
0.118417881667418
0.125313464925283
0.120046511851344
0.123713166366325
0.11766782339304
0.123965017495035
0.118626942760633
0.125344949601055
0.119744916535984
0.124476260041726
0.116860504032468
0.121394592855552
0.115133658994323
0.120475992072867
0.113750267454582
0.117571436754595
0.114853650430701
0.119333241560798
0.115228858806254
0.122128647498988
0.114248666109063
0.118197199636017
0.112142722580505
0.117133057233144
0.111200437013248
0.117288229068225
0.114120132071837
0.11753075849549
0.110699381146136
0.115986722877228
0.113149775882952
0.114699080315242
0.109665510471368
0.115535225218657
0.108587490883811
0.113316756305745
0.110654329534894
0.118061020878586
0.109759681282215
0.110558991958453
0.107475939674166
0.109756960061137
0.106685646672682
0.111660815134526
0.1083126183053
0.114156630227929
0.108305911141513
0.111054647836413
0.106191999095345
0.114254664634599
0.1051308998688
0.110336374615587
0.108023163518338
0.111961002076853
0.104931065768579
0.112925182695472
0.104260870467179
0.109513455971585
0.102345441429738
0.10719546881433
0.104717048160714
0.104753394160024
0.103710052400933
0.105582289346806
0.10092262608322
0.108374728464365
0.100787055072163
0.105435238063239
0.101598518029586
0.105471292427871
0.100320829598647
0.100688656170074
0.0969868542090993
0.102589959191105
0.0979907444757439
0.102741256032242
0.0949829621803152
0.102805769458177
0.0996736272599491
0.101090390968494
0.0959084428302837
0.0983068594165219
0.0941551111098092
0.0984406894589549
0.0944951512333972
0.0969956421981289
0.0964083711811677
0.0978067052405307
0.088578913151288
0.0971940183966652
0.0942981938158107
0.0971163723518587
0.0905012296782614
0.0965679374521953
0.0877652075018938
0.0937029790436774
0.0900858153050245
0.095022205991938
0.0863764066104331
0.0914315704307719
0.0865165522443696
0.0919680954981688
0.0887311984412941
0.0896830973801881
0.0870302074974803
0.0901870219001999
0.087477121724524
0.0940805756609743
0.0864230355145547
0.0932298759895379
0.080658566565167
0.0869770972325764
0.0809547979251654
0.0906613877973287
0.0815928210847448
0.0891204400043079
0.0811455288825276
0.0875009767265985
0.0829591782862484
0.089705294315499
0.0808738839167883
0.0869564139569243
0.0801648677513989
0.0850321590020301
0.0775349432591658
0.0841192662727765
0.0755536140378009
0.086439921509866
0.0788934727788893
0.0858613317679556
0.0760083478220773
0.0832295854546074
0.0783193797777649
0.083995323664337
0.0758620344593119
0.0828706788833488
0.0771476597027247
0.080620452751281
0.0748598135559178
0.0820865844836736
0.0739050174147971
0.0789292047402295
0.0733178109250011
0.0808737852401096
0.0705839224941254
0.0794643678856134
0.0743415410854089
0.0797636097899349
0.0693381516167983
0.0771335467013258
0.0725025809954771
0.0779198818189358
0.0698983825548825
0.0752891029968888
0.0710931488844923
0.0770848777692741
0.0704943776788681
0.0758939890398004
0.0703916781061735
0.0753588363941703
0.0698286911842835
0.076935987547323
0.0676757476624944
0.0764242224923352
0.0666240134792544
0.0756944420061947
0.069186517683025
0.074411638277054
0.0672310939326963
0.0757471066570447
0.069480900680585
0.0757605959542844
0.0708358222510539
0.077538404769673
0.0683801360573649
0.0769050656675249
0.0709572537054259
0.0782666074550483
0.0678560370870369
0.0729353534691051
0.065769217466169
0.0767826556278086
0.0689479709237069
0.0761325717760713
0.0677153831563134
0.0805957614678071
0.0710071125462138
0.077157341976413
0.0581193867833256
0.0791282591378765
0.0661067166061035
0.0824455108824053
0.0599631869155377
0.0818979428707075
0.0653879566514702
0.077873722910226
0.0639040413416754
0.0824590391512751
0.0628348133208563
0.0823486862838225
0.0614968008874259
0.0783828882092057
0.061798865586465
0.0834036063145668
0.0677735237704026
0.0756741476747455
0.0642883026915044
0.0792389978447971
0.0522469601843291
0.0733645683274601
0.0564949297840578
0.0745485979654513
0.0505384820703392
0.0837537633603773
0.0490664851650062
0.0793317772989284
0.0477171866944351
0.0852583354765184
0.0495144574985676
0.0861017424772042
0.0467961089007626
0.0920163844241642
0.0482966858493606
0.0908395174048893
0.0438717767365351
0.09266727160121
0.0382961151981489
0.0931259868342385
0.0399672149347813
0.10359114628422
0.0439404231620949
0.0955596596441298
0.0331349960046107
0.0986083900292849
0.0506463301369693
0.0930115168467003
0.0444455532954976
0.0826909975325787
0.0655049900365122
0.0679134273174103
0.0639600795344209
0.0684422492964887
0.0796980324732392
0.0460389031196675
0.0856885031319143
0.0477067621424081
0.0894042336091287
0.0455932864811879
0.0863432785510445
0.0504498344738344
0.0784181350724793
0.0579754435213777
0.0668664610369059
0.0678734077665002
0.0625993930569384
0.0628895384916444
0.060525525350389
0.0663636092313715
0.0637596928100098
0.0610518927604656
0.0679649888550346
0.0580810643378141
0.0667578400020401
0.0588504415481898
0.0645812591991842
0.0588408109601132
0.0639547167065213
0.0595621354398332
0.0600303446965012
0.0621462206980522
0.0595540864904427
0.0592656783363565
0.0610759686744762
0.0632054993273043
0.0633171976961488
0.0598646069489191
0.0623069145888258
0.0590810701605988
0.0630531160168179
0.0598293012404791
0.0605977060767671
0.060147030029752
0.0610455565135507
0.0627693142382219
0.0589028264761209
0.0633576298611847
0.0592342878218698
0.0619420483344994
0.0613094564958504
0.0615911601539638
0.0611769981420822
0.0616120247970275
0.0602211926019657
0.0639173155867249
0.0630093635268056
0.0605170875893951
0.0595095195565639
0.0602610652120016
0.0623138994771972
0.0610808619513452
0.0637912081240224
0.0630614754868829
0.0621341423668745
0.0606266487939502
0.0595152724054826
0.062865530854638
0.0620941270186957
0.0622057629969611
0.0597282354910888
0.0620049698021126
0.0615753952060025
0.0611070386606022
0.0617039702970041
0.0598486516806527
0.0599145190528819
0.0593955292361167
0.0598649799404703
0.0586220468308573
0.0588542816903536
0.0616672476209087
0.0621738712408415
0.0623632452717908
0.0605121750850112
0.0634854289363962
0.0611165674094581
0.0603680489353016
0.0612834467120397
0.0650771568251605
0.0619433889155406
0.0591992889926648
0.0594285231804867
0.0602698811394665
0.0611463289572092
0.0631960996157037
0.0595218868825809
0.0626293120678766
0.064361993895167
0.0638707336561581
0.0602680747462948
0.0646585819237089
0.0620179790414294
0.0626211149425606
0.0595807456426635
0.063140012785889
0.0618329618969805
0.0621221448854067
0.0624436752399633
0.0626229004620623
0.0593716890736367
0.0643772352732166
0.0611015567608205
0.064970810288266
0.0610108147323964
0.0653024012887693
0.0592046379299875
0.0642790023628711
0.063509453377827
0.0648930602024803
0.0596617432478583
0.0640874215160131
0.0626374972365976
0.0663872524136354
0.0617799674518939
0.0632604727342149
0.06169886504637
0.0648787832460051
0.0620249897071913
0.0626743422410194
0.0588494362756606
0.0655125359746193
0.0624685258979792
0.0656866802507906
0.0640695132832175
0.0645988842247413
0.0629353102072726
0.0661602281426096
0.0626749781594745
0.0640534234500106
0.0653162719598594
0.0674036867378859
0.0611497020924706
0.0666191802780733
0.0614057687429341
0.0664579566621997
0.062684838969115
0.064601850905361
0.0649461289311769
0.0647037575003225
0.0634964392579046
0.0647405563547905
0.063648793844023
0.0656238476084937
0.0645939255542197
0.0666740322954079
0.0637606702583673
0.0657777840515092
0.0650808064988418
0.0655883771516579
0.0643053511744043
0.0661432290213334
0.0658487233602639
0.0659653781530559
0.0659773306639469
0.0649261266445788
0.0639666672629596
0.0669028632602127
0.063707547618299
0.0661074796279369
0.0658270466367994
0.0677325259756451
0.066258273001614
0.068487489842611
0.065513869561072
0.0666600365218717
0.0661885987293069
0.0683518483853526
0.0664421448366118
0.0685381796792749
0.0680605921006873
0.0652148645165501
0.0664414214632891
0.0659533843669011
0.0677102537210871
0.0671499829164929
0.0657306730163656
0.069430096566791
0.0675129124130826
0.0675981447447474
0.065544035334332
0.0673446266635243
0.0643828391651792
0.0667858357944661
0.0644452810516192
0.0676461630220611
0.0676470380752706
0.067670701324177
0.0647853334635218
0.0686183023218691
0.0607184847741825
0.069447921602063
0.0639819814985152
0.0652531177979878
0.0659385927426456
0.0650217540520305
0.0634017008400481
0.0641103891848368
0.060693103548241
0.0650801055616307
0.061017591997977
0.0645388939663496
0.0622304030212116
0.0653825066945596
0.0616747789959234
0.0658919669610056
0.0621133765238322
0.0636831540834307
0.0640182500343988
0.0649363856755599
0.0622666703420621
0.0620455444210513
0.0622470343768783
0.065596162765714
0.0631247265430356
0.0652605337884136
0.0609108178737417
0.0619598696420162
0.0625554830511633
0.0648268883880402
0.0623393037664649
0.0614065146876169
0.0616559871433138
0.0667548136734356
0.0603537098950658
0.0638936166624925
0.0601754712173964
0.0672556775782866
0.0622088802330166
0.0623508050056876
0.0591002781017763
0.0638034845834801
0.059329750615604
0.0641810000907907
0.0586937934586931
0.0637305009143647
0.0608138182918069
0.0638684108038609
0.0611360842353767
0.0622158832401438
0.0602040352284798
0.0672440591001849
0.0609981297285479
0.0604036219579482
0.0592084540662682
0.0635118119550557
0.0605693872031449
0.0623006821052214
0.0583951396026532
0.060484871659144
0.061096659156129
0.0646108014489506
0.0600287729386263
0.0618177905621479
0.0612948666056591
0.0621446944221001
0.060008564706575
0.0619830387191996
0.0604535788342155
0.0610225905286554
0.0583334187671829
0.0600474880053179
0.0603160014885597
0.0584842807494973
0.0603213176133366
0.0648178565682233
0.056132556238858
0.0638812589446978
0.0589770587011248
0.0604306428379081
0.0596421388935643
0.06065410858739
0.0597084666887989
0.0602699197751548
0.0594837979317078
0.0597527712062481
0.0560269437807699
0.0626831255570966
0.0583443248014335
0.0603094424243169
0.0570415740658902
0.059821531627515
0.0581878280335831
0.0602350937435445
0.0565158193750981
0.061876785033914
0.0565922940404251
0.0577317391730756
0.0560975290421812
0.0581069027184007
0.059733957494825
0.062949628300047
0.05700431478547
0.0575406218193803
0.056242321393462
0.0588000088445748
0.0550820976763616
0.057744603789554
0.0553995207550604
0.0571657066666911
0.0550569410692266
0.0570362186262662
0.0552067846789994
0.0582902495703029
0.0576874955469963
0.0570764157425905
0.0530882467248452
0.0550746992406186
0.0521919017239506
0.0545799539471258
0.0548736682248647
0.057421345507919
0.0522236683548343
0.0544601860988781
0.0542892136683647
0.0547395343634942
0.0564445359635959
0.0566725057163376
0.0534480391169308
0.0564285045586059
0.0497258530247444
0.0508532257799803
0.0504260163472837
0.0568305026455759
0.0502611982679034
0.0544784496936148
0.0513988136720078
0.0526339460496286
0.0483589037096056
0.0519155184966943
0.0492928536314116
0.0509133659296416
0.0489370224480797
0.0518904561817559
0.0487908035448836
0.0505187630499979
0.0502457520533358
0.05051482084557
0.0479689452027533
0.0493039911560047
0.0498363301931937
0.0497297739022634
0.0476477815571933
0.0569144259598034
0.0497600328836014
0.0513173732463984
0.0487083439002279
0.0536049835113405
0.0463633415602452
0.0511402983954832
0.0460525500654785
0.0508012396523576
0.0467840100709156
0.0517925543690962
0.0462614113765788
0.0494235998900013
0.048180612155015
0.0485734391718521
0.0489128919934926
0.0516314704994431
0.0474729685783916
0.0510160617809924
0.0471978649624119
0.050674935725706
0.0478334414466429
0.052187526581466
0.0469826724084804
0.0512760677678339
0.0443511711339921
0.0546080305613608
0.0488207725721111
0.0497387936088278
0.047871904913926
0.0473107262785151
0.0445460537282247
0.047608371903753
0.046620572700968
0.048693165804827
0.0459021637920966
0.0479429721788432
0.0454607357495457
0.049767901752141
0.0437322201823242
0.0499525307151391
0.0452176782118586
0.048952772731206
0.0454901528498901
0.0478309105941639
0.0451627292653695
0.0480860999888621
0.0425639924966283
0.0458629905787151
0.0428686826511892
0.0476988498446538
0.0453961206814445
0.0403303514601265
0.0614602411587151
0.0469831939387736
0.049508208203173
0.0452624205941529
0.0429592489462174
0.0463365322467618
0.0443715735650989
0.0457671573153019
0.0445310228316292
0.0463787565109629
0.0439941429467042
0.0427152158366141
0.0467099528910892
0.0441905161695695
0.0436652929107306
0.0437781353665167
0.0451886873149238
0.0453092479699865
0.0446038567802702
0.0449047314408667
0.0419124105086382
0.0518684049557682
0.0459136942156399
0.0438712335002479
0.050450735200779
0.0362018173743999
0.0527237619110501
0.0550387690294108
0.0406265268133668
0.0481315638914063
0.041249078925111
0.0449781377719034
0.0395684023545274
0.0487886190717306
0.0381086911400087
0.0539107902225101
0.0417430857099454
0.0503059956458458
0.0413135317959766
0.0468991063782108
0.0408246090437294
0.0481399240490485
0.0423671101662955
0.044830717556459
0.0442388976891055
0.0458192782183756
0.042163038118345
0.0459243754946622
0.0420152118857073
0.0447978418107918
0.0379486171042621
0.0527072051544157
0.0436426513629905
0.0473087080745066
0.0440155632287996
0.0443065486802245
0.0356218364565063
0.0660636998984707
0.0388475846900933
0.0475673187910673
0.0392967599693764
0.0472708846318129
0.0408918427175441
0.0481188945619164
0.0429688466539927
0.047985183423122
0.0405677463291878
0.0479250553867345
0.0404581889237888
0.0456461570759456
0.0428539316624914
0.0453046209767637
0.0453922203462654
0.0440428766445749
0.045669308230549
0.0443471889969871
0.0453608052025126
0.038792002844078
0.040657254754937
0.0686789836270621
0.0413252270425949
0.0541607056143507
0.0447744679435032
0.0495243515013326
0.0395017426708364
0.0515813904069668
0.037546530278277
0.0507177410049182
0.0373844430205246
0.0495201077765092
0.0412005699398175
0.0492242952178671
0.04021296659144
0.0487089059274257
0.038101344033176
0.0489147634820479
0.039423876582085
0.0496695075253871
0.0380528901527071
0.0530556787338291
0.0358019626994282
0.0554032101777448
0.0421762046045418
0.0562554362539854
0.0286101999325921
0.0523470666691763
0.0736777727899201
0.0364420370010113
0.0549415963778869
0.0412826648484513
0.0466037256078814
0.0446496793713568
0.0424204613638733
0.0493756907045005
0.0499174591846257
0.0462664277056139
0.045709957637778
0.0437220227274032
0.0482734584255911
0.0417506658856436
0.0348344159046023
0.0669927621861825
0.0515349007629653
0.0495663410420771
0.0477003305208608
0.0295698047363036
0.0680499886920827
0.0456651864777354
0.0469516784407203
0.051413667976008
0.0450875025412497
0.0507472637943943
0.0476174245119287
0.0489346294318068
0.0462113012254487
0.053936082590752
0.0409665087787867
0.0513603317213741
0.0406119455502511
0.054341608800406
0.046722868379638
0.0552106042272725
0.0587594077144611
0.0468049471049861
0.0461566059009867
0.0543590930570905
0.0453130283505275
0.0524259117097144
0.0466550737395327
0.0513176107604353
0.0474151197979321
0.0651662407380066
0.0433819781222139
0.0564913237412877
0.0595936214179869
0.0461559172606226
0.0501458188730387
0.0538025659186189
0.053019210825256
0.0517009675525854
0.0285336816640272
0.0886585150556753
0.0393275577483129
0.0765436655102826
0.0425327055953966
0.0608121638698411
0.0421492305502256
0.0609695326216361
0.0379965453254134
0.0654208313667135
0.0540056437650955
0.055582906843876
0.050522330664532
0.0555850349562139
0.0650946255721311
0.051609908036057
0.0583689821427578
0.054493566226015
0.0557504666773192
0.0539326109588724
0.0670008091625065
0.0316478287068631
0.0747583824302027
0.0753014888220623
0.0607329565641513
0.0728513037116025
0.0343661064163765
0.0951255428420604
0.0613868449868083
0.0602454598140627
0.0559247652538333
0.0595028756220445
0.061420496157592
0.0405170420892953
0.0774491285656462
0.0738222730984087
0.0508750269839877
0.0745345069351452
0.0439193471081492
0.0770321135113676
0.0729419167923616
0.0647648915235202
0.0594764499503954
0.0756815109447469
0.0461823893898974
0.0779819041584125
0.0913192597235221
0.0515446205077392
0.095633817846904
0.0616934183335071
0.083762720552905
0.0716769176783798
0.0772851395589533
0.06623923406687
0.0897843448371603
0.075598431890892
0.0669012573826041
0.0654523506362957
0.109402887899911
0.0692726982034485
0.0862204604238019
0.0762232238274271
0.0627519195552226
0.0821098819107435
0.122167952376194
0.0987606539112523
0.0938782402973474
0.0714568752791196
0.1050167700459
0.0897025675016506
0.0847972239293006
0.0897620109928903
0.0858362136615571
0.0937068568698465
0.0876327154021046
0.101033061604331
0.0970351576104388
0.0923473592354272
0.101647538972799
0.0841752065477915
0.103464967286972
0.108099371335055
0.144588265001679
0.094153059611113
0.132949801139276
0.124086889782452
0.109596152525511
0.112732746288154
0.101467855740304
0.123209369048155
0.113991784487067
0.116112652896637
0.108214817860189
0.125761924435463
0.140655811674344
0.0958106083967324
0.155387858974169
0.117623990044325
0.142847120624165
0.0673806720785072
0.263008068738825
0.164736500438529
0.144560363965394
0.160433768768732
0.0957620186051968
0.23936902064085
0.164427426681358
0.168391529828807
0.171307868642875
0.18055443900286
0.180279702006722
0.195124141615951
0.195408582672686
0.207947540043655
0.214388846945931
0.202893514731167
0.197867028194969
0.287723207630134
0.254446242966078
0.269881774318242
0.230152202033124
0.264057073174273
0.265580171593948
0.26818406995799
0.263078890474437
0.28984253813858
0.244758285514933
0.367021259750777
0.292232303084384
0.321601240166201
0.299245350116642
0.356626906863137
0.30931684993253
0.370298548817269
0.381637122357738
0.340750695231982
0.369199886488657
0.355448315005758
0.391717577673562
0.349154795872225
0.411455125147355
0.406019503712395
0.392386090785948
0.413879665653208
0.396566876741533
0.415011777621995
0.413534171088709
0.439804857483106
0.406396228839095
0.459188834736915
0.416480722372985
0.532785801929012
0.47910134483311
0.419863680164569
0.443798903142177
0.417893268529837
0.462975235889903
0.44641502821951
0.459633536036534
0.491272117702994
0.430442418688286
0.465684329701565
0.438443783138916
0.453336990135859
0.439249386116337
0.461396948852144
0.427837192408157
0.467947562710957
0.454869818406686
0.41044360727189
0.536392453655214
0.437345410760924
0.452168304630656
0.443588657321855
0.441481259651252
0.427574059059412
0.442115572259489
0.408706489449094
0.469832962870334
0.429291643128757
0.431816415654158
0.410143902922302
0.423273107890908
0.444422938550664
0.406325483723195
0.419215999614752
0.396264363080034
0.402617986595998
0.403503604435818
0.372626531933751
0.46471006873647
0.397448623361745
0.387260487183431
0.388162356912624
0.384432375001827
0.380955988970855
0.380436768219366
0.374637722383933
0.378209348773619
0.369420108260133
0.367345996047838
0.364008019206375
0.373239840866789
0.364112033823374
0.355317464049032
0.366111026414622
0.363046303914998
0.365125439388263
0.356246715282908
0.357665565992609
0.350992697821381
0.356680605341323
0.354004279891068
0.353224047070135
0.35506210298456
0.348164518172566
0.357081870191922
0.359899682814577
0.347803834735124
0.352908606140131
0.349029637004548
0.353463613554321
0.341624762497312
0.345914881153333
0.342289733265644
0.357174826232336
0.346038241323111
0.350437170987833
0.334370988475041
0.344066126512658
0.331154417499765
0.352802489001295
0.312831768520461
0.352205554161129
0.375755108023625
0.322546163144257
0.343681613411239
0.321821989732188
0.342872033165609
0.306908046680541
0.348180274467354
0.353883747533441
0.322486160612332
0.324254782085278
0.310466284871866
0.314841492963947
0.333185154934821
0.295522931869691
0.320719588958009
0.288922519441314
0.286084906798519
0.39174465855381
0.254070376415896
0.392520036839876
0.308134638061135
0.305508996025889
0.265460165686843
0.344819937113926
0.282788050149565
0.307075223998139
0.283031330559596
0.305642698667535
0.305678329502295
0.28094359884824
0.292187324250271
0.278090235453453
0.278939999610195
0.309247471173471
0.279721255561201
0.267043090915953
0.320743620018874
0.272148113497068
0.281955531916364
0.312200530575365
0.298974161787267
0.265812035712022
0.261101603016004
0.261930037402077
0.235964105920908
0.308999140125858
0.259810249470501
0.260604126005298
0.257353197888968
0.23571809188736
0.250448872822894
0.237716329900711
0.266031087082437
0.218616057752842
0.282846049093762
0.226470023448545
0.231076036494007
0.253513434815877
0.234442031406892
0.272488611260781
0.235667407456597
0.227725754683235
0.218697213652937
0.276458521453788
0.22030663866185
0.235872803547021
0.219918992309062
0.207447996923697
0.228511819642752
0.214810201171228
0.206756091645654
0.226904881649062
0.20009649331057
0.240684641720299
0.22574365940136
0.245995766936009
0.224474676910492
0.201755550519185
0.208734397630681
0.202888221470402
0.211147497862646
0.202733894667564
0.196392527164827
0.238896120528469
0.173973237827784
0.257455645540583
0.21889066566343
0.212264846248189
0.215905574589212
0.213654338498871
0.208443598541168
0.238223208337646
0.240672853223918
0.24977231875354
0.215370796367533
0.257887159894164
0.228020038367293
0.249696827206313
0.23129884236132
0.255002466259448
0.24987237610819
0.265241101761239
0.256320435974694
0.270790601843771
0.26406751166161
0.281271393445133
0.265303096769382
0.332527988367727
0.274968228412613
0.3197080316225
0.312091305160032
0.340634334133368
0.342541007509296
0.321763933188652
0.339480636165472
0.337306146320444
0.345633605859807
0.354772691168791
0.332252217139238
0.400865948925007
0.358340857739397
0.3725728897422
0.367634432119635
0.380260778538414
0.374074403007383
0.3924793541487
0.400346076280869
0.373622707592043
0.460052430886848
0.392946506177584
0.418270486445641
0.391134922447301
0.407885216073077
0.407440634186701
0.401464815104375
0.41758410838325
0.401513802040762
0.429189516230603
0.419713136200731
0.414803153946273
0.422405335019365
0.417913002910484
0.423637422912501
0.429227434026814
0.430892788154149
0.437210525053566
0.435349732898538
0.45140071979149
0.411312095908015
0.489044071974094
0.471167217418635
0.447482415218892
0.463286775084603
0.45866931719934
0.468295935884034
0.457578466993612
0.47459496681437
0.483716814744422
0.474046168185605
0.480875037976253
0.47824963778659
0.496482801593852
0.489116613934366
0.513692771363627
0.500241751725714
0.498951029017196
0.504347918449893
0.470212625258499
0.561876668386658
0.495589830360281
0.531677964538503
0.503935314594527
0.52560005206336
0.512367813311917
0.518914857775539
0.52293532314038
0.528239541916321
0.51831367333726
0.521875325760051
0.521507501314765
0.518361498401592
0.519720394641542
0.51673893250632
0.529948658370591
0.520944227125849
0.516075890122527
0.522766567655827
0.519814126390905
0.511105889510304
0.517773131654159
0.539999431350928
0.509840107089075
0.526532753260253
0.508771241859772
0.534047729799909
0.537450666493982
0.514499439698313
0.510220411185497
0.515542617699146
0.505974135690273
0.520529973559735
0.508856478151584
0.551361067259714
0.522711372168118
0.525717162364023
0.525657617255395
0.539389940717152
0.528779664338857
0.541381356543761
0.535386935429019
0.537969508630322
0.541484416775746
0.547449358947347
0.540940171867649
0.545714360620534
0.553555443982256
0.544711282034641
0.552429307731615
0.54582446993263
0.534461745541314
0.546014965067596
0.535491259676303
0.547843355110133
0.531203342496279
0.526287634002688
0.516472193526361
0.525571002854489
0.499516158858372
0.52686614268671
0.513520828028829
0.503998146372084
0.506950675616257
0.479826243722761
0.492260217116917
0.487430134239301
0.48503032483529
0.471199069585833
0.48237452121748
0.469636097045629
0.47035706402734
0.471820671800354
0.462597951881781
0.461767565308955
0.465778229923021
0.459232848496161
0.459365173555259
0.462334904256534
0.461512308311914
0.460306996683131
0.454155269095442
0.460569153650258
0.458226526268386
0.462346837010967
0.469955053240025
0.463644929436319
0.465372128515759
0.452948644850287
0.463776356586139
0.452234582622345
0.457503322569532
0.449562352665144
0.456843523301601
0.45348659502953
0.455373934260045
0.450548412785096
0.453045925991998
0.453476060420445
0.456810127454009
0.449950096490967
0.453313043959736
0.451118639133162
0.453096030631356
0.452396392494423
0.452508337613957
0.450538559568549
0.456225029099871
0.458488062150711
0.448294842237572
0.449332710153229
0.449290846840031
0.451555986293718
0.450842505878909
0.45186639088125
0.456245954568317
0.447258690848121
0.447653449996931
0.449261620240801
0.450660268869792
0.449041941749742
0.446909788017932
0.448686379662771
0.447134560395179
0.443401073893661
0.440144405145775
0.434791128662012
0.433617797229913
0.430530699297151
0.425594826867169
0.427651512047992
0.422013338076595
0.416396579134249
0.41141667989735
0.407078750188728
0.403740750502937
0.400532920293918
0.399431381349239
0.395513479831033
0.390742275980957
0.388320875146635
0.390434934169236
0.38865889715348
0.386823427394658
0.385480471893718
0.386372513427279
0.387957014046338
0.381762645968995
0.382803880246629
0.384517764322983
0.38499854974558
0.388172871671256
0.387965562689041
0.384562960912607
0.389967086342973
0.393242471075303
0.394901911900822
0.386287487327321
0.392692443642646
0.39702880935083
0.397054438174445
0.398324982547894
0.401339406418048
0.401338471590956
0.401074643105803
0.403366035199607
0.404017023250812
0.409019636057488
0.406930825189545
0.411623278989428
0.41236463298107
0.413051326083108
0.410144546861943
0.410024551164731
0.415642751411784
0.414565381989811
0.4145032569077
0.409027022421147
0.408279701029608
0.414937841303319
0.407593135197381
0.406176405483883
0.402924428906665
0.402923199069313
0.402223257101168
0.40039855766832
0.397702731471105
0.397671779610887
0.396508376357393
0.395575824157336
0.395656341237814
0.395861519613237
0.391253452535041
0.391106514147699
0.386849541941962
0.386231742963575
0.388675987006708
0.386156121195304
0.384590903023069
0.382525897673082
0.381929849765506
0.385162278649061
0.379657969506809
0.37731090855829
0.375160374048769
0.374756654593802
0.376678063637137
0.377417553631005
0.37116274112484
0.371145455398113
0.37068916809671
0.370124948866821
0.368945308706769
0.363207473770213
0.361552280796699
0.361274186806619
0.356233918766725
0.35891515521878
0.35866073630755
0.352275587435832
0.348848407772904
0.346144941890109
0.342090673734138
0.338851740100754
0.335879076330833
0.337008540725022
0.334734184085338
0.331530408768169
0.328904271257447
0.330989249876222
0.332106668243871
0.327146678843991
0.326978821444172
0.328950421666548
0.325901183880526
0.328921647542183
0.324241086795846
0.321836974809859
0.321420420353338
0.319713772089691
0.31646931966094
0.312393960605657
0.309986598188774
0.304955607669975
0.302324595999979
0.299745689765801
0.296721718344577
0.293716110026397
0.291195584532595
0.291676077241571
0.290155451347419
0.289319240690366
0.29364591935774
0.297471483944028
0.303060973276031
0.308890791244721
0.318151343706292
0.328363190966537
0.339781960763642
0.35164328775949
0.365146555615047
0.382296669163902
0.392968628517179
0.411047863224668
0.432044134979065
0.446008017821001
0.457352535295618
0.475096736078791
0.490507180225311
0.505814958499948
0.518734544235117
0.533076633530519
0.549164292861368
0.565457985173303
0.583564326684154
0.594557577983181
0.604683353638818
0.621378447792391
0.63173334266648
0.640686897804289
0.651798005837594
0.661693544647828
0.669204040250568
0.67593374136312
0.686466104454184
0.690228771779084
0.69314935730587
0.701421468584643
0.701140968233375
0.708927428407153
0.706145748786973
0.704756194465964
0.70953349710143
0.70729223845306
0.703849871019642
0.711065602778125
0.71322879121773
0.703105765224816
0.714962156890742
0.720289071605416
0.718257760197961
0.72784166683016
0.728678157858787
0.723993768485754
0.733710507097034
0.739220574108044
0.749237590918461
0.75281990424511
0.758898174932019
0.773335652504881
0.774385731196562
0.777294734641179
0.786776791387194
0.801812135026305
0.815256135328317
0.822518359570672
0.828227067178975
0.844677672666504
0.865158151540064
0.874609659430494
0.877051849092294
0.896766430266908
0.908659821263357
0.914758235976821
0.919228496439819
0.91575771053865
0.91820835620621
0.93031305862006
0.923945113417777
0.91927058331645
0.91944973162415
0.908785417808309
0.905885006414158
0.905242681764097
0.907857784087916
0.900870890000494
0.90578930167444
0.908339919430483
0.909458620670342
0.932149554895165
0.946966260901163
0.958589048070836
0.968463625413768
0.975477364349426
0.992150537254366
1.01785044864993
1.03286118862405
1.04848571899981
1.0697736792595
1.09871402960004
1.10779722602315
1.12127203715298
1.14583820090138
1.15419950927704
1.15065281769644
1.17406141269879
1.20776271795357
1.22709347482529
1.25790184045655
1.26967472992546
1.27047513574356
1.30359587132039
1.32007133237549
1.3170833675081
1.35594690452452
1.40784320197375
1.43052620489553
1.45265273320614
1.46827110602423
1.48959715485446
1.50406655928166
1.5229524760162
1.51245045790401
1.55126497963662
1.56482592306081
1.54085586912439
1.59772025861618
1.57374524919538
1.56918093635861
1.61942162860923
1.5877085326329
1.56013424648144
1.54911144453015
1.56814175855407
1.5412304810031
1.52269946344883
1.52202376211367
1.50487258299683
1.49339456630958
1.52951344796353
1.5687308831661
1.50048023030013
1.56743034497289
1.60086282986116
1.54195985696304
1.65088625617487
1.62857929198393
1.60516264715682
1.62696886618557
1.68156162396301
1.67263296003977
1.71239688276922
1.70144221516084
1.67629540479528
1.78556578653467
1.72740657262973
1.79183132842564
1.78986019288615
1.67615852387938
1.71975483021107
1.68596289619975
1.75791057316938
1.94030883429587
1.8613865327932
1.80049345857739
1.78845942447118
1.75679995573651
1.77588903809908
1.83670229686678
1.89234495014054
1.84620515197111
1.78085133136684
1.81978321159742
1.81438023145445
1.8424350737591
1.88569783316449
1.78682341619896
1.75693880723137
1.73517710722241
1.79101831084216
1.69141226471886
1.73231682927524
1.73793727540109
1.63381737291636
1.66996192871797
1.62482729542654
1.574369868095
1.50932061432886
1.46242289959519
1.41010675454221
1.34766693090926
1.27420420548964
1.21048584762472
1.18611781333193
1.16321634025935
1.12081307562496
1.07879402686654
1.06650534308443
1.03138208620285
1.02397090727922
1.0279383650297
1.00666951742528
1.00857923403009
0.985140000672168
0.981600009473488
0.967995793684547
0.954409875159643
0.954737247039727
0.9398536759582
0.924189240129773
0.909608186014475
0.908142694805549
0.87286789782487
0.851070177822908
0.842996826762279
0.823841953318542
0.785790708810518
0.775812856225246
0.755087669703395
0.723555197918521
0.702809485503676
0.673233899126224
0.641791961820517
0.618225762529063
0.584937423861407
0.550203525992832
0.530411518283922
0.508586408825517
0.481122632210357
0.454415229283315
0.432854279528513
0.419003009661887
0.402883503687162
0.385990324335314
0.369071218202753
0.360033834488077
0.352495074854848
0.33218129111906
0.319719315500268
0.318789313721279
0.314037015937975
0.306942339457796
0.304980635990436
0.299312094753445
0.299999082378973
0.294991138073195
0.293324623511454
0.292052065781513
0.290518884458164
0.295780465182499
0.299516780424388
0.297017736687816
0.298499730856008
0.300719236916644
0.299217817384164
0.305321429583415
0.305881932552074
0.30589312937037
0.308177082584702
0.304669241924065
0.306947223244817
0.30028106632413
0.299324567712094
0.292105569306267
0.292088170633473
0.290299806211043
0.288262474270053
0.286699191468673
0.285330091009344
0.285768514688161
0.288146225867367
0.28662509844399
0.278511657101119
0.278414371183141
0.288236964391463
0.288611977943519
0.290136743229956
0.289080570102478
0.298332580754803
0.296451376049359
0.29689941593994
0.304286201324809
0.30568047686761
0.30426658052286
0.305930028497606
0.316594176001229
0.31672230381366
0.318305014426782
0.320117511991908
0.323244161552251
0.324780760880215
0.323783867892236
0.324495342437653
0.327693407816215
0.327599046881572
0.328435713366168
0.330982497805646
0.334328375857405
0.336354027421121
0.334288957951325
0.342379586242079
0.341520167391212
0.353660947536157
0.364805987596643
0.363102830620095
0.378936233068791
0.393806837957468
0.397933641933996
0.407143935469167
0.417175166390265
0.439430335000604
0.445307390892307
0.453976381484931
0.458471474312912
0.460609782880399
0.463429874098956
0.4448875230517
0.445473482090987
0.446916245482369
0.440859209224896
0.424714830908442
0.417660162761363
0.418430786889076
0.408560468983426
0.407764819468781
0.406060833232199
0.394337597495284
0.400983266353571
0.402444004227991
0.40392549238587
0.40546891406153
0.404994444900237
0.410589506938983
0.410566725749023
0.400329741362576
0.392483557485702
0.391405062177409
0.393424894514519
0.388180650569241
0.3772924918206
0.375518285973002
0.366779263256813
0.364235525329069
0.362877703036898
0.364618174995897
0.355423755997362
0.351495645021244
0.353752857700902
0.347032284031562
0.351294049491386
0.34357759351293
0.341356004446203
0.343915956900793
0.339696205761644
0.345401866674516
0.33677399779525
0.338480139086124
0.340162760512623
0.343671191331294
0.327858899900843
0.323899084077158
0.322202563256426
0.32028532053952
0.32285052945977
0.335534219890629
0.322941628052613
0.306990903126191
0.32194994609495
0.316421622675508
0.317444680913614
0.313114875120388
0.308572421499497
0.312337396385062
0.304910795430808
0.302950576592699
0.310774834873103
0.30780473825838
0.303927551709801
0.291854404121939
0.298744191802614
0.293382208852261
0.296702072496088
0.307698461707591
0.30663469678371
0.294016730922499
0.300924651138027
0.299262562778192
0.307325511522968
0.301987050775454
0.304836858450595
0.312820911546982
0.299285442642158
0.310040871841013
0.322225724056642
0.31411149351946
0.314340500723168
0.304163978020439
0.320955504156744
0.329136869260697
0.330935883357483
0.330748605413925
0.32826199985728
0.334944281458933
0.33231410352549
0.33863548760124
0.3339442498506
0.336154360639127
0.347592980197634
0.345712761974628
0.365445603141945
0.36950766535059
0.359126386288469
0.358136083999384
0.375261487494618
0.383195514283184
0.38402839179962
0.414497519892946
0.417076768543514
0.450409752443595
0.459203129641412
0.445757227134767
0.460293603399845
0.491715643678714
0.515018534025216
0.505008042764347
0.521194693512155
0.551415212809818
0.564838975894227
0.560239660979161
0.570682095619037
0.566149982280077
0.585567829283597
0.581189854852252
0.562056213935836
0.557524355793553
0.611364514022741
0.575450495338966
0.574887520930289
0.560830773253449
0.54889516796184
0.534791688246172
0.53655577133123
0.545854777158536
0.560446889383843
0.53486966630298
0.527948623655021
0.558426429331288
0.552039607952626
0.514870693106349
0.566799624963004
0.534686342318171
0.509173802764086
0.505493847801974
0.516133866524829
0.51680901723329
0.528472519076559
0.523057037125253
0.521642523860421
0.471969342912922
0.503630248832003
0.473954666035636
0.507208998895218
0.453148909370829
0.438292887434332
0.503286453350563
0.477465570360676
0.473110300193823
0.479422242948866
0.496517088460932
0.482821058276665
0.505926881065777
0.502906613645715
0.51972811418979
0.495268808501168
0.469118185036373
0.509657517144706
0.514523208481787
0.495694476040073
0.509266043939402
0.476236197378675
0.488378372263619
0.518287900564428
0.493740384579974
0.517933295120474
0.523568668269532
0.517314382746214
0.469239955728752
0.545442522479786
0.499637596994749
0.485668074026921
0.512299569545128
0.564463670377738
0.523444468933919
0.548439107257206
0.555487726696924
0.520414679151466
0.559524413744352
0.586078396065441
0.538728193641679
0.546386901717971
0.568190518740096
0.572522787874744
0.537503555951521
0.612306094744
0.619436015235255
0.607100497006031
0.620803660714564
0.681065370862669
0.569296983982617
0.596132713136526
0.722608824723161
0.66292031405563
0.698552390739343
0.707754153624635
0.644739346558211
0.814027853253511
0.772382697236584
0.703187480398747
0.62944382534055
0.706324254188752
0.602956512428968
0.718544781883894
0.669007153549643
0.668069899525118
0.669693619731108
0.670850903951052
0.615862477860449
0.792130486715442
0.730797036436391
0.60129003487131
0.597324957176512
0.642460711151028
0.625366667022035
0.610864989316883
0.603736249715157
0.771106404828834
0.727902716285655
0.625665727980986
0.612910006979865
0.690783006780153
0.618891491069547
0.770530350727204
0.575509295566593
0.612707582806214
0.670482629047567
0.70897375533337
0.598064557466931
0.614228462259736
0.73972447494185
0.787453133916504
0.832935931475748
0.945721064492724
0.781237510880165
0.8748968773906
0.733801462043107
0.619428668198901
0.705499837687554
0.709575663243985
0.728993049706392
0.685206665040078
0.486026713476948
0.698633114102497
0.857471612174427
0.699191228343912
0.484083371936928
0.813125959346962
1.67654080326562
1.18708082941222
0.432745693093994
0.659189181854842
0.897269070829502
1.01352751924795
0.785400602338498
0.671824056750149
0.658463185669827
0.50881319021306
