3596
4000.36533379555
650.420452594757
1
2
2
0.0629542958399496
0.0672372517763912
0.0530466153636156
0.0774655298731776
0.055211371879475
0.0731755999559938
0.0605796241651014
0.0671858231734758
0.0562302640922137
0.0679280333199044
0.0619344682267042
0.0718807357744786
0.0643607507102227
0.0713438000804557
0.0574558009042278
0.0616839218721022
0.0443469941858093
0.0622173300119785
0.0624781347318612
0.0708229681143664
0.0628363981762274
0.0644442441323325
0.0540425360985003
0.0626619848837598
0.0558904962776705
0.0648761968011941
0.0559103179574424
0.0700308017407685
0.0589063594559636
0.0691533662784217
0.0588331540658577
0.0639823002671891
0.0602133861709855
0.0612781096109099
0.0569422357971318
0.0765072347930188
0.0610353578150957
0.0708464860531957
0.052923321054687
0.0682184485723979
0.0645992031896429
0.0669978692991959
0.0626337822145009
0.0657727719905327
0.0593933724020527
0.0839206067585752
0.059260730207186
0.0757085899372316
0.0602369387491261
0.0672379246074095
0.0632700430055717
0.059665847539974
0.0709245908311219
0.077085363139527
0.0673989991145171
0.086849415040068
0.0613733247221847
0.0624574903488479
0.0677331283057699
0.0645341454071807
0.0872464373840077
0.0774581868835011
0.059695176178583
0.0665164432856715
0.052685393423283
0.0674545346403002
0.0569468994722866
0.0624709581880662
0.0505487815277566
0.0713612416841214
0.0496044428770671
0.0818685212201532
0.0625484903125289
0.0722088415497448
0.0748586872341238
0.0721935958106762
0.054571866281565
0.0635246803202237
0.0500024480117655
0.0864337522454736
0.0800550948166666
0.0810039810015823
0.0515976443230875
0.0579821317482679
0.0672419182226251
0.0775999946001088
0.047402909453846
0.0724952265778676
0.0737198985430479
0.077896629221985
0.050210943647819
0.0671077120048568
0.0583610603761624
0.0572662702494089
0.0434397546033282
0.0703209227009025
0.0558662842594161
0.0754423043065374
0.0424599971889305
0.0885351628891288
0.0481078801250936
0.0957874725094713
0.09163313443436
0.0596603976506694
0.133223306261719
0.0634942178180646
0.0710957594127844
0.11390962880472
0.0780027878342535
0.0676079721899472
0.0576002804051483
0.0649272740358206
0.0479117076289106
0.0767033799034544
0.0412060185397129
0.10401533324028
0.0724886059071877
0.070270860652576
0.0548125503435136
0.0787315203173888
0.0198704822681164
0.117591687865449
0.0858237204677899
0.0696726790435809
0.0607881902587728
0.060630744173667
0.0376106773690862
0.118756420951248
0.0745313999667185
0.066937437283782
0.0416911956271838
0.0713288903170639
0.0476549545430712
0.0692460436858195
0.102684219850205
0.0770140852446958
0.0571830713409138
0.0616484178918422
0.0951464315045601
0.116480481314645
0.0663702698614606
0.0755996008315056
0.0386604895076993
0.0734053496515459
0.0856325148596301
0.08073263063387
0.0502369014934217
0.0856782458181732
0.0558570168566772
0.0727844181112972
0.0522465924032021
0.054703684264029
0.081934034015979
0.0736398261698153
0.00934382079468159
0.159078856942118
0.0836237119747126
0.113571714281245
0.106579530404046
0.0617223385523688
0.0751251186430087
0.0684740741650386
0.0631896856071975
0.0530561718559671
0.0570963673588065
0.044603073940229
0.0711954740038127
0.0828282924074706
0.0470828802175894
0.0706539257014426
0.0943871119087207
0.0663986419641137
0.0491040040731089
0.153874961951818
0.0576171267425041
0.0667063964680021
0.0906024141518181
0.0804297921601001
0.0421285439249942
0.079971620451291
0.0719650415432018
0.0668986623293137
0.0612288464135108
0.0552420646405884
0.0648749421222067
0.083421173427615
0.0594770284786177
0.0673442060209976
0.0525442906397157
0.0480040474795507
0.0706072214800912
0.133954814743291
0.0828190874767896
0.0838979455939434
0.0710119438180722
0.0332826918862788
0.101706870531599
0.0882246059601212
0.0695864147668662
0.0592304990869054
0.0512121760462205
0.0637711958575638
0.0454221229555971
0.0619439581584106
0.0416895051777884
0.0393156866349368
0.118632119695884
0.0761374956514678
0.0643124682944479
0.0590173866872547
0.0577151563416455
0.0450935808587859
0.127898629942542
0.0853288820879269
0.0662083172203587
0.0609367610638006
0.0416631496424721
0.0854864704163887
0.0760736950512426
0.0584345640516748
0.056397198330901
0.0597163137949707
0.0602440978191656
0.0518561796888834
0.0523950177424599
0.0631652233955221
0.0518632259929244
0.0559796127234046
0.0558369809738925
0.0708854895570324
0.0664515084690028
0.060734308754463
0.0557220524689225
0.0702307494845754
0.0370155878966062
0.0804349417492157
0.0667589089189229
0.0614568092112961
0.0609390264109925
0.0574655507627293
0.0513270920597723
0.0601279319861121
0.0567005375078917
0.0591580999544221
0.0508771172636118
0.053544899492027
0.103709900209825
0.0646684045479203
0.0683657782176472
0.0452953124621423
0.0971504792243508
0.0619194432420801
0.0676739004290585
0.0522199774141474
0.0611425515594841
0.0421455949405326
0.051778604961356
0.0905300733559388
0.0638597240075177
0.0608771512893716
0.0797840483589606
0.0596048121283718
0.0643020885345698
0.0497059944460418
0.0512336096411912
0.152975676230531
0.0658801435055508
0.0619649734639321
0.119987292374068
0.069669169478447
0.0805993290727669
0.0547015992477006
0.0320024962996977
0.222163983699976
0.0992307504151121
0.0626290565931949
0.0711891372609408
0.0902812670780335
0.0486295703890727
0.0817354139134106
0.0484831739525054
0.0784299352356468
0.0747861610972269
0.136238889957635
0.131355731618318
0.0296429038008437
0.111473930280248
0.0873038232288568
0.0688038950092691
0.0634134222031804
0.061980261157909
0.0603160887890118
0.0872954305539855
0.0725990649694487
0.0760222502633643
0.0630216541006653
0.0632212043651614
0.0998729196378248
0.064393547918566
0.0592113878193526
0.074290618904249
0.0760152042612094
0.0518670287842307
0.0726180967965861
0.0569968975455615
0.081967020654236
0.0439404727428622
0.0568929252441654
0.119109368602535
0.0753608068544547
0.0781682220341302
0.101403709191841
0.0707848522270397
0.0639953136478126
0.0591552332696145
0.0619564353951257
0.0596440236162784
0.0533356289638876
0.0502526743656592
0.103515552110075
0.0589726859978498
0.0699312012696426
0.0544114017775217
0.0596071443034005
0.0627708871302853
0.0680993802552026
0.0563867528703568
0.0648092367369119
0.064502241585824
0.0546773062896643
0.0860380494821893
0.106701648765017
0.0322117787972332
0.118383667770147
0.0865464944256749
0.0809982579635021
0.0677662887829447
0.0684375181187804
0.0674094218650265
0.059807277181288
0.0631288666990808
0.0672689228528937
0.066404157741187
0.0885788338403324
0.0721518992439105
0.0560716912801528
0.0605619854694768
0.135717132800319
0.135511828510809
0.0887513328298119
0.0728535076092782
0.0413932869899858
0.113110476457323
0.0985656211072081
0.0967609026050417
0.108307749014367
0.0655397974814457
0.0812023920118152
0.062048997089423
0.0815267607283981
0.0659156728125777
0.0826462752873023
0.0658131249903897
0.0828673710600717
0.0709578189821731
0.0911141771598572
0.0576614415080193
0.0802742183743789
0.114044867985596
0.0915785419675503
0.0798690599266939
0.0873704488926603
0.0551834856429311
0.120063279499792
0.0951532760618602
0.159840448239241
0.103475384568624
0.11775806226336
0.132617108016191
0.101538541541052
0.0973341426259106
0.0788469022455522
0.0919729106267002
0.105818944493665
0.0915025411773067
0.0979958022190319
0.0882450314767165
0.0988650817584254
0.103025184036112
0.104587674195462
0.0964358960869639
0.0937071426613971
0.131051092923348
0.106033327715721
0.110786318436439
0.0933998144277056
0.120677453353067
0.149631046416673
0.16948470018678
0.123316621732706
0.124572295831797
0.113229103290599
0.103878091933774
0.121583533289552
0.108290556711342
0.130854156570328
0.114750440508555
0.168687599390858
0.130820317681474
0.155311245183891
0.138493939351799
0.116243451568441
0.151856611291239
0.135769097719809
0.131245269626231
0.166275834192348
0.137415460412442
0.123535230948298
0.159367516029873
0.160928774910738
0.150095284191821
0.169729389479877
0.127439874468371
0.162953241512703
0.139190551039281
0.15956752961748
0.134472129592796
0.169136332857379
0.164625726745788
0.169643945877041
0.162571530677233
0.173636150672852
0.155165511149534
0.19247325750425
0.173504893177717
0.186520546547289
0.169107864686336
0.169640508728771
0.17955839193168
0.156787012335356
0.203442444325837
0.186802400914982
0.189728658109303
0.214382702510446
0.180744177479481
0.200471445377735
0.181811466030089
0.202787272007281
0.177567427430519
0.198760000958464
0.195373047588177
0.202032344927877
0.188018009581557
0.210738186850884
0.205298954079098
0.228291522278048
0.2133915350923
0.224066847470508
0.217470970225891
0.219220745711041
0.237827741004807
0.231500759147074
0.248796232947481
0.266576946552363
0.267914525019511
0.294524310999564
0.24381321057698
0.271652535835833
0.239793096432076
0.247029658667754
0.247396116847723
0.279433415049207
0.24708894772858
0.26754045944333
0.251440609420478
0.28176573972542
0.261804203227651
0.273888097845562
0.258036469435381
0.290780889681027
0.284693896270285
0.293509786694049
0.264164014524518
0.295254287437518
0.267840934160606
0.322861033359739
0.300811532069351
0.338170943410187
0.322532347202677
0.330947133087841
0.305434015479873
0.314252488540849
0.302735351068218
0.336025259721619
0.338264357372328
0.340555939801465
0.325164715170986
0.35604350536423
0.336739785969511
0.348963014537338
0.339440720127267
0.351393320393144
0.346021357658236
0.359444062716472
0.355592611092296
0.388712403201711
0.359787644270162
0.381584316246757
0.371440821266983
0.381103566570681
0.373488442157173
0.418759902608879
0.39437804848901
0.391056179261936
0.376906465146996
0.404216971301911
0.377458273358993
0.40078783133522
0.411580924587487
0.436821658146232
0.394864373533052
0.420860308243678
0.404243200997103
0.440123255686425
0.418395180214906
0.443743006489792
0.442524918136946
0.447411013926098
0.443034036004406
0.451021047993672
0.441972050371837
0.448391566252877
0.462937599814293
0.499069581278632
0.470821461072327
0.482819600153464
0.468432111403672
0.480275332227373
0.450974965824757
0.511427543836545
0.50237995777249
0.490155390733497
0.478133166168422
0.527940785058443
0.489024283782379
0.50400869918943
0.50856152252768
0.532925682918325
0.507862753957811
0.529934984192196
0.557460586320028
0.548639823655051
0.529902626421553
0.572152147141369
0.538405429837286
0.569066036166636
0.545645416549934
0.567657735641063
0.522262007757207
0.553317253705021
0.586420326795057
0.570285852246655
0.560749304094345
0.588907374302086
0.559546837226807
0.594320432237622
0.587558563002626
0.588946685396105
0.564810872133738
0.56185055292852
0.563103557084309
0.607396688707815
0.591885711142873
0.611318991751394
0.593475400991451
0.622182928791276
0.637138541131009
0.647399515630569
0.605792192679475
0.625947341764958
0.639051380954324
0.662783667529857
0.63221925127369
0.61614448707117
0.631529914270174
0.655002342353933
0.641770774516989
0.682049385373631
0.653531758173156
0.658176352945096
0.644337970302628
0.668465362860114
0.651564765363533
0.716522646314196
0.684069574082716
0.678257134817245
0.680214736046345
0.716881543675849
0.69342879004524
0.699893980196593
0.685357547717356
0.711918036016645
0.691544413649105
0.702803355683774
0.696087447173543
0.69040692998808
0.69458081636135
0.727318298941631
0.715486726268732
0.74325206784851
0.728779257342692
0.74082025519826
0.713357834493596
0.757844004132636
0.753807827370915
0.753719466422732
0.73951339609401
0.759863330812608
0.742944682003811
0.745067549358166
0.721753266891165
0.781794529484046
0.784542370122587
0.776185668725718
0.765975216812738
0.810085222660512
0.794484788665099
0.763367817536425
0.728314266612347
0.769987473636497
0.755710648019118
0.829232391614595
0.798184766280497
0.792802676943951
0.79977863800848
0.812683829514068
0.805814942733448
0.807328425572022
0.775543230807076
0.811554693099468
0.790314587732664
0.814672546150364
0.786433160500183
0.796380329164263
0.834298518291941
0.833864384764753
0.807181989445643
0.815173874256294
0.797753091359417
0.842691240261352
0.836438999527824
0.841399361051085
0.827771342171898
0.841961243904469
0.838082089160683
0.892795676204622
0.866277176695115
0.863288278083946
0.834321210352733
0.891885987074279
0.846435825650727
0.809341480514791
0.85060546774668
0.849510273924498
0.816809690464809
0.877141193864429
0.862887846794181
0.844388674366472
0.849366368457596
0.890625474176717
0.842503043377455
0.849224412583817
0.857863405928811
0.842455768916424
0.853204976634254
0.876884136258404
0.868558178855368
0.862995377429331
0.832242874899961
0.887245939117538
0.892148923096323
0.857678651487379
0.852534654439643
0.878875137812172
0.872487570566907
0.891964575213083
0.867521884090306
0.90373629489833
0.877221236724873
0.937098400743884
0.924958735216376
0.882490766367312
0.86006540147875
0.892099492917389
0.849332038838358
0.86094357162285
0.908946000381049
0.920620579675283
0.900238048600912
0.906086705928482
0.925619486906644
0.896951391230334
0.920557707808281
0.923563797000362
0.872684833335663
0.903288545485183
0.887051512894339
0.913719941620909
0.875128971673184
0.870144793493447
0.850486602588022
0.8943123465796
0.90916110960081
0.911735056160463
0.876305305195851
0.897666172584683
0.90969202660445
0.914598526721306
0.862526776278677
0.896223424459643
0.897932660229021
0.887271515641711
0.8884761990116
0.907133143954361
0.8672371271807
0.900148548266899
0.897639397762151
0.919207844887408
0.91847657064351
0.900165864220255
0.884501444164452
0.905495559112411
0.897956946641508
0.896512349656034
0.885136318230389
0.870628739261562
0.86542475212039
0.906880352964215
0.903141654359202
0.880547531338029
0.860797696738899
0.886893454055521
0.872487545691367
0.85606752710858
0.88383555815776
0.892456881631508
0.880213657720538
0.860517168408513
0.854283733803178
0.888350185133388
0.860030231653243
0.89772933683925
0.848907879268648
0.867196436811553
0.876234213511052
0.871856083399503
0.881294578858448
0.87411263828131
0.832828130160633
0.844170020433445
0.847068673700783
0.861625515173195
0.863921716544785
0.85210882400629
0.878751919532125
0.868019312576496
0.84976259511372
0.869332866916536
0.845505358749103
0.856219234412462
0.834738860086583
0.836188189709562
0.856980334458577
0.852471143421443
0.837283102431179
0.828206606615368
0.82528337734959
0.85623860180599
0.862041603466949
0.855780359682344
0.836453651717315
0.830110167781592
0.855428802616729
0.855205017243536
0.851401631582033
0.862326212075166
0.827682805237299
0.83065991629825
0.840873105832017
0.839022776694555
0.826424560920554
0.820202063352324
0.799253282082601
0.80242625187754
0.794173207789782
0.79018497791506
0.821978987373067
0.814625679796875
0.800979356821437
0.825653348081784
0.792812036854831
0.795987600465813
0.794238313691198
0.808168094413741
0.80767462282589
0.781747129634746
0.767478353664917
0.782039395399027
0.798616276446588
0.788071045214806
0.764804542383937
0.790283516178102
0.781460701369353
0.749981675629937
0.748271466071156
0.759740617735995
0.786291596192398
0.764458657680304
0.752638157165892
0.755321807020421
0.738962468044247
0.762529850430098
0.751934034018474
0.754291685407058
0.761127720990819
0.763659155179915
0.775688259453062
0.750089396541957
0.744879085455542
0.748106337045704
0.735709070889449
0.747007107441075
0.731224862268776
0.722739398767512
0.721910634540757
0.728122807184605
0.726485302253274
0.718439071140551
0.719262242298986
0.7085354996237
0.704568194537407
0.716998865548357
0.714734320957388
0.706203675222539
0.70707127432014
0.721421956828504
0.68958609582267
0.670652519872297
0.696520779981478
0.684683840540128
0.680464590203644
0.700127365719851
0.675343239135104
0.678609188244464
0.684089919676709
0.670125642167569
0.668951336370197
0.671243423849106
0.662279724106227
0.65495901478969
0.67287089811514
0.67003604951673
0.65036901711925
0.653796830611235
0.651478557144267
0.65089299390402
0.640541287281908
0.631199176808389
0.634945724248828
0.633353654637043
0.641621527026966
0.621538736518573
0.630121585793163
0.640968125142214
0.618060475683454
0.60907709425009
0.617075493762161
0.622838922404161
0.610946459821408
0.610964221171678
0.598200635970193
0.591944793739617
0.593192885027484
0.593347814697632
0.589626211103711
0.574400750973394
0.572732985002235
0.584692954388976
0.588945648293419
0.58605351059215
0.578232212385227
0.570741144123795
0.568623387394753
0.576339695757203
0.565682912044701
0.566086909073657
0.564577453704727
0.558443971616835
0.560355524887473
0.558422274315054
0.55971197142956
0.539659770232065
0.533999103492106
0.536535418436355
0.530926101534987
0.528774814980722
0.536814159751768
0.527595662025347
0.529518937569464
0.52591294400185
0.518223248597699
0.529342698177427
0.505015748343003
0.491690106595401
0.504792037297959
0.497487683621242
0.512352438652348
0.507783115317975
0.492461429706211
0.490811320468233
0.478725035284447
0.487673568643839
0.48572235521471
0.48376439802109
0.494786252594652
0.485819309756091
0.47513600113777
0.477053211381031
0.474123006637459
0.474257137763531
0.469893288594321
0.456269950973217
0.461602219118254
0.460295770399347
0.461789725111858
0.459702544139584
0.457609420936835
0.451683143635675
0.456539086845661
0.447189281452299
0.446205582356156
0.447131318512521
0.441203614580819
0.429034787294311
0.425537705198408
0.424251953291704
0.432566765619457
0.434293801189401
0.423707320886556
0.425387400989509
0.425501929498288
0.427817651802732
0.427469681774333
0.415971879150698
0.415050647382908
0.399655047024828
0.410068697113632
0.404345570741902
0.402475244010958
0.398576940007011
0.401826636944477
0.402779696068283
0.394736615499532
0.399029978661471
0.386335162009292
0.388984230539577
0.390008442651731
0.377417371949911
0.376498348885006
0.384873072256441
0.380106079365693
0.382528569596969
0.374157435095302
0.369379433310213
0.370812222171092
0.371761382027164
0.37206377116837
0.364471762951242
0.364997179338035
0.358182700110279
0.3605222868109
0.355042209855899
0.353707344388053
0.3566799298668
0.350032082044254
0.348468606473979
0.348620045462494
0.348344926062538
0.341816946181036
0.338903478843154
0.3395978406689
0.332106752408555
0.334747799310451
0.333360940062551
0.333070551040969
0.337143689570546
0.332368596701139
0.327587387702309
0.324941862224703
0.322399494907525
0.32081441896742
0.322073330176376
0.317319109590591
0.322165883273457
0.318521566217015
0.311636518822014
0.314706642772217
0.306432840114987
0.311345736664855
0.310166942426375
0.307866346951725
0.312587327056556
0.308421502006949
0.297657507977797
0.297150667191263
0.295833932161064
0.297298511629926
0.297857768898912
0.291998031990639
0.287690148006579
0.290826450743402
0.284871109380618
0.291254469960741
0.286672321014741
0.285252821084789
0.28523682054155
0.275463302103092
0.277908547111564
0.278192146221056
0.278294600080124
0.279764845047302
0.278804739825042
0.268071932196185
0.266875575802421
0.270809490973076
0.268444550014574
0.268625459207303
0.266338539159016
0.267826933465682
0.269379582485348
0.262458932048367
0.258490569787876
0.259400449599909
0.258177370943172
0.254315766243959
0.254678631877776
0.256890035567204
0.251180677396773
0.245315649931706
0.24946033651415
0.246275396919505
0.240296929337003
0.245131319221702
0.247520955380657
0.249250570398797
0.2432403831863
0.241140304558567
0.241925778911009
0.244922842827844
0.237977607201841
0.240610799502115
0.238543646038841
0.230072265780707
0.231652419455007
0.235130318554023
0.235470167307398
0.233435695853285
0.23587208730945
0.235954219489806
0.228315686356522
0.229948801792201
0.232323172215388
0.235788760673656
0.235023237599259
0.233650054069138
0.228560879871376
0.231967770823757
0.236043396508351
0.231301646204975
0.224272867404939
0.222787169280923
0.230685366184143
0.229249899670782
0.22992626398604
0.230934037544792
0.231039501076414
0.232828618103277
0.234448130287511
0.232523405667556
0.230547955511758
0.234570538900676
0.236043763745573
0.241343386062524
0.236473845547032
0.246257068279641
0.240660281997008
0.241268494574082
0.237765866407436
0.245892348816981
0.25267097086
0.243618255120055
0.25493694802991
0.253629680118523
0.246711406600814
0.248311503646318
0.25544556844957
0.258382169538358
0.259841214868522
0.25237256492738
0.25699160815048
0.270132171219236
0.269581886679657
0.263156631458807
0.265189020855511
0.27135596245217
0.260132668371259
0.272907187387697
0.278221809225597
0.278531921551764
0.271628051659985
0.276685478794113
0.275283977266025
0.27379068304629
0.279127211016041
0.28390551949719
0.275906801519116
0.284320742970911
0.293174187158437
0.288996358732849
0.295769368299136
0.301220070781904
0.298698235182931
0.306003560255331
0.303501330820781
0.309751022532667
0.318247584041799
0.314907461898935
0.317801009086842
0.318631084357574
0.317224185349345
0.322754711188869
0.320007689009447
0.320505024946531
0.32019572709552
0.337580660631485
0.324837644560536
0.331295120751068
0.331704794198596
0.328962101062728
0.33546886324956
0.342957051716898
0.32526692345447
0.335568877733643
0.337847768346746
0.341624146921838
0.33054970717601
0.332128875746848
0.330911133655702
0.334422497687984
0.332948383183038
0.333493166564544
0.328279574898185
0.337827693298925
0.320603149369394
0.329784651360281
0.3277072634743
0.331487777505302
0.326002925684073
0.32837074607867
0.333494124538863
0.329480863459232
0.329223120163385
0.330511457068808
0.322142298874771
0.332166380180636
0.324863042885634
0.330179684268893
0.327943137387021
0.330543780043704
0.323627139866372
0.334205465456439
0.334273612397956
0.332541874815527
0.329554284821961
0.334606103892788
0.327168969849742
0.328001308987273
0.330420219087512
0.332062189430407
0.327310567523707
0.330065238789741
0.336690249376566
0.337560717527657
0.330340442744595
0.327687268859996
0.33110647215172
0.325601945705737
0.328953384031632
0.327938156350469
0.323515101438287
0.324357340129402
0.318300126397637
0.324248255203436
0.320690196745408
0.321032314278657
0.319418277200052
0.321710214917902
0.316089194097455
0.309807077926541
0.306766457653593
0.317892766854058
0.310417925376117
0.310537068514177
0.304624311957621
0.305445961222645
0.300604531213202
0.304052060066027
0.298298412807066
0.294722860499075
0.288060305771218
0.295581137123956
0.292078927403431
0.292770285982958
0.27934589104366
0.284752650117345
0.275746874342409
0.269913112184978
0.275923816903263
0.273814879718819
0.267906361129395
0.27060217218644
0.260470033487953
0.260802918617337
0.261558513412445
0.254399109831452
0.255509199391989
0.24944259873028
0.24954847719269
0.255351477315256
0.246691757911437
0.252533457403606
0.238720245361016
0.238345297406514
0.238822430143012
0.236081026795469
0.232133071481516
0.234943542364766
0.23047248083566
0.232472196231605
0.230467763203204
0.227903108889176
0.221869956064283
0.225066562136378
0.219653065714235
0.223217306438316
0.222115062680783
0.21800183787263
0.220696932225788
0.225749668805257
0.218196232964966
0.216996683042216
0.214023306773065
0.211819490814627
0.211755999944409
0.210557877908119
0.202440925406491
0.206569162913435
0.204322831321321
0.202051640002282
0.208052455175696
0.204746004092312
0.203822915593552
0.199460140605794
0.196864346780161
0.202771742484148
0.197949538683732
0.200242681068803
0.19643526976801
0.198005494992985
0.192849600262734
0.190051330856737
0.19182810183592
0.190693985127587
0.190936310271205
0.191235361414063
0.185423693098183
0.191807812007288
0.185123212342555
0.184624280475307
0.181295817898414
0.181116405271248
0.180254859054509
0.182146387371169
0.182637655159177
0.184289842311133
0.179471697357596
0.184010320615508
0.174908196283556
0.176881289567123
0.179086938973674
0.183507098693494
0.177529798140344
0.180610073148531
0.177271265488994
0.177769812601006
0.176367003647243
0.172615618993032
0.174620228819004
0.180544294814331
0.175627696765289
0.171527592591253
0.173229865906054
0.172397407182114
0.16951843845049
0.165157273045731
0.168424773962328
0.170887237959076
0.167291625263984
0.171333192596843
0.161225472355505
0.169073856830535
0.164205419638583
0.16638566091618
0.164307667231668
0.16718077770744
0.166209150668864
0.16595803956651
0.166636413840904
0.163312890900324
0.16608144887338
0.162495641169506
0.158113343829968
0.163757790939067
0.163837408124762
0.163199662999918
0.159573807153601
0.157692782659063
0.159271346263521
0.156054369698212
0.154723381593345
0.15730593337452
0.155029311724255
0.159741357207625
0.161370011967422
0.154505657306787
0.15341470210695
0.152752527950948
0.152159830285983
0.156409301075357
0.153960282506347
0.15526022736186
0.152983093557349
0.153069309368652
0.15275681436425
0.157393450930282
0.154557307457057
0.153825775941137
0.150970573137841
0.156382718382552
0.151847561082967
0.152309863826681
0.150455717994633
0.152471083489846
0.147061534344754
0.149247640527505
0.149267449156216
0.151308574475232
0.150004545639451
0.153491891055608
0.150136633367006
0.151297807233445
0.148176161349625
0.150567154449718
0.148221998012731
0.15325783427821
0.146511439783043
0.150208215705052
0.147654639807326
0.147648081857879
0.14727800054344
0.141998687784443
0.150045856956234
0.145093827028597
0.145346441177387
0.147574742653372
0.14757018235235
0.146528610625493
0.145919802997402
0.144661784978486
0.143260791341937
0.145643616498483
0.144577684659841
0.144591842945242
0.143338589443959
0.141078316319282
0.139396544595125
0.141849460074036
0.142054979305905
0.137128220400539
0.137462506069528
0.140457659942458
0.136682457795921
0.13785714635528
0.135703411874902
0.137484044760442
0.136074891096512
0.137859892888642
0.136304429173619
0.133819710191279
0.132610806285083
0.13261171826511
0.132865440144131
0.133118014594179
0.136629485439003
0.133115259493221
0.13356123719734
0.132698413866602
0.131579217563389
0.131322961604389
0.131157111165449
0.131624106877565
0.13234434782528
0.129957419175819
0.128321006627207
0.129594249759333
0.123415244203793
0.127815130880023
0.126570892544377
0.127593111678691
0.127762294998028
0.129834465441885
0.128333217901874
0.125848005727617
0.12675988418475
0.125665496055969
0.1263393298494
0.125882803069172
0.123938237091332
0.124781524340152
0.123069350386497
0.122789662014399
0.12118789819282
0.121742538118036
0.11908718884457
0.119476816530919
0.11575538418721
0.12367120874273
0.115679379666724
0.116016656286009
0.119106461203107
0.115595602328163
0.118106902218085
0.117418721753284
0.112418266617283
0.11404409285741
0.109893707621534
0.117353745215707
0.113509232078475
0.117192438308387
0.11193509598333
0.112273739475471
0.110671832754784
0.107656714672707
0.106636571046452
0.112985072377886
0.109101518855513
0.109648410391135
0.109413005318294
0.10748034847405
0.107213011298232
0.107540194779609
0.1053475315043
0.108113722542725
0.106510063535368
0.100765553692239
0.106497473240252
0.105652318412762
0.102885560735077
0.108269638442707
0.10259157138438
0.104610892321229
0.106115035334661
0.105371101079942
0.103608615968107
0.102738379168437
0.10277804677195
0.102225883171998
0.10302079321734
0.102536903272313
0.0998602864879733
0.0984361607589863
0.0997306333235874
0.0988303256918911
0.102287523992036
0.0981870192527196
0.0994601081876846
0.0989486112422105
0.100596495623866
0.0944307742536311
0.0997848533800792
0.0984675293991232
0.0980471346429703
0.0972636645210134
0.0952590305220648
0.0951356689084751
0.0968746113173219
0.097090620995057
0.097712129661499
0.0916331884624861
0.0938612657978661
0.0954843249293312
0.0933071408604697
0.0931884138575091
0.0955666725669027
0.0912135417807024
0.0939780237176225
0.0905252279226248
0.0897302708063991
0.0925448561569533
0.0925472735598298
0.0884140489079978
0.0921530542650794
0.0910321946176513
0.0905185046623642
0.091464790628789
0.0911658300740498
0.0893332934977022
0.0908179488691025
0.0915884025473856
0.0904654504804124
0.0865637228993291
0.0895724163105882
0.0865802172435832
0.0855874970285933
0.086405390605306
0.0858777218711522
0.0874526012350554
0.0841620129677872
0.0838069290778814
0.0840753854936994
0.087512510920036
0.0875229435698587
0.0881572405109323
0.0882562004896859
0.0851287217873752
0.0847798742794118
0.0841365414218088
0.084460726424445
0.0865563375242803
0.0857675262000489
0.0854590178619559
0.0871300996664548
0.085694844305725
0.0880419679759389
0.0835280091760608
0.0822508909309721
0.0894474628378456
0.0853008813260814
0.0847616369388241
0.08427681386844
0.0840048067241709
0.0820945657887116
0.0808389258238228
0.0841964870561443
0.0837076962799195
0.0832392295083152
0.0830170965843397
0.0821456125115299
0.0824231071689922
0.0848460665189181
0.0813093378627786
0.082098383579052
0.0822772672285727
0.0819310774014905
0.0800843320913792
0.0810310532063249
0.0788733363775754
0.0822013312171702
0.0806759047180936
0.0782390686030877
0.079163831860677
0.0790955491393897
0.0761680346547595
0.083905845967657
0.0785987191242318
0.0796750339023478
0.0752572368050106
0.0787617724754166
0.0764060193481068
0.0792332308353092
0.076248887876409
0.0802343122207548
0.077976802973269
0.0750775619599779
0.0772081357789839
0.0784419654114509
0.0774443279231813
0.0767998756757024
0.076939621128205
0.0759018309638543
0.075822169207702
0.0763405100485053
0.0737468357135785
0.0752008629843735
0.0739989926915353
0.076614634924431
0.0746170665404901
0.0796002891468191
0.0748952611132094
0.0762255319689872
0.0753356640923295
0.0738536665429327
0.0732674415540184
0.0773995516376213
0.0719579036627881
0.0761714068443469
0.0751814154462661
0.0769159150836194
0.0732469587868508
0.0738964873639264
0.0752482281787024
0.0751462685702803
0.0707590213234383
0.0751075065434372
0.073937588847111
0.073122596926453
0.0723492951728432
0.0749435189442255
0.0714115555040933
0.0739326582566063
0.0705101769354655
0.0709323738834182
0.069974044518152
0.0734354860466174
0.0679401286177902
0.0702436409525649
0.0691587760771595
0.0697269525664236
0.0677010586367223
0.0723170095694017
0.0711714896887186
0.0723272055373003
0.0715271294811251
0.0659287413408418
0.066533356347135
0.0696778652443128
0.0672237303243431
0.0647199745111807
0.0650721070590936
0.0688313980815016
0.0667514386310454
0.0661242243233827
0.0637803952410782
0.065908981247165
0.065782610534365
0.0662814561740513
0.0624504193169393
0.0664251245532926
0.0620200934220468
0.0677527397295775
0.064409674086584
0.0671536380102213
0.0592704877809183
0.0615153042661015
0.0593526124007577
0.0634493476377225
0.0646880209015192
0.0620615796502701
0.0613833407453187
0.0616411148135132
0.0620788086631102
0.0634604386081036
0.0609433197810706
0.0638111974628284
0.059155983273266
0.0589667978047682
0.0583450836597897
0.062196688381586
0.0599774563380624
0.0621944021714006
0.0577896710757785
0.0636337163258947
0.0622101665188445
0.0653932428584998
0.0582068295454012
0.0610977604059023
0.0587194597532976
0.0601263274268311
0.0582548476883728
0.0568183759278623
0.0552244725320881
0.0610219870843684
0.0587464487193594
0.0583729914601425
0.0552962406334181
0.0586298878865763
0.0546731476775109
0.0607813633999162
0.0553740758318669
0.0592467029028877
0.0563471551210109
0.0569714808863379
0.0521101969320243
0.0584600662754142
0.0557445906292553
0.0579731640321894
0.0529629273933346
0.0560253619736141
0.052151841289642
0.058698736779056
0.052919612518087
0.0534983689713799
0.0513118214154347
0.0538281242751387
0.0532019533697919
0.0553510083526297
0.0477817787688122
0.0513565336956716
0.0523281178454545
0.0535697548568673
0.0505240053839898
0.0550406520206867
0.0512944211524601
0.0543230827127215
0.0501272378523243
0.0557153143251819
0.0505891292556974
0.055938249059975
0.0458342910569699
0.0532995919481149
0.0490877778833274
0.0549312217506319
0.0506811810463711
0.0547173291270458
0.0489044230322534
0.0550435722417769
0.0545730212388104
0.0577340731947949
0.0547535414131991
0.0580957959535838
0.0535606411984666
0.0575356787129075
0.0576108355559953
0.058191917546799
0.0532162408671837
0.0595389325349153
0.0495879252121258
0.0619484608475785
0.0462740557162533
0.0569702783432679
0.0478305151197236
0.0571201522642493
0.0463847233119062
0.057907482955161
0.0479242736380905
0.0609032701135876
0.0481697886609158
0.0504220930780523
0.0423123227596239
0.0577263505321155
0.0382707634316783
0.0604829645053773
0.0489039948841766
0.0572499823069415
0.0440395665436271
0.0561108926942396
0.0475530690294308
0.0640471368753511
0.0417105496226894
0.0598614189213935
0.0463969267361964
0.0633077822636212
0.0358252946514562
0.0654074604225794
0.0377910000806751
0.0614099247453796
0.0367727446905391
0.0613752355283909
0.0327664412539251
0.0600388154591627
0.0314474105731649
0.0699816729506558
0.0320133757969157
0.0685702787470674
0.0308119812371491
0.0686277715490292
0.0277212325800626
0.0668277287969007
0.0288292811756184
0.0709829487500119
0.0335332359519398
0.07140396269679
0.0284148384042043
0.0676361291747592
0.0337829738619944
0.0667008604957302
0.0374774862318946
0.0624374807182072
0.0459317463482237
0.0516208452678981
0.0562479611280557
0.0445502151751395
0.0663112465277366
0.0269917618254569
0.0752180096063233
0.0239177718703651
0.0846725489911465
0.0146641091695231
0.0873979307915346
0.0169467928369166
0.0855879979983308
0.024131374019931
0.0738548009964905
0.0373635051012201
0.0669607909264965
0.0444124897980324
0.0487512804560465
0.0503210208024992
0.044860576625149
0.0483604976808355
0.044742585910974
0.0472466542966136
0.052535151973684
0.0387440301108361
0.0539411548127096
0.040203967292458
0.0518746078771294
0.0403801590928321
0.0503689514372637
0.0429062740050017
0.0483183932624955
0.0412117208784632
0.0462720655865404
0.0419179188457263
0.0464059521237385
0.0386258479284958
0.0457287188931341
0.0414040231335138
0.0477832691459042
0.0399145829701814
0.0446655493786054
0.0415928209111948
0.0456680354601734
0.040250565606164
0.0472124599066623
0.0424824872053707
0.0445697147529642
0.0406240628561828
0.0447941512555398
0.0416361485212436
0.0448362171324815
0.043073287477626
0.0479457527905463
0.0416039944416044
0.0463026837712067
0.0408193880171754
0.0455638388609995
0.0426041718627668
0.049024406023731
0.0403895010160513
0.0437990398918515
0.0405196789920999
0.0443667472093187
0.0422231164708467
0.0457068309974415
0.0430287433125642
0.0463737645798294
0.038578979129025
0.0454740118431747
0.043073063754233
0.0455682963478051
0.0397606910439464
0.0451952637763401
0.0406028834414966
0.0448935282061403
0.0428938596252543
0.0452041673089939
0.0412723184176009
0.0437797203503478
0.0412163420200959
0.0433596484303127
0.0382310653017634
0.0441285447645868
0.0426196453269102
0.0451860552259238
0.0434344620864093
0.043593277651064
0.0433742416308059
0.0433827400460063
0.0405567897059513
0.0427263845471121
0.0423362769303913
0.0431256147607419
0.0398817360030819
0.0452158936722012
0.0397085036900937
0.0430819465685442
0.042402951677017
0.0420617598707778
0.0414103284250816
0.0443755714677101
0.0437868690269584
0.0438523092433362
0.0420944817429785
0.0447271567221069
0.0413215982701239
0.0421393570616741
0.0417535289850791
0.0426699593609647
0.0405549548038985
0.0429638989978913
0.0424333841370257
0.0427525750055792
0.0431841208116155
0.0429445298342998
0.0417963396095162
0.0450508132818556
0.0423404412379692
0.0433269517304188
0.0436903915980411
0.0467418511441583
0.0421612032430645
0.0440827004222937
0.0423493618260129
0.0435034942301765
0.045041546220335
0.0441461657973019
0.0415581335965662
0.0437903527415137
0.0442831534431173
0.0458646933683522
0.0428296430682258
0.0438798246203638
0.0427123941652393
0.0421875815181614
0.0435030828046192
0.0418772881258269
0.0401419490906055
0.044123448572403
0.0414654528364493
0.0434060391068138
0.0430314996031491
0.0470319311177834
0.0465249735871112
0.042904534496176
0.0428915827012618
0.0426599364052928
0.0442295175922341
0.0426568887656473
0.0431102868329423
0.0422245553182714
0.0403735202745027
0.043575789249114
0.0419258430301557
0.0450330194516431
0.0431554296679341
0.0423340090856035
0.0431993992995319
0.0438536430425369
0.0418844156867711
0.043423799193132
0.0421954942774146
0.044196165271407
0.0442180588634882
0.0445577188221151
0.0451463652328579
0.0446271306544371
0.0421062697307779
0.0425863130661261
0.0425784529403753
0.0440125230841308
0.0449096580708938
0.0462111818396159
0.0445436931665372
0.0444661347255077
0.0432239017924901
0.0446532094454986
0.0414457681463129
0.0450311169579096
0.0464574606137923
0.0441866711188111
0.0440634842576924
0.0462725505665167
0.0439433350230205
0.0429529632001249
0.0428626776548091
0.0434925586988208
0.0432228604492718
0.0432393967942415
0.046013368934776
0.0449721829562569
0.0434894272918636
0.0434711034543854
0.0425685214584505
0.0424368837734504
0.0437240437055534
0.0450285438702753
0.0424935957068761
0.0439552723780953
0.0453224374196685
0.0450591162248505
0.0437321970169914
0.0434771773033268
0.0442663178679756
0.0428081191624142
0.0436802046949004
0.043134961326141
0.0449621137553276
0.0420052050977161
0.0436071137557468
0.0423914055552538
0.0412377250413745
0.0403357136790673
0.0415150314928636
0.0440210670019825
0.0433101648465922
0.0406579090364194
0.0415958044379134
0.042742842170663
0.0422279674746322
0.041899402947763
0.0412250358840924
0.0412656977024032
0.0419290691516655
0.0425536018198758
0.0425948030967052
0.0421213603472018
0.041984686166531
0.0423207601258641
0.041331138859398
0.0414480833179491
0.0424571902848657
0.0427243221845168
0.0395918850933025
0.0406100558278572
0.0426468108347405
0.0409283352024877
0.0411450786549182
0.0412484411375545
0.0440812139286341
0.0452523157044922
0.0422015526413601
0.0416118724009562
0.0420015596213599
0.0426249973226357
0.0411545283292625
0.0381977903846343
0.0409297933199407
0.0399702937868558
0.0426447649514572
0.0435863343603751
0.0416748590834156
0.041265401133062
0.0415334711613789
0.0413075381873778
0.0399335910952184
0.038704266902336
0.0395035114325988
0.0412997841922919
0.0388490590397826
0.0384178083656915
0.0402408587532312
0.0401015578583773
0.0425931161661218
0.0407794434853425
0.0408338662006291
0.0400988916666404
0.0413783340442607
0.040710050028782
0.0400836974676303
0.0387324861494011
0.0411983169578603
0.0407318685963818
0.0397269063926269
0.0383278363538329
0.0371623899193379
0.0406900190012029
0.0442503539046511
0.0376402804363959
0.0391829454764782
0.0395106334742872
0.0404845523890662
0.041911994308411
0.0399345106649836
0.0388616526739643
0.0391102740996954
0.039132681858933
0.0403465105945521
0.039525241715456
0.0425153441489067
0.0402941791947198
0.0391729321217054
0.0373025399076891
0.0402989486390089
0.0399436697199224
0.0390760857727158
0.0380553041343577
0.0413308810970723
0.0396406662749388
0.0377014268310925
0.0378447944073822
0.0372073936964197
0.0425362725223331
0.0420744734783485
0.0386415507030652
0.0388382552470072
0.0402253807723321
0.0397120590254463
0.0374781176970537
0.039504246493034
0.0400038663550386
0.0376398519422472
0.038965617675811
0.0385499088662137
0.0369115334165191
0.0410365993993946
0.0387454918071741
0.0375370358752211
0.0367689604052882
0.0357379324948796
0.035811203697472
0.0374279688175929
0.038644183925061
0.0396488652687384
0.0357497922643402
0.0365403994062275
0.0387150917406068
0.0381794579457879
0.041557168458352
0.0405038162680229
0.035247651691517
0.0393902334596386
0.033717761087815
0.035952456024683
0.0326602419509997
0.0366633917722089
0.035867918895549
0.0377952534151976
0.0334168268162339
0.0345697743537296
0.0332136474112904
0.0343018599386148
0.0325105936541987
0.0351297334775679
0.0343908173439057
0.0364140202841745
0.0334489986032023
0.0363047004150932
0.0345434292155777
0.0346036943075615
0.032602276069653
0.0361348844657036
0.0330910211532406
0.0337411116558013
0.0362940698293704
0.0461641742842019
0.0358575978883412
0.0352203514881485
0.0377229372166196
0.0391190480085325
0.0341967408269157
0.0370040805110972
0.0342384755675132
0.0344400631554864
0.0346580769910013
0.0356149131799361
0.0340806883602433
0.0342874573212513
0.0321740981210453
0.0344384910254632
0.0334183886266207
0.0333021961858291
0.0323395270703079
0.0333435814769396
0.0350191398474391
0.0339125433711333
0.0330301231596637
0.032985662039866
0.0324837089127023
0.0362183811309913
0.0345331793534558
0.0414398959065181
0.0364099981198573
0.0333117945629578
0.033701383401137
0.0321265460054938
0.0318094401896942
0.0322234166520055
0.0340832364992697
0.0332124053017402
0.0329579459240212
0.0336618633517619
0.0317586884980685
0.0332119559689792
0.033148319834628
0.0343413646187249
0.0322285928205669
0.0306777131228631
0.0299105298268614
0.0314764780769732
0.0313292799671262
0.0331359175839403
0.0315589877359156
0.029819516639275
0.0328216832436883
0.0334839842481951
0.0334762960825609
0.0350630646917195
0.0478333635138034
0.0346507111077341
0.0318903974879789
0.0326740033002254
0.0310526768310463
0.0331588627311688
0.0290109913229974
0.0325707240586323
0.0303181470933154
0.0332930889805899
0.030380152137733
0.0313720320067202
0.0326572277739495
0.0332397087908876
0.0304773639651105
0.031217430241739
0.0320230523019421
0.0329660113404644
0.0308779314366442
0.0298531557919052
0.0332011046229389
0.0436307148997513
0.0369614052388274
0.0320560929442602
0.0323113492026703
0.0341498795355873
0.0419848574413709
0.0440657283814241
0.0258756937091146
0.035514184310665
0.0272646027098364
0.0332267701671799
0.0274809042397309
0.0346328726498176
0.0323553534859542
0.0400421137801642
0.0342186289687504
0.0365402138775897
0.030137667886464
0.0321023309389002
0.0285476941181178
0.0326310893672986
0.0310303190418696
0.0332364526267353
0.0305892826264892
0.0314782452225975
0.0295857605491662
0.0294583362680906
0.0276518391088694
0.0326041981400324
0.0307088396778191
0.0418312705560776
0.0329871870808414
0.0338519129116575
0.0285441393819396
0.0321347792074289
0.0314981838743605
0.0473112635973284
0.0342761731371392
0.0310612507692132
0.0303371920061668
0.0318201993798921
0.0303846783332221
0.0320153424058276
0.0322988125467451
0.0321386358514513
0.0307760473745998
0.0312475851615825
0.030180652366587
0.030785984355573
0.0291389224405662
0.032230179170239
0.0305512835188296
0.0308801594776865
0.0323701029172238
0.0338602213932156
0.0320775680101294
0.0351786730214641
0.0388813182734088
0.0563555722163895
0.0410681465745087
0.0428421670399095
0.0351857412763207
0.0344973198957272
0.0268069269207901
0.0331870785985448
0.0297217568140153
0.0346573409316151
0.0301179949680995
0.0334055779546325
0.0305620296695194
0.033173153387615
0.0310348563169448
0.0342188829016164
0.0290328641373051
0.0315993716058068
0.0304110390847131
0.0323284046828113
0.0305566830878053
0.0297707508381578
0.0307040329833482
0.0400160098370897
0.0393071182698903
0.0337508910280631
0.0336242623304641
0.0503931580040223
0.0644964544559053
0.0325172794597425
0.0382491791522828
0.0327467707527475
0.0293277543100048
0.0312867751718197
0.0322842632997546
0.0376713127659407
0.035394315898747
0.0315988148424551
0.0315817205731986
0.0327015870565849
0.032851037220969
0.0316658944773631
0.0407852349373756
0.0598700878018288
0.0432126066502946
0.0329969088485373
0.0348951728758572
0.0394598724319975
0.0546692107114687
0.0369277156702689
0.0304730771835278
0.037887096883493
0.028439675017399
0.0334531672124138
0.0312283818554099
0.0318140935341443
0.032793398904806
0.0362675577648046
0.0290104989772047
0.0325369667744741
0.0270225570025819
0.0342780397796679
0.0358351839393321
0.0443450153423334
0.0434791870939625
0.0350144670386413
0.0359609793219475
0.0389908390670246
0.0281808299879786
0.0349945275099298
0.0317267812357338
0.0371224453274996
0.0430538184811535
0.0506736414209719
0.0382617240146877
0.0482898579609549
0.0453513092442018
0.0340244182176814
0.0358481692248169
0.0464084685954473
0.0368401452199034
0.0375063177807061
0.0401392225690795
0.0649213367088077
0.0528105037859151
0.0534499804769557
0.0372205927331262
0.0348697280767829
0.0374476409268205
0.0338444586342198
0.0377343213059511
0.0490490991497655
0.0443343668960472
0.0314356031638175
0.0383500985278708
0.0463066633215798
0.0516683266192233
0.0378261560798778
0.0401554294793724
0.0376829951677383
0.0434062370206689
0.0477745576528524
0.0411817106000134
0.0360139324600019
0.0577990753621195
0.0717083013060938
0.05975871919093
0.047337028312482
0.031945916277333
0.0665641506024647
0.053812991235802
0.0390466647555895
0.0387928656818176
0.0371874254492495
0.0366015305340596
0.0425347373046824
0.0654430215919632
0.0497573954984003
0.0358858423812191
0.0444251228339928
0.0419307186467674
0.0563489205052443
0.0537866020487534
0.0388009179703905
0.0427906396730354
0.0446628470854763
0.0429775721441894
0.0754789654341988
0.0660387609125529
0.0536536705261786
0.0735856666762315
0.062038134645626
0.0588820331300863
0.0572402303834777
0.0521845864015394
0.05986336959751
0.0679792992156221
0.0548216691889116
0.0420344234855235
0.0632874065487823
0.0726242004570387
0.0554004726656588
0.0526216713465275
0.0520964753962371
0.041446983089656
0.0875946289044108
0.10423543372803
0.0819616927198944
0.0595015266346463
0.0576881503007415
0.0746192134603262
0.0654558963187467
0.0520297010748639
0.055106073493812
0.0532481222182603
0.0541039234857428
0.0561027584194366
0.0660500323211227
0.0602899080795385
0.0637929827509985
0.0594537007846089
0.0601423947725738
0.0777599024753625
0.105227608771532
0.0976965340956317
0.079036817572917
0.0896681884579573
0.093122494130428
0.0700067796021196
0.0683978169268855
0.0618687788383145
0.0753986498528141
0.0740344859733285
0.0682058441479859
0.0678507433715616
0.0927864016000052
0.0905563224993844
0.0858714897729724
0.0904302235334062
0.0828556328249675
0.0792756928138205
0.0923838449973685
0.183220730190371
0.122729667062001
0.0937753768420057
0.106336463478368
0.093807885642446
0.157367917885803
0.109352831418184
0.10075449186601
0.0985404873404726
0.104981048560511
0.109026398745879
0.119376102715966
0.121881856679195
0.129754976144628
0.121774045390787
0.121904960959411
0.137711627211834
0.216969362800961
0.188331020053338
0.161388543243266
0.140210751175943
0.166849264222964
0.160759596736818
0.157788965606931
0.156107565249581
0.158544652451675
0.165323672941205
0.214947614846652
0.1768662114637
0.180665017208484
0.190364647626642
0.211121664731274
0.185913749875816
0.230920658861831
0.230019329613245
0.20453476543732
0.203202759986347
0.210331626646695
0.210175998722331
0.210523803841363
0.239320530515024
0.247854442072221
0.226580470174689
0.23334887797461
0.229848462074673
0.237127622717673
0.237653133141144
0.24553168670272
0.240642679717103
0.281818118910999
0.295018191132531
0.3876399834113
0.277373583232737
0.253405577397653
0.245811534326897
0.255218779617065
0.275172710588933
0.281277289465051
0.282443977076016
0.280117364662122
0.244874718015907
0.249596618239121
0.24964888786019
0.253327562605213
0.247734929771614
0.257847344521041
0.249011523047804
0.270450354056221
0.262095754767848
0.29656541409413
0.301457562188187
0.261403380058717
0.243421709811621
0.253923350247245
0.244528541773807
0.248494429697279
0.24537240523359
0.260256263130387
0.259864730810449
0.247712202123859
0.242001428658141
0.237982819933449
0.251195123914848
0.265460944263832
0.229875391305875
0.23970977124137
0.22789424094882
0.232793012798083
0.219640881078236
0.244465848291697
0.276240696262201
0.236401992370704
0.214262855307543
0.222638736581887
0.215023517742566
0.211862969423013
0.21354903749857
0.225883115186233
0.216041247278019
0.219448220749022
0.211908400186204
0.214892093596131
0.21402442275345
0.213184974824328
0.213081405098885
0.216121948782295
0.211901610694181
0.213285862804398
0.209863549065686
0.211023363204932
0.204655759925841
0.214362734029613
0.21084270576669
0.213227658376185
0.213664228938129
0.209590249505472
0.210138938721825
0.213624630206861
0.203841934993167
0.209612425756934
0.205963208113903
0.208856842542136
0.199600114117186
0.207929762937099
0.204559906160026
0.205847224523978
0.20438855620349
0.208477779002951
0.199677269999147
0.20069444143372
0.191899986914423
0.200203245625219
0.197129942290442
0.252095999770778
0.221296007442343
0.196543473929936
0.187263109258823
0.194560726123359
0.189457193352292
0.192201814516244
0.232631629782486
0.214971233060353
0.194777723114877
0.187380222467501
0.178902651845481
0.20390482913757
0.186969500505328
0.17753834990121
0.177510542412399
0.172453251932758
0.218523169919251
0.235586737609033
0.250688781559536
0.254022652303882
0.193779583155016
0.171190022708963
0.189856070483262
0.20779388042877
0.169221937692337
0.168288971954889
0.159353323315689
0.208097333206173
0.1824087480171
0.170946174146683
0.164277842293401
0.164738396207385
0.197986444729926
0.198560633792689
0.175737578759717
0.193272997827564
0.198739878466134
0.191250220598917
0.21435170304507
0.220194790025719
0.18773468889112
0.159176264599879
0.154844822741638
0.153070488968722
0.156955925318683
0.210152448962409
0.157758309227505
0.166094832214954
0.143291718347405
0.145908122808673
0.14903347134081
0.164977169088306
0.15257251489406
0.162405887196836
0.180504060722634
0.136624312334709
0.160340739785342
0.163917904707617
0.183626597020288
0.197680884181725
0.14667512428864
0.130302555495375
0.17891119104892
0.18068390427297
0.149192582453205
0.154845424528402
0.124009174225745
0.138697052833475
0.146348178042054
0.132886956739185
0.147424183433096
0.152668215626844
0.1587710434671
0.204471327880207
0.202681609185856
0.181419614519182
0.140757899232705
0.122474909208028
0.121956380243959
0.125660309422343
0.126622561741927
0.116232576196879
0.161119305310393
0.133498342181282
0.122415621780645
0.170779473235922
0.133490200289601
0.128027172464645
0.125493457536963
0.12474648845468
0.132727140906314
0.161128580065543
0.177360208465881
0.151024563645184
0.155590339664586
0.164406907829399
0.142390865796279
0.142362558189332
0.140569196655101
0.143508868220434
0.150744653182137
0.163458757523621
0.1529816906267
0.159834436044878
0.160406678890549
0.159930304116804
0.19366348820313
0.202807755079101
0.171933031321462
0.223811996515042
0.19849705333965
0.254642572032426
0.205289661009029
0.197639054785651
0.201475817750505
0.199846474055613
0.213340060511803
0.20549726932092
0.219500111703787
0.247346307030621
0.210635477444433
0.223843783862166
0.213778307139199
0.225889228325894
0.220979834677891
0.267802109960381
0.244402357888532
0.329042721947508
0.277752728123055
0.268723162708945
0.243410781448482
0.239796725648626
0.25031930078877
0.246269518458162
0.242806311837781
0.243250867761148
0.250605540994776
0.273790832950501
0.248092658307903
0.254264456821843
0.249338878205813
0.258444923507154
0.246806442450864
0.259158850159115
0.252452990127757
0.263330644708511
0.2637870882086
0.266483988431811
0.257055548210995
0.346133522299776
0.278187428512247
0.278541968235751
0.272302191022276
0.288388157729907
0.27298023965563
0.286372511069366
0.302706366146803
0.296599359127808
0.290032129444682
0.287850691134023
0.284525440354541
0.293488307112029
0.305398194803352
0.329953164571526
0.289946436782136
0.311085097965603
0.287275210487642
0.359260977622572
0.336467580189872
0.324268944781152
0.328547601960925
0.312812363019164
0.314683671145565
0.313712354132966
0.308135990028707
0.31184851049312
0.320668221633579
0.314976186114346
0.320574772462959
0.311398053863841
0.314438080406985
0.315547941764056
0.315528654575771
0.340463229908524
0.310345786035955
0.31384914735902
0.309820349038074
0.3171501522638
0.305847525899243
0.341607462571274
0.325487503109153
0.320125266992395
0.320928229063502
0.324894317823241
0.334915217015986
0.329682642868086
0.307629287457464
0.313960430260331
0.303389166097494
0.315420592029067
0.30329942540205
0.330759072849401
0.340959917243433
0.317273229868735
0.314223991986356
0.313443435160404
0.315108760895098
0.31826186809647
0.31954869369508
0.32205448512854
0.325731475314256
0.327058886770158
0.326173387491599
0.323887457417563
0.325616071051165
0.337252331173901
0.341451977699034
0.3409811839824
0.317285371539186
0.320747333453308
0.317856537235283
0.322774654795257
0.321453213543341
0.316409098674795
0.307950587192365
0.30892423732869
0.302242784631896
0.309440986822653
0.332460417787354
0.303916796755206
0.312416794319128
0.292982850444608
0.289163739838964
0.289612119390784
0.287349733214586
0.281266413415935
0.281756243748442
0.286536576108751
0.274799805123479
0.277194623043091
0.27524816554096
0.273751530781295
0.271897267568727
0.276260509495872
0.268669254213338
0.270182166386809
0.27346112536892
0.272012519387975
0.270324232439938
0.269875917140178
0.270326010071477
0.272476889644494
0.285011421974192
0.28377733445836
0.289349763959682
0.271440566344056
0.274363944367224
0.271796019363662
0.261858447314033
0.268411685374825
0.264234786623047
0.272564161450421
0.264337408211392
0.269526650675482
0.266178313046038
0.271273276586557
0.264231557447699
0.26425842501764
0.266483582185412
0.26751133311355
0.263147335747922
0.270158742495601
0.261485883596778
0.266357174982181
0.264091685282192
0.277072593940585
0.26612258758644
0.270968385723022
0.261366698091805
0.267383019726949
0.262656630116656
0.26253331028084
0.267340012626077
0.269029546859982
0.261366255655579
0.265422146307149
0.261679500832022
0.263430614239186
0.259206641227407
0.261373215141771
0.26105422441258
0.262436537271283
0.260243310811227
0.257177226650925
0.254859930309896
0.257990942724231
0.251887569381887
0.250498365779998
0.244464721088443
0.247579289799312
0.244612159220766
0.239446272205929
0.240568314969136
0.237570521751567
0.234832540339825
0.233907629163602
0.23148930441593
0.229972917071183
0.228833024367844
0.232530993300639
0.22557642991471
0.226507214024185
0.222116898222244
0.225743958251571
0.222438978587447
0.226659005371308
0.222596845417908
0.223512280684721
0.218977455138154
0.227095399970811
0.226295854390561
0.226555106642724
0.224988387775982
0.23063171625413
0.228037056217283
0.227834139080887
0.229536939915244
0.231695487286975
0.233309044899478
0.232725772015798
0.235195412991235
0.23268637472048
0.233680464983977
0.2372552309517
0.236107301763736
0.239382355292509
0.238888648548376
0.240658301729403
0.242458162042314
0.241213558857593
0.240487693169798
0.240138286923863
0.244160346365955
0.240928004572785
0.238776733957192
0.241213124036503
0.241256784119798
0.241801931981123
0.239960626779706
0.241190303255913
0.238205338528265
0.236793495784375
0.232910989753038
0.239250208452336
0.233103219537702
0.238302994348723
0.232607849016104
0.233984344799911
0.231726838015256
0.234421466020392
0.231016852496816
0.228899908354811
0.227356151542281
0.230975776006443
0.228241417387168
0.230137541236545
0.22590749817318
0.227073287652545
0.224941852243348
0.224501128517794
0.221743806862831
0.226664407537123
0.223958768480975
0.223315784726468
0.221106286189824
0.221718581786644
0.218402803110498
0.219133045165373
0.218083047450323
0.220209414217051
0.215494352379335
0.213273672982431
0.214595952340763
0.214669978280626
0.214253054363944
0.213288837199953
0.212430534848253
0.210680253481221
0.206811770559278
0.207026470824873
0.203489429358232
0.203419493747452
0.200815258513823
0.201035064299852
0.199435694637294
0.198335878560706
0.194488160989526
0.197686438258639
0.194493546073102
0.196040099812791
0.197228841982138
0.196159315986263
0.19567533578289
0.19765217591788
0.192978664953565
0.193857726985939
0.194436268883812
0.191690568686159
0.189830850393584
0.186918888191746
0.185726688337312
0.183769248761473
0.182297327983969
0.182140772555193
0.177791954553742
0.177659628565701
0.175405523627744
0.174790248820439
0.176051489923889
0.177565081948145
0.176822781019851
0.17785563031782
0.183512130966524
0.189167051791448
0.194517494606551
0.201371494370275
0.208087363092848
0.216230043179344
0.224636822722757
0.235062928113169
0.242115067516949
0.254176250617669
0.263866965750595
0.275185852221279
0.283126608554336
0.295479228130658
0.301096558285639
0.315058455405103
0.320569829969504
0.329682296431107
0.341260596239805
0.35238908409283
0.356775897351196
0.368440534279603
0.371241929706249
0.380111999699498
0.38533122728753
0.39321909059727
0.40093027051679
0.404220011966115
0.411125126193971
0.41830710089374
0.415221404846237
0.423887870742937
0.427225234272953
0.428765329652159
0.429295806035008
0.434924786350533
0.432125882363624
0.433340114358623
0.435099589984442
0.432981510813879
0.433558429454781
0.43544009864786
0.434600711896552
0.440318914326343
0.437903344245966
0.438530256031007
0.441941946682891
0.442729572140275
0.447179953777148
0.451609111347623
0.451289467182713
0.455369110338534
0.459149378047639
0.463224225857387
0.467003390880518
0.472509525512926
0.477892183129631
0.484314295533853
0.484482891369071
0.497240846901285
0.498713730409507
0.506765845171953
0.511755234442109
0.52146758093968
0.527177808558813
0.533838785957276
0.539053501531574
0.544468493743645
0.547598537741131
0.551503401670303
0.557649368680912
0.56579007355939
0.564425570458522
0.566374119182144
0.56547698888537
0.564403443407074
0.562289443145971
0.560405350770571
0.558888761179742
0.558137415426569
0.554632265876136
0.556871220839201
0.554482805471163
0.558996186178037
0.565346001754145
0.573477381474621
0.577339126898953
0.596052507172972
0.606085037179668
0.616816326149228
0.623157265072951
0.636836976061667
0.642223306333103
0.657249468841547
0.664450475201382
0.677227305140629
0.684200022593493
0.696260046178183
0.706866703108768
0.716657354910009
0.721946603866483
0.741097656241141
0.745817060077247
0.758385273058629
0.780005689340798
0.782284338663625
0.795190469028221
0.815410006720452
0.833279449583036
0.84159515755375
0.854215366689376
0.866996404608249
0.886997760421627
0.895251874507821
0.90889940534973
0.91211357752317
0.913821519809434
0.926325314391847
0.947595834836204
0.946052743611308
0.934884703061613
0.939177832347931
0.942143340005319
0.951207042238049
0.942761072730017
0.944460423525846
0.937127537977424
0.932774189865448
0.930830143722263
0.925026159729662
0.920318928226271
0.912656328031222
0.914394080390142
0.911688514635719
0.909924484059165
0.920817179338218
0.92409549914064
0.921386528593169
0.916264346070594
0.929218442851932
0.934106086333771
0.942664436275431
0.948799169735079
0.942278966316075
0.967654295125765
0.985556011400866
0.970961892498698
0.994113849991523
0.983170129122128
0.977028647642353
1.01640172088978
0.986254934410138
1.00325424617132
1.00326937553215
1.01943289374796
1.00492368945911
1.01678083060679
0.996928279290972
0.990341650611428
1.01447926494642
1.01950100967434
1.00362156151899
0.991401959888045
1.00430131534718
0.994299404157992
0.989394811709615
1.00258907481477
0.97684695762644
0.983766746492225
0.979778806836351
0.958356446491648
0.957676507033706
0.950390284379506
0.942454975398461
0.926236250423904
0.916769727482993
0.910162086052717
0.898019004748436
0.876661995703448
0.865446420455317
0.843822684423062
0.805369338434836
0.778118321190868
0.765135225027696
0.736138412058323
0.703441865021043
0.684402221442065
0.6564788582842
0.634082768048005
0.608951165748513
0.59634722125561
0.574538298332752
0.560897088318121
0.551209591033787
0.537028374325704
0.529341050649907
0.527930288621931
0.523898866778609
0.51886132720609
0.514064831452143
0.506530370730421
0.506756949226733
0.499037473357228
0.492518415157317
0.48518182300144
0.477679644273073
0.472747455940291
0.465558621124708
0.455801802414677
0.445592346674528
0.437040118241291
0.42093949420485
0.414693683494944
0.404716080158683
0.387770393490839
0.374478646161192
0.364466518767426
0.348967942418588
0.336857474472707
0.325887245125295
0.306770494943341
0.291500151062732
0.284612824129643
0.264805012779302
0.251711596186597
0.245058573240443
0.230841599751888
0.219903316881862
0.212525956860284
0.204020961569667
0.19494283504926
0.190790344291973
0.188298612622182
0.17867076444845
0.172830815357368
0.170096334420299
0.166793141243607
0.162726491876127
0.16021107745781
0.158494129602216
0.159152130059679
0.157397821300523
0.15390922272981
0.151079515341305
0.154476196238956
0.154024148288961
0.153247389820322
0.154984903243947
0.155568307830841
0.156806270442496
0.157599733085207
0.158147104059858
0.159030555110781
0.160939152499866
0.163953835757522
0.159479692602184
0.160006051344408
0.154951465347538
0.157801405116592
0.153534468232667
0.152507720996302
0.152972505663208
0.15334892100318
0.14845520794668
0.15034226339116
0.148015951817771
0.151803696710135
0.150294091168881
0.149270957975103
0.145515417376461
0.155932730238871
0.149758405567854
0.156994367509061
0.153580486941515
0.157061314743117
0.158906054635271
0.158684250841628
0.1603276837986
0.164097688812611
0.162490441196448
0.166343868022067
0.166557266343288
0.165991610194455
0.166562367148904
0.170540567492613
0.171341895377314
0.175694321033356
0.17260345556563
0.171305263996995
0.171962327624772
0.176112891129167
0.172943536222099
0.178549524710095
0.179257344281891
0.177633348073815
0.174545357356128
0.184334179332286
0.179010463715087
0.182469854269924
0.189121574732974
0.19558262359016
0.195650408443649
0.208163964052298
0.211179302191345
0.215930084187777
0.222637871590797
0.232089564795003
0.232786161950608
0.233726433935643
0.238701919984264
0.245679973545082
0.240220908356828
0.239629045777361
0.235939538448086
0.229997161663134
0.234865282525568
0.226021316227317
0.218657029036104
0.222059125447536
0.211935622915359
0.213066285456723
0.213829626284887
0.204704711040462
0.205017374170587
0.208338932592973
0.202265226500073
0.2101876767716
0.210218677684987
0.208621243865969
0.210462548082205
0.207548220233101
0.204545517228197
0.203772760151311
0.203411231293516
0.200561368419896
0.189393831817707
0.190242688069447
0.194885051579056
0.192886359791542
0.184554236250785
0.18866724037914
0.184972633177298
0.18144443577523
0.1779089149803
0.179503285763142
0.177513436191248
0.182495389612393
0.176484703351971
0.180031596081393
0.17174706128722
0.179348889815195
0.165351046467099
0.170920448664559
0.172462197448124
0.176704955897619
0.164020031758576
0.1674303972852
0.166307302540486
0.164055379948236
0.165246277690992
0.166825645453021
0.158630173790483
0.162437076827204
0.16735294900276
0.163663061535554
0.157114080062604
0.161122378089294
0.147746281550531
0.14156967255457
0.148383989320276
0.161113913152131
0.15005105864339
0.145451070390567
0.148939906525328
0.148013375479944
0.144840007600558
0.150273557790549
0.144318716690238
0.151916292807545
0.149431024790659
0.1481135026388
0.149091427730306
0.149062305596454
0.151992069689217
0.148276513010137
0.145608757500472
0.156247531122451
0.141108566498581
0.149534977357619
0.154981109437259
0.15149944886724
0.160036243221247
0.160760868793844
0.149168829514396
0.162207703379149
0.163449949570583
0.159706457986368
0.159804973899563
0.172377384899462
0.163200018629966
0.169673451217587
0.163030237966814
0.158941962186357
0.168777236146534
0.175088053859764
0.173802186514013
0.179314666594986
0.180834586939834
0.190549536310861
0.18799685519238
0.190110663582068
0.195430330649753
0.202698611954917
0.209614088207671
0.228158307362336
0.224807522579554
0.226721531365985
0.237022371769386
0.238340295645515
0.243042216917892
0.266859519363937
0.255209722509068
0.273428197364038
0.291309470778846
0.28028802027032
0.281373982618191
0.293514700322699
0.288747652511903
0.291269916067687
0.292544558943928
0.286286217845773
0.275124703391776
0.287315468169521
0.29623312730745
0.295441932669072
0.273709495375884
0.267147633973824
0.279235584057594
0.290369147914032
0.274325658899339
0.268430071441318
0.260187548514712
0.278421606471083
0.266449636526392
0.253231761103882
0.253685202549748
0.266494756882841
0.243575164088256
0.25988295169037
0.25504852743292
0.256015211902839
0.250930271918004
0.260426083150604
0.25378699017857
0.238939481157245
0.252212995662243
0.234772701581247
0.237393091070815
0.251464662226344
0.236335231617452
0.237239647502711
0.242717751310062
0.236984336841176
0.232153555556898
0.242017267418014
0.24162832716711
0.25140039860211
0.238850941368141
0.250855974844915
0.229140433973182
0.250471293727559
0.246882418977627
0.246158587739348
0.222383709100059
0.242567681565483
0.233505271291238
0.256256106111802
0.239742837186821
0.244457489229607
0.248693194039156
0.259890801952088
0.273737037547328
0.25703832457502
0.259408785709809
0.276757780990711
0.242994323342453
0.241799665554595
0.287081454564628
0.284316767255676
0.235982358394846
0.299325298011133
0.23071684037773
0.267679205712934
0.257097285437379
0.283572522055812
0.270383672842702
0.288515903644608
0.246296548879982
0.278962014005075
0.309105161749971
0.303608895636613
0.303132000848628
0.310568166932296
0.321181948121863
0.349337925160513
0.297320691981728
0.323267197160982
0.316762698309198
0.331387975399083
0.3238439341357
0.3661025036855
0.368928122794538
0.359230129748736
0.33343070842208
0.327903640683659
0.317293194506967
0.354001779901984
0.350397733047344
0.367800998321515
0.317727898696655
0.335678670194681
0.339476505888813
0.405240736937416
0.392447834086349
0.362861263505621
0.317089310626273
0.343556332177655
0.366631329451383
0.330120868971918
0.266570158627747
0.354380937299224
0.330951675258819
0.3267543821554
0.338850225809734
0.320469225692355
0.248398204480353
0.276981823984039
0.282050236944579
0.296322142308697
0.251985314579144
0.35791873828675
0.3302649603199
0.342776706759473
0.310375034044381
0.317384125192135
0.301308118990437
0.342364365292544
0.336650474029756
0.35551151891579
0.478234118081231
0.410358538258762
0.260789957161235
0.434179301489735
0.449906987956354
0.473603817645788
0.395316632377416
0.425571911473779
0.33804496296819
0.359011070210662
0.405302842135433
0.271736719760865
0.33159645737258
0.294443333902777
0.303457986922615
0.298373502155129
0.305851714039345
0.372522309733195
0.27639056991362
0.623077383742119
0.499933896366125
0.247029816459946
0.462350701895675
