3596
4000.36533379555
650.420452594757
1
2
2
0.0892121257932944
0.0950434101323471
0.0836294132478907
0.0981126255697818
0.0869068008143412
0.0997335844604873
0.0968967152833562
0.0986767899664466
0.0904980717952316
0.105297685991804
0.0840099896941948
0.0992751546339819
0.09741799944045
0.0988788528244918
0.0873132790167383
0.0914827820549765
0.0791420211483246
0.0871868406696826
0.0914017160014131
0.104685191321957
0.088426805097931
0.0924320796206975
0.0933301263208998
0.104802629337505
0.0865655340563432
0.101364904388298
0.0830573299364743
0.100835369423612
0.0872341172221356
0.0977885352134232
0.0932662179387686
0.0967567038112526
0.0846011628319929
0.0970271489462708
0.0837185327996566
0.10327978175283
0.0935333575129551
0.0953586071870027
0.0793326905578621
0.10185102591991
0.092713732342107
0.0985178433536252
0.0919121965249279
0.098099480200489
0.092089232987479
0.106058534245448
0.0830743951452921
0.100099047305824
0.0917368590601088
0.100332471095536
0.08808876553688
0.0877148995378452
0.0997715189707
0.101798415278088
0.0950984452590323
0.112349473932584
0.0953812481975882
0.0932641786731168
0.085195853322113
0.10348755260937
0.111016053186233
0.0976219454105889
0.0923041173160694
0.0825157228221866
0.0711309769646476
0.0977663559455304
0.0874272375446129
0.0859156226351625
0.0829482582013239
0.0884594675552707
0.078715887009534
0.111118697107981
0.0944642151064262
0.095884720678169
0.100247962122084
0.100550463338893
0.0751240165154244
0.0899475015872425
0.0817284823704016
0.114126136740769
0.102746354296206
0.097257872998121
0.0917274106416429
0.0854443735353842
0.0937252681194124
0.108605746774072
0.0662018912412512
0.109100620028662
0.0964727155194842
0.10491896677419
0.0783572112931269
0.0861805407066677
0.0759586614107332
0.0895702608521043
0.0677147614518226
0.0870707302141172
0.0736976028299132
0.0950069059784415
0.063586285470412
0.114870492328535
0.0798441253663371
0.124835950867321
0.111978704302221
0.0924804083066575
0.152221198548321
0.0830613015884839
0.0984990052263533
0.125748918869186
0.0937939259623664
0.0935570916306005
0.0739730260127534
0.0888666741458153
0.0768197199524083
0.0974158366305887
0.0747162855194484
0.12356160435347
0.0931912583816372
0.0954669450398305
0.0841818007699431
0.094001489010621
0.0494609789278621
0.15087651059803
0.0990294644364543
0.0894033197408303
0.0874586297136126
0.0862905031350586
0.063862586776186
0.142458724518002
0.0953745912421829
0.0913023848910758
0.0700976288711891
0.0918704927190243
0.0631946779885081
0.102579826586491
0.114786715303313
0.0868283358134117
0.075986479538805
0.0916394362418536
0.118768960505398
0.139568995876937
0.0840228149101788
0.0866645366033862
0.0620746271754378
0.0958428622308621
0.102474587408202
0.0917393291191684
0.0685450882680594
0.110578328923995
0.0806703940026991
0.0900590464709962
0.0711707121287167
0.0855175256806033
0.0962977336255382
0.0971850286307668
0.022848123744176
0.190556145730958
0.105853154900704
0.132239859962324
0.118977829406417
0.0833822448797938
0.0925445445286536
0.0820979427055071
0.0817334431119545
0.0729225392462339
0.0830394753522515
0.0690406084920861
0.0977356927883893
0.104369723248139
0.0702091273953422
0.0989358988528032
0.106043025088846
0.092027495689145
0.0798119360363224
0.166505437001962
0.0717105807756599
0.0971468254059499
0.0973088818310939
0.0953459892602427
0.0672438062375901
0.113074862578575
0.0905826838128905
0.0867223050960188
0.0803170194798052
0.0745055413610164
0.0797760838427439
0.111454020131581
0.0747505796040633
0.0868378775915828
0.0638783244599629
0.0804090754823262
0.0950680813931914
0.149235407156112
0.0917520443631811
0.0894496232514958
0.0820803135344502
0.0654261832611065
0.116857164047261
0.105600835411431
0.0837869360308771
0.0836667935803297
0.0661480976908906
0.083983354202958
0.066180179204842
0.0851122570552157
0.0565245221800991
0.0594969026287015
0.121022174528096
0.0923254695635971
0.0809417959551905
0.0746113969627009
0.0876760461495469
0.073536789282684
0.153112392361719
0.101823146560624
0.0840966747634046
0.0863361197112414
0.0793774174831316
0.104795154164314
0.0848341413643093
0.0859541586044471
0.0780559485117183
0.0804249142185373
0.0710927937938861
0.0756741671569028
0.0685493529711131
0.0870108499741938
0.073209772473193
0.083841696135014
0.0728074652103756
0.084024476787433
0.0854644876709458
0.0792746005854913
0.0783154840618338
0.090523878603796
0.0687435334094086
0.102185507587835
0.0895760051684576
0.0884757682316575
0.0812494760397334
0.0820172953023825
0.0743176193564965
0.0790106046300368
0.0712844417979324
0.0860825565107883
0.0620533537361147
0.0895121997119059
0.118676437968135
0.0825319735683108
0.0847212414978499
0.0671060803118616
0.110189909771329
0.0824348926402432
0.0857711928476383
0.0791337139635494
0.0857331329267947
0.0630412435455721
0.0849062717146036
0.104074081063093
0.0849943647396386
0.0842785141960923
0.106722142916258
0.0894438803739995
0.0801829409581703
0.0762004676035662
0.0753244681138053
0.15927163366924
0.0782512562033085
0.120692817287973
0.133004610648397
0.0932125099855467
0.103474099038595
0.070620320534463
0.0781180570229392
0.231752549111539
0.11328203824234
0.084678023623903
0.0976670556248256
0.111741038437691
0.077044033967022
0.110732481569732
0.06925497717157
0.110694229738944
0.0938145517615562
0.154089582371133
0.143450296257949
0.0691845565189929
0.126143272501692
0.0987932152739732
0.0923218322821163
0.0835483698441566
0.0876700226997305
0.0806701515626162
0.117170307052869
0.101125780596515
0.116548308451267
0.0820591461003304
0.0893091700239711
0.13062175817741
0.0939367710338004
0.0866085323718545
0.103254984558389
0.10235342603184
0.0786268350752301
0.095148143888485
0.0817918172020686
0.108273137859539
0.0706828013649963
0.0936533023593294
0.138033183312691
0.102833775956536
0.104105063939052
0.130267890003424
0.0941598788866344
0.0943204539126963
0.0892433750707132
0.0910718892903582
0.0793764339133867
0.0911308186166291
0.0929583611616767
0.134885584128925
0.0910421892479939
0.101779748010776
0.088705924362137
0.0966749498218687
0.0955037006349524
0.0982319383673142
0.0895226327206502
0.106409215804211
0.0856844498544289
0.0890513684801928
0.133048825884886
0.133489310865297
0.069802407784204
0.170101191977363
0.117373164288962
0.112654673074344
0.0964199271150756
0.100477248699077
0.106231556235283
0.0976054305217479
0.0968706333876607
0.106820653221632
0.109672294350873
0.134233313196661
0.117893054407651
0.113970565129911
0.11431524250296
0.189804953809839
0.164598277335686
0.132487419305861
0.124073983195243
0.0985204341859167
0.160044095642127
0.13297746380053
0.149265093171117
0.148558827238764
0.116741976867944
0.126066160653725
0.111571599401043
0.135644936892588
0.12010312793573
0.139534680344431
0.118267369139124
0.145309120160911
0.124392531283088
0.145729655069941
0.119194422233197
0.156591671312963
0.171841144507993
0.148590259354365
0.133683157279527
0.155175475323704
0.123064987633036
0.194913150123116
0.156509457587052
0.228184343890949
0.16500259095047
0.204128294348081
0.201696343300002
0.166928490688938
0.158076451526787
0.152109964470053
0.170072395430437
0.17996341415076
0.167354050285038
0.174376151604143
0.174036533215082
0.180876288916478
0.179183901742973
0.187286831595341
0.180483612117487
0.183978698819623
0.206691257570375
0.184175665972054
0.196375246830467
0.192039398283267
0.225785986972088
0.25215660069575
0.242341331666078
0.201837221956658
0.211336503977193
0.198985966303022
0.196998457920896
0.222445540579053
0.21113872946398
0.225392364563336
0.225966548593623
0.269681656642686
0.236243045127986
0.2764467958191
0.247481363834557
0.219877374929187
0.261054066050043
0.25100716667821
0.247432881070222
0.269722840568625
0.254745444589471
0.251572640214948
0.274625036151313
0.272587266485975
0.272705101540948
0.278114542086612
0.256536419269598
0.280518611681961
0.263652456952887
0.286751056903219
0.265535769699502
0.300047856260482
0.282864432549747
0.302143853681595
0.294588846256314
0.295322278113199
0.281906378862562
0.355136341862816
0.318788652916683
0.324170930086366
0.326381645904883
0.312814107347636
0.319371568796298
0.302341686934213
0.347293403334934
0.341287713251547
0.349030523006584
0.362743449770934
0.322046800489427
0.351109373429852
0.340166794129271
0.349775035798752
0.338596398768805
0.364707927300021
0.359611264529203
0.366655388640218
0.365616086954326
0.383779544770222
0.365212541779232
0.39627040672239
0.392024408183031
0.399474747727578
0.394845574320872
0.400020387679353
0.406855728135544
0.426366051159039
0.424898522494062
0.450708407113353
0.442455703002758
0.444941936380835
0.420811538378382
0.439845330347908
0.416038423609048
0.444239944818281
0.422273731436853
0.479324795018342
0.43734647196704
0.480853050917567
0.446683867761211
0.490295485705139
0.475640557947137
0.490891127239779
0.481450822112755
0.509182914425183
0.477607738280319
0.495596823539637
0.475839970550431
0.527672940034927
0.485336134095915
0.533493406031572
0.509932704176457
0.533369544410859
0.534920023687076
0.535899282595169
0.529910760887907
0.550590489651735
0.528006456095335
0.575552496614348
0.547955573798077
0.575096521249616
0.573928957989435
0.580900909532572
0.580530729064167
0.595072161651122
0.537774733690907
0.594167796031267
0.591383574454663
0.607192906289917
0.62676784890092
0.649699568036896
0.585108643242142
0.624372027580692
0.580397094539025
0.61542349308395
0.592300088030185
0.675359634897791
0.639200980370991
0.653647463661964
0.673082600628909
0.659045996008007
0.641259906663021
0.69172867886208
0.677774793551078
0.685795494568465
0.630693227212997
0.70447253797517
0.677856390086253
0.714602780478574
0.688527807915613
0.758256404268537
0.70881484588576
0.752988751264018
0.705633722186738
0.721581646041333
0.757040821730051
0.72970959826655
0.718692551738445
0.778944067729767
0.732669285182133
0.794365379611058
0.769732343493531
0.809760144042792
0.752926257967578
0.820411348124549
0.844842791805788
0.857847928463536
0.79959419896683
0.824656034805075
0.789778310438004
0.878270090465561
0.786610646745921
0.894336840883142
0.828129724289465
0.83516271290986
0.831199250115169
0.875172234419182
0.872796850697448
0.880412003260132
0.832119578947049
0.864703954992985
0.859081213265104
0.840721573631144
0.844991978746543
0.928993342929219
0.863906232123534
0.926231609735533
0.869900452810499
0.919947652436867
0.856009701358704
0.905384287821971
0.918566187586434
0.945012432770313
0.890908547585404
0.976393284229661
0.950324359423166
0.969891768051732
0.92882963472533
1.04254138409118
0.94545881799276
0.97168456229539
0.943405912258866
1.00467173690688
0.931214113509638
0.999160462652346
1.00758045139718
1.03885740709883
1.00509502590103
1.01965498930446
1.05553969842989
1.15456994891068
1.00015355401785
1.06561070283698
0.997463943143296
1.04529645524751
1.05919879022301
1.02644399721492
1.08846059917033
1.11682625934811
1.10052749730309
1.04978567033059
0.997639576542874
1.06882414404704
1.03069464377226
1.09272745875004
1.11575615476714
1.07492542658165
0.967007201621814
1.20760315046505
1.05392442469922
1.08271377006832
1.143941951972
1.27826722302565
1.18360290832191
1.15881637523162
1.09140693549844
1.11422585396606
1.15138442099072
1.20766774021184
1.18888058636931
1.23246461029393
1.12938985917587
1.2147927296793
1.20153752159012
1.25442158422545
1.20213917648417
1.21282206606646
1.32890352584081
1.24811825774065
1.10151335344052
1.27048821148013
1.17085259707828
1.18348753091764
1.15717957329311
1.23078738372934
1.29039028593411
1.32694908689918
1.18003314719414
1.21989087011057
1.38917342239114
1.42921138430907
1.2974887733254
1.38464938072453
1.26458736884522
1.40397845527748
1.21759034952926
1.17570699234237
1.27410187285256
1.45132238095903
1.25438855797062
1.28897255970404
1.28471363966161
1.39034849005809
1.28533461732732
1.36559875367268
1.25442624917577
1.28173924558629
1.26892897069147
1.45623125698733
1.35318560716776
1.44941702073959
1.32844006691559
1.34067920856279
1.3144631315297
1.46892963898768
1.35727587031683
1.35142107494291
1.33205640951879
1.35371853852544
1.21125413833449
1.34894080801583
1.3820406832588
1.39334966560686
1.48542986949837
1.42699119317549
1.33070858353934
1.37705978321991
1.37780467816527
1.33473363816901
1.24728155063998
1.40442484810344
1.40551083609502
1.59456296971597
1.38040233468063
1.30160148378462
1.36217474140912
1.4154778972299
1.32727021221626
1.46037651928625
1.39916169888349
1.4304561523746
1.41142243269907
1.62776131899082
1.51190872420068
1.47000319073375
1.43664049621738
1.62341403945826
1.56307350574108
1.43835160279658
1.51072166954857
1.43962009351753
1.42488551711768
1.51858573828525
1.31395591024917
1.46611153748077
1.43493928554279
1.37800476232296
1.51299053607518
1.56561676533146
1.45880918366394
1.6115800501395
1.3949574193543
1.53610860064831
1.44512745329226
1.46010778999146
1.5343312523121
1.48662124920612
1.47747637039204
1.61604835056801
1.48570904148034
1.40514440455871
1.42985649618296
1.56005612597148
1.4985072969124
1.52869074924072
1.43827662942375
1.44048209682751
1.49260892955235
1.67930510137477
1.40711092601721
1.4079497855096
1.49210650216231
1.49629463818032
1.56005569263215
1.53554095225362
1.45735283791696
1.51082906925921
1.5413830589848
1.4669121246196
1.38013754663626
1.47120412458044
1.50934295828085
1.44751201882809
1.44117947215271
1.63786503501628
1.5199752035363
1.60409021333656
1.50624580962377
1.46234420696314
1.43939977206149
1.42093753799419
1.32944473347874
1.52513031184637
1.50792933155659
1.49119785691576
1.55142417810692
1.43960111008959
1.44462020239026
1.55788343036969
1.39339949574277
1.40882014673743
1.48484246963067
1.56689626666697
1.59355396896305
1.50157224342793
1.42393458962997
1.58005506970192
1.61186981091535
1.35563606408979
1.41632514682024
1.51170843746487
1.43636529912432
1.41114529501894
1.46220139365414
1.56585696561242
1.41406625386769
1.46504285742381
1.43652269148788
1.53428951918932
1.42876479931971
1.42999405678139
1.52561489707838
1.52308889930691
1.45950809651316
1.56718397584931
1.46235601347077
1.48624009285951
1.4482322877576
1.3977843969524
1.44765561186925
1.45667037257266
1.55826755118865
1.56083687083196
1.46212055425696
1.44414409381011
1.49289185091202
1.49735546457953
1.36695347452803
1.37602042430817
1.42153018268643
1.42859842980608
1.39559387191522
1.42515768304828
1.44345254116089
1.46572537831579
1.41725182424681
1.48237726437922
1.44759241674242
1.40511557422328
1.46548169049412
1.40920603806912
1.42228056952796
1.42036050521961
1.42394460490675
1.43258714069949
1.37470456394217
1.48642206117781
1.39235112302655
1.36911384202695
1.4045238526696
1.37396853156558
1.43137057757801
1.45433310435925
1.40340099657857
1.47274092869946
1.40219719763314
1.42327687064006
1.44254475001455
1.37268729905239
1.3780160540105
1.40576543375791
1.37189503810836
1.34612206051154
1.31673608572745
1.46853134779083
1.43191016235048
1.28968375434852
1.30577433011342
1.37706352556254
1.39577928004005
1.2783976294852
1.34077510115203
1.42931452426921
1.4075644854454
1.42631246273197
1.32277517374982
1.34613384612839
1.35600613828539
1.35502825642204
1.31666260493371
1.26988939678347
1.27165871365058
1.29893485232473
1.25657831479199
1.27063185201674
1.35152180321343
1.29566702506527
1.27780040072604
1.28245541659781
1.23020282399266
1.29939733333147
1.30665524694651
1.25316327966038
1.30072868340303
1.2445095579685
1.24995870428687
1.22711448339108
1.24291840765958
1.34182910184523
1.25632345798536
1.22012064908779
1.21458632447423
1.22060605282803
1.20214333456723
1.2201850531521
1.23453629474225
1.21924393123797
1.24701612237616
1.24776004003534
1.20094501877969
1.20569314049861
1.15256642790439
1.13824026387465
1.27247097252405
1.20086356069549
1.19201805928368
1.18816174635806
1.13632131520829
1.16714599801737
1.14715725808683
1.17458383793579
1.18661314730432
1.15182085748202
1.15064730361611
1.14989503362622
1.11417715078393
1.1251086399063
1.10573671013115
1.0793194617937
1.10051979268551
1.10355221797155
1.09699882029272
1.0978886544198
1.06603563179104
1.07493538119247
1.11179651097739
1.08803085981144
1.07561598511422
1.08140767353127
1.06036307379186
1.037856808709
1.09745331998538
1.08621261152761
1.00123966385365
1.00755987674089
1.04450447580488
1.0032729118551
1.00575040232614
1.03041024604966
1.04113541740663
1.00204842900811
1.02247085419235
1.03418581739338
1.00810397322026
0.981551669180044
0.946622311126407
0.952284626690566
0.956325370765458
0.981246353278133
0.991118793819503
0.963230016019377
0.967690700317593
0.959816493701771
0.961087296316913
0.951469125705117
0.935895633121298
0.914149473424585
0.926607851951005
0.937046387206581
0.920341676591921
0.915501884045295
0.908110179786411
0.93845318247117
0.916604956439508
0.88098501046861
0.881746272870024
0.8850510372655
0.878690088324121
0.872091721765768
0.886608690430641
0.868168475360679
0.862330594507132
0.842535010201917
0.845101584144041
0.854614250185039
0.845966306552693
0.834426617694598
0.833925170735023
0.848623447768518
0.86551620952577
0.842349857417268
0.810567388237908
0.81489242175486
0.839813642581659
0.818919073719383
0.820690007530765
0.817595577724572
0.800129159982756
0.800055720511382
0.791908533657906
0.802871580253945
0.78213988485469
0.755031527650497
0.779842520106692
0.786686292083748
0.788284376739614
0.78009118082983
0.754844709714726
0.76126442045529
0.73732186843334
0.747927424546195
0.760951510318143
0.749049763453228
0.748510160057046
0.727965530698556
0.737493118517631
0.735846098444947
0.718779482792051
0.705145221182647
0.730379404668501
0.718139174900564
0.716488567375246
0.711284996520071
0.703773273091102
0.706268948602342
0.704200016822002
0.700584540122281
0.696387070310655
0.692923124573858
0.693197780636647
0.678586778430845
0.670366313543101
0.678725373538198
0.677560178969007
0.64943806284945
0.665136463995975
0.668487384828014
0.661542131864679
0.655068062090883
0.647431169006196
0.649395307417384
0.646783353768921
0.635812238747436
0.632277395035518
0.642059567418178
0.64683790920286
0.637029156973463
0.639246983713448
0.621894515479079
0.61411226638741
0.617065822046065
0.607712432759986
0.61058019916899
0.621268421791709
0.607731162202705
0.61000130277181
0.600558882735337
0.60069013873502
0.597302117103376
0.594383002387032
0.587882543892863
0.590192394116785
0.581696782169554
0.581488867871925
0.580654280496928
0.571001505984689
0.561779191182774
0.578994677875462
0.562577456656059
0.552816709043167
0.563643715893881
0.559306261761322
0.546970634545956
0.565326480241481
0.552942836225911
0.553708730082864
0.548702234403477
0.531168515007304
0.536656035756028
0.532282710829078
0.529924574383113
0.533657844900099
0.528687716057909
0.535618479892261
0.541849922196702
0.517539981080437
0.51873925874882
0.523302074279851
0.512795673000493
0.513941196723085
0.521125659092855
0.516994274635128
0.508224578820884
0.519221943482398
0.504894835737764
0.506510028676348
0.509557270903069
0.499764027691362
0.491013014134531
0.5001509728848
0.505227527015144
0.495521036814166
0.498653987315142
0.502571278661948
0.487960094867769
0.495160431233226
0.482261081038106
0.49215474301346
0.494587673999148
0.491548700055149
0.48831132738582
0.486544081241334
0.490470825363154
0.493634829835374
0.485160854379378
0.479937147283364
0.477831749421712
0.485100563943891
0.495246775557198
0.489459653899721
0.484119903814608
0.484124101199714
0.485875843755044
0.488356125584462
0.486257645979876
0.484621404151743
0.489194110190522
0.496187862314505
0.483888042886857
0.492833620141837
0.489636624435135
0.495326572857081
0.491913393453242
0.495290990716806
0.502033868400771
0.504922355306323
0.507323374692537
0.510415612111503
0.514803792412631
0.512056949830166
0.509519624791256
0.517069975645036
0.518798759251491
0.513900966551086
0.517179803977458
0.533387169358884
0.540502745651946
0.523528200682937
0.523281893293866
0.525255127400417
0.528490475429208
0.53260397875811
0.533259198276179
0.54710822816473
0.52743383870435
0.547373295506556
0.544577262270086
0.547128290818051
0.540211602945253
0.55700636780905
0.552774026481391
0.553433691717842
0.547345593391239
0.564807939370305
0.568375694634044
0.580587623594425
0.578162293130533
0.584792335856094
0.588959031760637
0.583844944716647
0.60267343835727
0.607805117337398
0.601539245852379
0.611226669787227
0.611944205943298
0.618873133667173
0.61608554375967
0.615774586491708
0.623951303212771
0.624882025129931
0.613221919613991
0.645424653242812
0.650030337575238
0.627951813388543
0.623674068582624
0.635210267530421
0.632865703255675
0.651725577223241
0.622536816396219
0.644402639857598
0.651739544967398
0.653119089605217
0.642549123194721
0.638691464993272
0.630729253301509
0.6274450743607
0.631421725597935
0.641318119976659
0.648203392187441
0.629190713946271
0.627727724970903
0.637006020612402
0.639391931302363
0.645936684028551
0.642725694205092
0.636515223692053
0.626724373776093
0.636600400508417
0.633473512324268
0.640208642889295
0.626063040715724
0.64583875854076
0.63773719079191
0.644952968683361
0.630937490125509
0.638735819001984
0.632101753725774
0.641239120790013
0.642375113266607
0.63726898261877
0.635691462987968
0.646817519051045
0.62850131676075
0.650644837446556
0.64054231407912
0.642390205436079
0.646549163057372
0.642510882162289
0.639057933218846
0.641026350084338
0.636693177001371
0.633245940484792
0.640279506595264
0.637018641713249
0.627976398455655
0.630459727091834
0.629525868697164
0.63957795086071
0.631948691717207
0.648093732168753
0.637557112893819
0.632651465725343
0.618868207028105
0.617522169352939
0.616644678127901
0.616095430306264
0.620380709222093
0.612149173686602
0.609813183868421
0.629374333565339
0.593174425321962
0.589335482559867
0.602639799980686
0.591643387942303
0.588512766591585
0.589047746486264
0.571131735204492
0.59273381869954
0.580915702767364
0.570466414263024
0.572719302363695
0.56244696326071
0.56637824187587
0.552244892818426
0.538428536785002
0.563005027811088
0.538212178880781
0.539186452857525
0.534934744315018
0.540481915646259
0.529361305986198
0.517036546276841
0.525836503292572
0.523992719695735
0.517656935031069
0.521967102741185
0.510223328819288
0.507623277312949
0.498695793935998
0.516521982641483
0.501802746201843
0.4905970285608
0.484074537003449
0.494101438485343
0.490612446199127
0.485576603920126
0.479975703875178
0.479805896723505
0.474467344770695
0.481125558278305
0.467114167274342
0.477900061329453
0.473479572402963
0.476026562164552
0.464228882165913
0.466547904497666
0.464455857899109
0.466631691299486
0.456772706959621
0.463372966264121
0.451225890938144
0.45418598015564
0.451838263299886
0.451302615745795
0.440279086277307
0.45262176108996
0.442499223082113
0.44775880834945
0.439458724730434
0.440724536199658
0.435965465582173
0.439169902846833
0.432871510619481
0.428460855539436
0.41584172094692
0.429751983143927
0.425599735992676
0.433046004579781
0.424843304658361
0.426166268205325
0.418534787094172
0.421302873869891
0.420692469336888
0.417996364869332
0.412178859569787
0.40523047130902
0.405318509378811
0.405275112466899
0.408302616243493
0.415455515650531
0.405740939731288
0.407564368839927
0.402701632491689
0.401668746473901
0.404980363864741
0.403791821239301
0.40086881217379
0.404729237171182
0.400877644140043
0.398679267258783
0.398645313913588
0.392184384950169
0.388138836166202
0.402055992517213
0.392720807575813
0.392495009886614
0.389670786038256
0.384728314081585
0.390631376104586
0.383907736627581
0.384387404183556
0.387700704152593
0.38052593097645
0.386283425740954
0.384454337434884
0.377760077063439
0.372788599847356
0.383665249925153
0.384091274737651
0.382788807495986
0.381612684153197
0.384084944789314
0.377578071964546
0.381326267471432
0.374527209996229
0.370663228221804
0.363845566390972
0.372126157882984
0.380919186031564
0.36883786947161
0.357283411692143
0.366750902567
0.363697216284995
0.364397947993175
0.361411919040882
0.364613722745907
0.360610843948285
0.363660505586472
0.365789472043052
0.36274191601673
0.359181893402891
0.370272651999369
0.368080245447712
0.360654720729969
0.354715145411598
0.366827743256889
0.358028607541605
0.361533480952616
0.361638410296651
0.361157329157519
0.363195243439534
0.357911257081158
0.352330859646817
0.357409086310051
0.354756758236776
0.364206458872778
0.359416450473531
0.360664956963386
0.352519938747674
0.351862797292235
0.353105685517841
0.355667075434843
0.348362798168112
0.354042937300552
0.351354564522835
0.35435468818917
0.35050172001531
0.347625661837946
0.351125801691505
0.352541250706271
0.347381478459137
0.352614660365543
0.344068481806482
0.347735904984092
0.348807314083626
0.350166316322955
0.346662773966421
0.339576826481361
0.349370433636422
0.352025131533278
0.343941550407067
0.341297692993906
0.339736705908472
0.342569861534369
0.340072681572595
0.342477439751026
0.340517262797983
0.336276446402665
0.332055148467579
0.339637571367933
0.335797265927868
0.340291714973889
0.337461197661121
0.336545642391971
0.337081313137938
0.332683646377169
0.334784509920552
0.333464378869058
0.321791608632642
0.336398219532544
0.333825769887775
0.32838530031723
0.330960192471129
0.329370134272551
0.324469403439369
0.324275887200985
0.321534757747393
0.324124801000169
0.323212835645962
0.326162921796094
0.3223618451938
0.32729474553773
0.322683994648584
0.319192507083659
0.316958785835344
0.325404828481149
0.318613190664965
0.315837975537629
0.319595762552714
0.31792744331066
0.315253784018677
0.315139235740663
0.315156685851817
0.315089292946961
0.312861919440822
0.318253101279359
0.311027243751883
0.313430854824158
0.309376425592095
0.309125261240685
0.304542713853688
0.310762466705684
0.309981087042158
0.306415609092383
0.301582165601532
0.305573465898039
0.301621739950493
0.299321457167265
0.301216083529881
0.298409114489675
0.299644415991553
0.307723883830941
0.298051168161494
0.294422923467639
0.294964186594216
0.29539199433082
0.296099862718698
0.290379478109594
0.28614653907369
0.2926510578883
0.288491144260263
0.289236464379742
0.289574773570808
0.289810739249527
0.284941042361712
0.289937653569747
0.281487159883656
0.27914143443665
0.285653692619798
0.282402202528293
0.275990078195482
0.282213870157243
0.275412614672478
0.27640682995741
0.277810912978683
0.278327755973085
0.272117353111072
0.270522353387289
0.27557248894649
0.271684861168101
0.267163972385327
0.273273514368803
0.272852301802089
0.275986866617077
0.270188552970475
0.268793935949208
0.27098103575597
0.268401859319952
0.264788868290092
0.26884545724838
0.267960649241026
0.266931557938298
0.268327071006917
0.267109028520175
0.262846825833416
0.262781451673237
0.25990557191204
0.2623447474559
0.256604264540479
0.254715183491913
0.256475189586855
0.256735507564333
0.258301056929083
0.257357493212346
0.255236828306418
0.254769145000253
0.256248324507422
0.252395412097535
0.255293119564793
0.254738098593744
0.252270351410365
0.25091581582979
0.250296461134788
0.249373645982445
0.252558363067996
0.252598992914974
0.246502929612487
0.24487449265056
0.25036776308754
0.248381298337652
0.245891106523452
0.246353452127256
0.239910143743738
0.244184442937649
0.241874289247742
0.2414716359628
0.240619253012112
0.242664623014582
0.239309388333118
0.241827137830517
0.238767181558928
0.241366846636587
0.24073956017261
0.244891224853239
0.239753555634484
0.239922236675852
0.236553401446677
0.236446590929886
0.234321253755166
0.24023615990682
0.234849277104244
0.234611844732552
0.237002019303203
0.234315153314069
0.232180122401368
0.234509974653078
0.228374172024846
0.2355033296705
0.23310130235094
0.23013879718313
0.229507205989564
0.230134430568445
0.231742881766219
0.23537888715467
0.229116975906534
0.231198366557509
0.2297739146482
0.229569573543759
0.230398547462271
0.228557066604069
0.231735240761009
0.230359596023616
0.227209239695588
0.225075556620884
0.230595104636729
0.224331776798551
0.227645657489581
0.221635501916853
0.228259036269399
0.222312641599979
0.220307302563626
0.225268860670957
0.223854671192985
0.224474345546291
0.222358510008114
0.225595908599314
0.22110784768211
0.22558510902736
0.22102878372432
0.218198787003988
0.220362716988471
0.216203910336533
0.216162021233633
0.218408278468244
0.214638560149055
0.218614122963236
0.214406158601036
0.217590295911783
0.2161939563442
0.219216829683372
0.21503514249461
0.212014518344725
0.216887873368293
0.215100022625385
0.211544499132299
0.21145456411241
0.213397430523882
0.211900295519303
0.211776724992694
0.211780409107461
0.210410412253692
0.211228981484046
0.211471820775952
0.21275304329483
0.212340311829784
0.214283260452124
0.2106168811919
0.208841981696491
0.210520551952254
0.209817098543568
0.205533703949364
0.210087098202514
0.211953756470909
0.207351781030957
0.204786393365776
0.207151966616918
0.204974830821167
0.207092478342008
0.204385949447886
0.20736366467885
0.205764239108883
0.208413786947099
0.203006364384905
0.201009171540293
0.202836431732036
0.202544008322008
0.203360276724766
0.199081111901892
0.204429287971364
0.20073304654238
0.197067421043801
0.201748317683824
0.195358362278794
0.199137261061968
0.200991249322512
0.194893228733285
0.199295662203172
0.198197647941755
0.197215223971273
0.196270546915099
0.195015684218
0.19071733374591
0.192018605967772
0.191391977070729
0.195907110891827
0.190744777870093
0.192460364799629
0.190591607698883
0.189316055615618
0.187538030478883
0.187439559545599
0.185322198174764
0.184532782589672
0.184265722692798
0.187623164510926
0.186720831441757
0.184962437577528
0.179605748367522
0.182691016995341
0.184133272639134
0.185253939787017
0.182243869352323
0.182850181959577
0.181092737559175
0.178829174323059
0.179649494225422
0.179314141026254
0.178017632481717
0.179507628598855
0.177034045764213
0.176901310175199
0.174788563877512
0.171974993700843
0.172612165059978
0.176201505575114
0.172520569007751
0.172877602876457
0.176132542693824
0.175346215793553
0.171280094341797
0.170902851682846
0.170059270955962
0.171651202069129
0.168284594471653
0.172304869981729
0.166836214866952
0.169329920210678
0.168921248152789
0.16968804607966
0.168007616931398
0.166838111409635
0.162429264264989
0.163856431265784
0.166174314955111
0.16384984388123
0.159080118193285
0.165173862738046
0.16457923978171
0.162709566027513
0.159579803897584
0.159577234518127
0.154874592012373
0.161862103288922
0.157038589417834
0.160866468530103
0.160228653243287
0.158738361087828
0.153475435056424
0.160088274421347
0.15552610922117
0.156524613407221
0.154381056991465
0.154294012982618
0.150248395401449
0.152970949440697
0.150794275330822
0.152211603862353
0.149926012696215
0.151286570100943
0.14959809383406
0.150294307576939
0.147140882881938
0.150353074113239
0.149336448763567
0.152429741848864
0.147458923149794
0.151013168083244
0.147069985378295
0.151269495179069
0.146417459710089
0.150035290549431
0.143639702578104
0.149594063745499
0.143903731893491
0.146684144621112
0.143291196488899
0.148098166296319
0.145234778686276
0.145670703536911
0.141245652083562
0.148267534638431
0.144700536559975
0.147881527580201
0.14593661480084
0.151162020444696
0.147426642938902
0.149603403628269
0.147424707365324
0.149048490518426
0.144126078813694
0.14998531409835
0.141146035959179
0.146050143196073
0.141831395004411
0.14698290344979
0.138862817480642
0.150836235447928
0.135354598193732
0.148537304521695
0.135986868101743
0.152440822773788
0.131844680298637
0.141870696763892
0.134426048835792
0.14492989728405
0.134318271865675
0.142588469291476
0.133491880065983
0.141639088113288
0.134993220402268
0.143500397337942
0.130575705918125
0.152592432748382
0.129612249792735
0.147553122676731
0.132932240080532
0.147274390064857
0.124598609488233
0.151126048919897
0.122935919291635
0.147605737631763
0.121479244777065
0.148588298322329
0.117341353945146
0.145107083866097
0.118739865500096
0.157515954535795
0.120229675602622
0.153754384575543
0.119614568546786
0.151760625723881
0.11571605800177
0.154538239218371
0.110289769836471
0.152184530391607
0.110294441168758
0.15826508204303
0.114642514583876
0.1551554172115
0.113249018733703
0.148278842529486
0.116385336392834
0.150344858483831
0.123709455687141
0.132521496706635
0.132915100120205
0.132323623612043
0.14347175646058
0.11202746387703
0.155554303416088
0.109167039728101
0.161168947199692
0.098491305674828
0.167280541224735
0.099273305889462
0.163407067259244
0.104965842716915
0.155929541070396
0.113270253306506
0.142655175245775
0.121472862677739
0.131639805734692
0.130510635041852
0.125423712054373
0.123056326371067
0.126160890805177
0.124726061595752
0.129352725299765
0.119868638076372
0.132180092931351
0.118431604538023
0.131240532274157
0.115921828865421
0.126463984206949
0.117191732542191
0.127230259974116
0.120256819153147
0.125620449014656
0.119993097704594
0.12855873956529
0.118205698179627
0.124551850793249
0.121788680946094
0.128027242138338
0.119369715768252
0.124443385925715
0.119181832628165
0.12423505256032
0.116354775558672
0.125223973680081
0.115333563229407
0.122885333259686
0.119862342308188
0.122610782208571
0.121094179487955
0.120721386283938
0.120393097521651
0.126943002759028
0.11826272795977
0.1249042094761
0.121420649951459
0.122115713087827
0.122516730773406
0.125994984402678
0.118846486385132
0.125368878413456
0.118133960038181
0.123278840644833
0.120509524432424
0.122221125563939
0.118082714176447
0.124955970692464
0.118222753021477
0.120937007760921
0.119524378757853
0.127030767744886
0.118774627722434
0.122211917973894
0.117025106652916
0.120489237838327
0.119573864394783
0.120368012576151
0.117025272075151
0.122138815312451
0.118930329293586
0.120340218871616
0.118820667344336
0.123274307796317
0.118915027264177
0.122079984749201
0.119864721363921
0.121139831640276
0.120400021204518
0.123372148610177
0.11959977428039
0.121529336033487
0.119059490131909
0.121700964789876
0.119202731224206
0.123954152274102
0.118542728596036
0.120943596701212
0.121490189220807
0.120485350911087
0.118736207592407
0.123128218256921
0.119634107159733
0.122073492914093
0.121288376100504
0.122711526929907
0.120443608041909
0.121105957916011
0.119418891529259
0.121001426989861
0.116972619392118
0.123910059682962
0.121028129523226
0.122509502165004
0.120068113967293
0.120319653848558
0.121606068689535
0.122264097818714
0.119554681755815
0.123362961177558
0.120674230810405
0.126914588409735
0.121789129083131
0.123318506417265
0.122212844662506
0.123339482851068
0.122483437599841
0.126059460108468
0.120223773138288
0.125581537027785
0.123956772554386
0.125267065918384
0.12384534308009
0.122342971253961
0.124773679262553
0.125833554115677
0.122495955971755
0.123042408620093
0.122585074585046
0.124700190690255
0.120963626323869
0.126029458577926
0.12581435180939
0.12717442902423
0.123479054689157
0.12285804047119
0.122912952407462
0.121521666873965
0.125232050848823
0.124648302920072
0.124602913818874
0.124673597601026
0.123164892775908
0.125654998464464
0.125434538963154
0.124375651244788
0.124342318001726
0.12615426073786
0.123833307723042
0.127453086938989
0.126464024075439
0.127299388005455
0.123902189020609
0.123893345273812
0.126054924909313
0.126743365446422
0.12611469719563
0.129094472320022
0.126182021979499
0.125100985642511
0.124786260042113
0.128664772168536
0.127049781978774
0.130475973286867
0.128357227549398
0.127690241222719
0.128257352391791
0.129134319248891
0.127763660973711
0.13017654090453
0.130760950598297
0.129615665096035
0.12832688008299
0.12819709471748
0.128520976182475
0.128444789996195
0.12451808460598
0.12861454782451
0.127842049391699
0.125958834480004
0.129022432778582
0.130090349432299
0.128949434243557
0.129969610777353
0.126051886083161
0.127681695839431
0.126081517498387
0.125836476631215
0.125921347298176
0.128909267203039
0.12863692536744
0.126058681109491
0.127757062012638
0.127646030053934
0.122914429876702
0.12569073908397
0.123895273815452
0.122924399362342
0.124580282415124
0.123932585959871
0.122569641139167
0.123298679129092
0.124192944330911
0.122081359417803
0.123748776798048
0.125728484182934
0.122298839119186
0.118509213042528
0.121630233182122
0.124779410094295
0.12051574351689
0.120674774211191
0.122061068265322
0.120143081883164
0.120569080082016
0.12063224864147
0.122908013596296
0.120042959042027
0.118687388605365
0.122804289775633
0.122141072949948
0.121781268488895
0.122576792814722
0.121926539518385
0.11794325667029
0.119236525807773
0.121392535922218
0.122120028293935
0.120218361314764
0.118529453806947
0.122733733411398
0.121055788147582
0.119507787215242
0.119728517080054
0.118316519801664
0.120853752601937
0.118438831604396
0.1151398397328
0.119144376170245
0.1201928863487
0.1209599212862
0.120075529945005
0.119793575736037
0.118756166654185
0.117984571568731
0.116912057822966
0.114951943772118
0.115750659280454
0.115340932920457
0.117143610408974
0.116437683623553
0.115985801320275
0.117464790564522
0.117456765821232
0.118382283805924
0.115240486919352
0.116737128906501
0.118277584035662
0.115804601453681
0.116082357661489
0.117554829919063
0.115521797907386
0.115378197801331
0.113089532461649
0.114729335434081
0.114858210999304
0.113192593434106
0.116383418273872
0.117720127711592
0.112520734990598
0.114839542145744
0.116033784086315
0.115465241775272
0.11444657011131
0.114537500145776
0.114345283839617
0.11342541544517
0.113005949053992
0.112953199678512
0.114692327573221
0.117799568676152
0.113152152866748
0.113706609530586
0.110319113613138
0.111678291447682
0.11411078139052
0.111491743886672
0.112146612930757
0.11501232683645
0.111841624825565
0.110083368976841
0.109217458075096
0.11109657391185
0.116964666460507
0.112659202517103
0.107789064217878
0.111071837481973
0.111939510266357
0.112544065852054
0.109331318266153
0.108567203943719
0.110403052484295
0.108256589244633
0.108892902221166
0.107985143953608
0.107404491558177
0.107866016136586
0.108633872499935
0.107679177960868
0.106005090407126
0.104520821249732
0.102922330289525
0.106807021277613
0.106868235595708
0.104343828221285
0.102955302699955
0.104917796505683
0.104590203206796
0.104661374798826
0.109414253989662
0.107701499147107
0.10204741473088
0.104848956924794
0.0978345819491727
0.0992009281979912
0.0985454572826169
0.104156266706678
0.100064553880834
0.103129492926463
0.0995140549935251
0.0998256147141174
0.0980472937716055
0.0987993388779467
0.0959391689441869
0.096536435498189
0.0962955594061441
0.0995596591173084
0.0954083424391418
0.0985389405395381
0.0968968024608242
0.0957378451209012
0.0944091595886976
0.0976439389644476
0.096312298932006
0.0966780836746567
0.0986883225848152
0.110268386590116
0.0963456281031125
0.0943711308681517
0.0986355699044711
0.0989247393982763
0.0928236149671288
0.0978034822889263
0.0956248075430087
0.0930762175182821
0.0948549175926888
0.0948124626328964
0.092354555366131
0.0947383419972205
0.0956347303923918
0.0951271276854729
0.0937011883739248
0.0965537150763432
0.093868200198209
0.091591504330426
0.0920685231004288
0.0935704499040936
0.0929880265597614
0.0926371063634109
0.092240194022272
0.092831361383805
0.0919704289125129
0.100761141209823
0.0961635659632525
0.0929824108215794
0.0929760446288604
0.0911903789212414
0.0903146810263982
0.0893399107674361
0.0914332304100123
0.0908816888192779
0.0908449447164336
0.0909568443345391
0.0874624444228534
0.090575384738991
0.0914690084124811
0.092127248341094
0.0899133578549331
0.0901066353942826
0.0909687059350926
0.0900605066694463
0.0895873335562332
0.0883984507928121
0.0850469486404838
0.0861885218224514
0.0909935350497409
0.0900941506473805
0.0881490135843456
0.0914141852800918
0.104376564146882
0.0906960086435659
0.0895048798284327
0.0873588689485953
0.0839312314682529
0.0876504512233624
0.0857355744072471
0.0863151065462357
0.0848212937834095
0.0867254888377604
0.0851774274043978
0.086868037897461
0.0854776770620912
0.0862802943615169
0.0843653398502165
0.0860898649590338
0.0872164584926237
0.0864389742203464
0.0857758873839905
0.0864548138133263
0.0897343762663419
0.100129129599472
0.0913455785159957
0.0856648083490539
0.0868621855944696
0.0889087545521707
0.0972188510166618
0.0993899889298944
0.0819304617751295
0.0908473621902254
0.0814601651645402
0.0870260199558255
0.0820767474812238
0.0891980754017755
0.08676702314773
0.0954541172502296
0.085269009008894
0.0902927139900113
0.0858474730864331
0.0849489311132063
0.0830052987928762
0.0888808210050537
0.0838230798328004
0.0850043112396747
0.0868246485368013
0.0859167766567045
0.0836116656606079
0.0857512018368178
0.0818024617449597
0.0863017278635732
0.0853769289653004
0.0946659664568232
0.0844151308733245
0.0894360136926897
0.0848185720914784
0.0873220373907171
0.0864035464250448
0.101478990580771
0.0857276269481354
0.0822753167173552
0.0844787869913961
0.0868564566724193
0.0866780786580076
0.086129032548425
0.0858223311338961
0.0851813723379795
0.0846569577631851
0.0872642703547539
0.0833186579398161
0.0842330219221508
0.0853787357277958
0.0860487720762607
0.0842480169895073
0.0848280383511112
0.0849148764416527
0.0869204288930446
0.0862272979271952
0.0884905331346345
0.0944520017441883
0.110906619082457
0.0959636053502246
0.0983482923891555
0.0871664380369085
0.0876308565274072
0.0824850541322027
0.088336728112118
0.0835355301422604
0.0889812293457865
0.0842741136803872
0.0902718316008843
0.0857836320839862
0.0869936959951231
0.0855898352584664
0.0876674903405598
0.0843558526468144
0.089322864312096
0.0845449917809534
0.0872302533129692
0.0865958050838457
0.0868323651947915
0.0870052071510042
0.0925745641405998
0.0941099920562959
0.0860654971555922
0.0895847308645472
0.107299388509261
0.118655517339988
0.0880297073795806
0.0956090900873526
0.0895027799962888
0.0854381916915054
0.0865834015167271
0.0887352303460432
0.0933773158803464
0.0915294064867178
0.0872111425674696
0.0873547237068921
0.0896996105732631
0.0897649843236901
0.0890242318380989
0.0986743528482642
0.114825472032782
0.099095918919107
0.0905702730794479
0.0921578722838298
0.0992084568713068
0.114422303395148
0.0935002251378832
0.0869179738814206
0.095462312479201
0.0863410596430137
0.0928740665773637
0.0887942996607454
0.090821013317836
0.0916053069039525
0.0941796440988513
0.0887585173720823
0.0922378827488227
0.0881349345955879
0.0956484990889934
0.0963343995720496
0.10534798422985
0.105494313727975
0.0959753025647976
0.0956509714076182
0.0999239561568816
0.0909392985361805
0.0948330479956647
0.0910913978738137
0.0985272393597007
0.104826716216426
0.109699555003528
0.0983256318708251
0.110507917523062
0.105859969762201
0.0920471658818378
0.0958357552116419
0.109912169045894
0.100363541128188
0.0990153592130583
0.101898555906456
0.128595578848878
0.114969962592616
0.114668739803151
0.0996067062034966
0.100184381308069
0.101853502184798
0.0966415421786329
0.106769487756625
0.115757546178495
0.108083627459399
0.0949067232113772
0.104548921734379
0.109083795756882
0.11567374579116
0.105885057656963
0.10735424035907
0.102664583128803
0.109801921294251
0.113295371325182
0.109675106308859
0.106940833012593
0.130178701607231
0.14275902890898
0.123070769692506
0.114030051272085
0.103512367426307
0.137420242345475
0.123000400082219
0.107550228907429
0.110247705991027
0.108210467195319
0.107156954673561
0.113879235931205
0.135269141084814
0.120095516999477
0.10876004663026
0.116286946999101
0.114744274885113
0.131328130118518
0.126571152321526
0.112213203291035
0.116638320584056
0.117497315571746
0.12122207382394
0.149639875194731
0.141160100040287
0.128160472652259
0.153984006804333
0.13945307426307
0.136654606470288
0.133722806510865
0.130338409656586
0.140901369328802
0.146240724664864
0.131067488718661
0.124418470412245
0.145506451132456
0.150707996682868
0.138090887306451
0.13685937471602
0.138271939933398
0.134086412979367
0.178622438571825
0.189894213712314
0.170345616074782
0.146370249056116
0.150661448894962
0.165814562531286
0.152537370060167
0.144177765391141
0.148943784366876
0.149443420740906
0.150676849758371
0.148888060820793
0.162919819226262
0.160589787719019
0.16241266864619
0.157888477842586
0.161833945160021
0.186915862929112
0.212320499738407
0.199371524128568
0.188328898195948
0.197073733096521
0.198403074545693
0.18006066383579
0.180668049333435
0.171499880077807
0.187486334326545
0.185489418819504
0.182143774578586
0.187061899673414
0.210480270754223
0.207951537108023
0.202995034845048
0.211349921799124
0.19969381473377
0.201190290873876
0.220037462252738
0.30339494566409
0.251616386913763
0.21996805632882
0.237589829381109
0.221739225579324
0.291031359015119
0.239573502056525
0.232991521642988
0.237109764043778
0.24961679132397
0.252511886392621
0.26125880539344
0.268430425177685
0.282776459450898
0.277927382710026
0.281833633659536
0.292786357986557
0.384378794038324
0.355023825301482
0.328086584737765
0.303810171100905
0.338078373998952
0.343099088053963
0.335875116741172
0.340212168387976
0.347604263304378
0.355864760520248
0.415274015069031
0.376103834915969
0.380522426067724
0.393244480243165
0.416385024656787
0.399360642627532
0.44113982574087
0.451388071883866
0.423802073156061
0.427950083259144
0.434403152894769
0.439662682280638
0.444999482543871
0.471338974199368
0.487355808093334
0.469809210783732
0.476615432460263
0.468716454697814
0.485429574535335
0.488233249764545
0.500433536405624
0.496449008223555
0.545709428450916
0.567688427283493
0.695618628543289
0.558020012124013
0.522464585916057
0.510997286936424
0.521079320126845
0.556226105389387
0.559543839567938
0.573839334849618
0.579879770447899
0.531346550873531
0.537532109202291
0.536228831082377
0.54047372636316
0.530082381532673
0.545679510064496
0.53678493323316
0.564520302618787
0.549087418606776
0.56376574684984
0.617295843889728
0.551288736896754
0.535692165173545
0.549276110025358
0.533775524177956
0.538435411384553
0.524274277201117
0.55919911261717
0.551411876708986
0.535323041672873
0.530486215661777
0.525954927258309
0.54597484367569
0.573550286187523
0.518339847975111
0.525189132058301
0.518923925182366
0.515942505294923
0.513690575561248
0.543877821599964
0.557664620754031
0.528538385885379
0.492170202824111
0.500870721838259
0.487791845090859
0.501852253752371
0.489689749470497
0.50096991020192
0.49201948720006
0.494795717667528
0.488672441532596
0.49364618484889
0.488013632592809
0.490601539096816
0.489822495877069
0.494486112460441
0.478102002808526
0.486414452516123
0.47787839064959
0.48200211380567
0.473482996904875
0.485328036716481
0.482836583490542
0.484858897659502
0.477238317461051
0.47625908736844
0.472686018985881
0.482485334621077
0.473361606362214
0.476211826415503
0.464347732192545
0.471069269921544
0.470597554108586
0.474166956464741
0.464579403680778
0.471007110600712
0.468292646588622
0.470890971606152
0.46318376241672
0.461764927302213
0.450810296778272
0.458767954394337
0.443158047715774
0.513160513358953
0.478920529305455
0.451751947983503
0.441242728322019
0.442597862269809
0.435480490893171
0.435710219453363
0.483175739723124
0.465598864660035
0.434841783182519
0.42597655121111
0.408826377781038
0.436725519433239
0.41811765637973
0.400939990432071
0.403954625143956
0.392784278508881
0.435413287317529
0.469434365569236
0.461338742737905
0.4678275206135
0.40593344912923
0.382637013379349
0.403267797733914
0.417514829410955
0.376127970440943
0.378020851373002
0.359653990327426
0.412688314107118
0.378102696753919
0.365927836296902
0.354842879041596
0.360131431691443
0.385361231355723
0.393895018182545
0.371588403030276
0.389151578270149
0.383090975044097
0.374182811207085
0.412560645298892
0.41781918080767
0.367460334951988
0.33605028525354
0.331299643852771
0.331365612159903
0.335131638536354
0.385614706735518
0.337863733982473
0.340974139914409
0.311498404929909
0.315782797878582
0.309514482180076
0.334797217482565
0.321252125304731
0.333445391101238
0.349127805602302
0.305390488559655
0.322001002969777
0.334564384275608
0.357074336103536
0.361533749822995
0.311102000117048
0.302315850204669
0.345054924753092
0.344136960967588
0.311300934208342
0.318238951087349
0.287969171956373
0.305035730912991
0.309254730632952
0.30001884455707
0.3159307175907
0.315154970928519
0.318231402291354
0.35887315176102
0.352409900815745
0.35892691273021
0.302741254773276
0.291820678707696
0.292169501301333
0.29167508170082
0.292316482899661
0.284690394187838
0.326296270496648
0.304913987559513
0.2895203685874
0.350198203239291
0.306083684117587
0.303473850596225
0.302319782503164
0.304678755037826
0.308118761192952
0.344830476200502
0.363456021815435
0.337600878899523
0.339674854337797
0.349416511348328
0.336012801039094
0.341958715415883
0.336667623437407
0.346712676821495
0.349919361412142
0.37275444391012
0.364035384839991
0.372508681697461
0.374691504704803
0.374159661566193
0.414743967643361
0.436431453828772
0.398088545069732
0.456342025344118
0.43254982912297
0.498388041658804
0.448496274316754
0.450966559839665
0.447975966415992
0.455153325465896
0.462021927437563
0.460698582612345
0.48635545857292
0.532645865453795
0.479459508850042
0.503655958632872
0.486985660065412
0.508466420440985
0.490711182943862
0.554765711267728
0.524506277481978
0.601344422577475
0.559735574633757
0.553791286478916
0.545359408054573
0.532702277481605
0.536388891900278
0.548014713116754
0.533871153416185
0.542476695258106
0.544212838596013
0.579797689320969
0.557238062931686
0.559264631702169
0.553372970225168
0.565643589197381
0.559584460049046
0.570396866145465
0.564828729070366
0.57679951482305
0.577478691376519
0.587963672021531
0.577018476531495
0.685864584363744
0.598264817775328
0.610407279270424
0.599677324222737
0.618641502203655
0.60964800838883
0.622420908002059
0.640985759478688
0.63271601389938
0.624857705683288
0.633215296596726
0.635147150611505
0.646380862846138
0.659486298065257
0.684839038089811
0.642910553694435
0.678979099617212
0.644797326969198
0.708878951273016
0.715674741379683
0.69801918331798
0.689796176299842
0.683976930969912
0.695070278737305
0.68400900951938
0.685560683089063
0.691952906277968
0.69029223483751
0.699592412248945
0.687795636085349
0.694603284988601
0.689540638936023
0.691875715674589
0.689129391823651
0.73219775837104
0.683368108584209
0.703567383737632
0.687945592493465
0.69594248646037
0.680962320817599
0.713559026915753
0.709403550895396
0.695899738636361
0.702011247075197
0.705409966987333
0.70922477320312
0.71581367656437
0.679916512515718
0.691000447075873
0.682976629511949
0.697267019460667
0.681692748782512
0.725093762348076
0.740730638312008
0.706121874918328
0.706304640422186
0.710735795668787
0.723229976572827
0.713403855987578
0.724499487541747
0.724359677649089
0.725742284255385
0.732963387659085
0.737575726443514
0.741103718366565
0.732494106530141
0.749479553559632
0.776647893045276
0.748094704357984
0.732746431555752
0.741281129690829
0.731416764101438
0.739717598624113
0.738410283076696
0.735408968908974
0.714225161049688
0.72226702792509
0.715555345958167
0.716977066074814
0.740958324405475
0.704417179999827
0.710839318761465
0.697646275335058
0.687022063055375
0.686961062068598
0.679525497619406
0.687549331580036
0.663659572540825
0.669589471513292
0.6562920603443
0.655595793410492
0.660216048817373
0.658574613118943
0.645575496463937
0.651058070880439
0.636630315787571
0.646502697781305
0.643269752627927
0.653745377011584
0.649054139237804
0.649229590565547
0.648145256934886
0.651701931904963
0.662896694789357
0.653891697159639
0.664018896771364
0.660178985538537
0.646428972224193
0.653399476957795
0.642489503544713
0.643371526254168
0.642366086184026
0.649168608319188
0.641283474536812
0.646325665609231
0.639435204862288
0.642953435027959
0.637225734765878
0.641799331120727
0.634906020009352
0.643877105298884
0.641558628922176
0.644580748578188
0.63627629780733
0.644224884370798
0.635251022265527
0.653160008775712
0.642016611655626
0.648457224602094
0.638761742091976
0.640638536552861
0.635777218691886
0.639980553893666
0.641995565280406
0.63611960496997
0.630510880384983
0.637891928669361
0.631804052957306
0.632467067091911
0.635905918810199
0.639670954363181
0.62656340953929
0.636747723553181
0.628503314723101
0.632479713456662
0.625863995212311
0.621798923147161
0.613995613803259
0.61227847090097
0.604563466142231
0.604911860863251
0.599190903758105
0.593095721236495
0.588260320336144
0.585815038977301
0.577832613442826
0.574239362214675
0.573049130586965
0.573840809322071
0.565932827534353
0.567772364114582
0.565293749800211
0.554232640620863
0.557824075034653
0.551055089254712
0.552371168219747
0.55347238361123
0.558202718370317
0.553436553976207
0.550908647661076
0.557379916694525
0.556271839315042
0.558190420085285
0.550656570914122
0.553287997822641
0.558441070106597
0.558662063735196
0.565896726428962
0.563895027461238
0.571185991425644
0.575246332556514
0.566784784775063
0.574546953777639
0.578000959219468
0.578040916208179
0.584222189305372
0.582794589218331
0.586026959588464
0.587022331977946
0.590560364805902
0.58954329757893
0.58620525399158
0.586787713082154
0.589236060324999
0.589297368162452
0.582965876983686
0.586608763128261
0.585510424661111
0.586959385426195
0.582218329900474
0.579963355605282
0.576373430283063
0.582242690576141
0.573025379446432
0.57888939458515
0.575182766505536
0.57685830545252
0.569737717262461
0.573346301168277
0.566731929930754
0.562829846294832
0.558016993781715
0.560134858135458
0.5594377508976
0.560670739259194
0.559691562866561
0.554682000189318
0.550775056603919
0.557496350479793
0.549754016499961
0.548928545272283
0.544388162308862
0.543739768886495
0.543641715392193
0.544420013944255
0.540019677016073
0.539504518122413
0.539994108244836
0.540875969336307
0.539556762181019
0.541218820159391
0.533796468170549
0.533557331801962
0.526391528443968
0.526778787132779
0.521366970181139
0.521516999117112
0.520036917162223
0.512913439688583
0.515355040834987
0.50497574162272
0.503839182477842
0.500647462734917
0.49189665731594
0.493817240465881
0.489745522494325
0.485391057706598
0.482455184448423
0.483550186232272
0.484088655577337
0.480511927864986
0.47541432821904
0.478920146681598
0.478613251504176
0.480152788070303
0.470799020632559
0.4681796855373
0.469132790455674
0.467312097842289
0.462152647343523
0.462072670327721
0.453624756306441
0.445552818914573
0.438840686120982
0.434403493260531
0.42883510331914
0.425278678505366
0.420578697622268
0.420011223060896
0.415100376736366
0.420136612385248
0.419316406698071
0.420995920967692
0.428177450922213
0.436788272175821
0.446299203307777
0.456907790938228
0.470288975217066
0.47995219890762
0.49714143324642
0.517073450080495
0.527712958049222
0.554909943713842
0.570031066543918
0.585223433862885
0.603642413567799
0.626260853968286
0.644560251036811
0.66647549128555
0.677306008612464
0.699488345748373
0.710362155894831
0.73457835066056
0.753113334513819
0.769407406902787
0.78077360006716
0.79289248649502
0.815411446803914
0.825294695204628
0.8384000928258
0.842551913949421
0.85996620047207
0.865941489967958
0.866260360658839
0.887356743047744
0.886522691638371
0.900195173636323
0.895152081866499
0.902338423443704
0.907679724038614
0.907223357106928
0.912005774238372
0.908644512230526
0.915344572753704
0.907109032272018
0.916892168375078
0.906980053856176
0.918164330409866
0.931126415690791
0.917678085123216
0.915385565672371
0.934220786107314
0.933084965679638
0.95225583591463
0.947363738992476
0.951578258439237
0.95514592043973
0.968464368419873
0.979101434354436
0.97709536617691
0.991926406200644
0.999511169294681
1.00730800212168
1.03568143700289
1.02954574115606
1.0534785634741
1.05155554832395
1.07823222362816
1.09576307348282
1.09835076686071
1.10167030308929
1.11116538327482
1.12420855770264
1.13473122732722
1.13955510785465
1.14140385381366
1.16742605842238
1.13603760006556
1.15020019695274
1.15835744396782
1.14398190771303
1.137282693208
1.14198384712836
1.13561712599694
1.1265984126104
1.14326867746264
1.13553054648118
1.13820933706955
1.16735710208002
1.16862151155422
1.1912814049273
1.17554199726901
1.20819018311971
1.21825883353449
1.23803817768915
1.24691816016055
1.25030303211119
1.28720699690923
1.31444124708717
1.33865712558518
1.34957331831564
1.36072381316549
1.34800883022288
1.41130417241175
1.43178684026504
1.42524964354493
1.42775138110931
1.45630028640823
1.53710382423873
1.49001414063277
1.50764089801435
1.5452366635803
1.59720066825673
1.64700709688742
1.67015378094913
1.63181941513998
1.62907729079449
1.72544910736832
1.681851100041
1.74559100310058
1.76622711814236
1.88253693816284
1.86250734991019
1.74630525258645
1.80877906512539
1.81533893682382
1.81798613482692
1.86651211917238
1.9141718204844
1.82250289492474
1.78833313718398
1.89965771454551
1.84636657611636
1.82791722739521
1.92924598782401
1.94377289706885
1.77657095003939
1.93197193725725
1.84132905767934
1.8995319065849
1.80833402179237
1.89241721289354
1.86052931466451
1.95140016404498
1.82150952460664
2.00303215908509
2.1299692801245
1.91516343010298
2.01667699460111
2.0160096128454
1.96575062799344
1.94636567248372
2.21435173979052
2.1736046632726
2.03730048517851
2.26156666231738
2.26929196440926
2.41937669123104
2.13400960128335
2.2290576932346
1.91173740076054
2.34592664204751
2.32880114809191
2.34807859429516
2.05389755805458
2.1308369812933
2.39369653430571
2.41961057473241
2.08097456453762
2.63337068874431
2.28815386457062
2.44837653217239
2.27442285372624
2.69916043446085
2.19991209645755
3.74918836348363
2.14905550809517
2.14657628666796
2.05324966588853
2.29014683400033
2.09131402269971
2.51655871221213
2.26394903789373
2.48589355039587
2.08571115839883
2.43892039464773
2.17631011319149
2.29738006761867
2.07382856811191
2.48514531743462
1.99300953353158
2.03547112494769
2.00794513811455
1.96060381212132
1.82130642403273
1.93679482313366
1.78460321728525
1.86683198607655
1.72594292320075
1.72471931367409
1.75029947125939
1.75492511322739
1.72503449239055
1.73802107437272
1.67679667091121
1.80703789114736
1.64502456486898
1.67350953499394
1.62109447825354
1.65978059771339
1.63147534155526
1.74753847953477
1.61272580564283
1.70596681278739
1.57925481498237
1.56098196965661
1.47450485300546
1.48803105804174
1.478198746554
1.53513259178232
1.40212217550647
1.38983919692462
1.33733392670394
1.28967938050513
1.21344164654012
1.22304297898888
1.15857843016124
1.09141158718296
1.05045643897258
1.00650721918764
0.96578198938976
0.918548259313141
0.895113164299462
0.851130512986517
0.831739057562975
0.79949497304765
0.773473712037417
0.766799953473302
0.744652895738808
0.720491255840274
0.697192488634224
0.703667042076874
0.68778176132374
0.679060086001175
0.663071426571102
0.654008126632949
0.657179025709102
0.64857862935618
0.641512414733742
0.640596816105825
0.653388617316266
0.657606226489175
0.647305757413635
0.654250439896281
0.648483354310991
0.663453245369639
0.662736922499448
0.664550388121108
0.655030574388196
0.645320255143535
0.63313435437809
0.638692354674713
0.626485832701592
0.630418304742375
0.626926337507516
0.623728567295507
0.606144724497017
0.604993946512707
0.600563378860855
0.602293856594237
0.58386260276816
0.592896543703961
0.582933751757222
0.589335583371998
0.596230902317882
0.599905488748723
0.604889593389098
0.612924891578584
0.617399875922816
0.613931853497645
0.609460668531446
0.621580819084939
0.621051829147681
0.625143073358397
0.624134429628108
0.634804234569649
0.631979578623555
0.637788287528654
0.638927811564705
0.644304849306762
0.638133371352824
0.649825466289567
0.646690183809479
0.638021002721539
0.629080422175537
0.660154180950508
0.647437517145064
0.650367383853948
0.649307511821808
0.659462540122048
0.670348832114349
0.670911009073072
0.677250449326192
0.69613377770574
0.701743030937412
0.719385172316878
0.733831953899653
0.749279093215006
0.777316278385511
0.797108519317592
0.809201056028127
0.820027097223995
0.8335928886513
0.846847599407029
0.856887060862521
0.858821690298409
0.822043901521827
0.821754693996335
0.809336069386992
0.82980017743949
0.784427391616194
0.783075220016372
0.788504820850373
0.762521796469451
0.777111380601817
0.773902982255459
0.746808510741906
0.74587420464707
0.767194417636016
0.775827558232418
0.764050475733882
0.76312246894373
0.771608408245456
0.771453062574371
0.765025974749847
0.780312805433106
0.766234887162096
0.73860231778504
0.741677842217654
0.747290694966651
0.735757746233999
0.723289218723
0.714134918798672
0.712982308691637
0.693384930656297
0.710831664229818
0.68092470383078
0.682161051600323
0.666264023701512
0.673409617996536
0.658225685715924
0.678236379176259
0.670535086527593
0.686270789824941
0.659758503578684
0.659642794056721
0.646071689160241
0.668305947785788
0.649877509227552
0.634225071381729
0.629613247775689
0.649280732375919
0.641812509255393
0.648544683347529
0.615013096986868
0.647716906867312
0.651573951104961
0.646163389997301
0.619188831308386
0.620326353208326
0.615412085980283
0.586185481186497
0.586634853320323
0.62052012215423
0.605252239738974
0.58239151229908
0.596003186778508
0.600822626920551
0.58424993726624
0.594828990101337
0.585626401783696
0.604094130942408
0.578778419528607
0.593685729353619
0.579997622943559
0.593895025393304
0.605946178205147
0.607729882721503
0.581172703877411
0.595844542321685
0.575699608762989
0.601537385089068
0.599747576356526
0.592521064402489
0.608606509203635
0.613992160114117
0.609061564777662
0.606507175183477
0.620046310585616
0.617864503427017
0.597806148743132
0.624504309907362
0.614175922575115
0.642903434775198
0.628512679285141
0.635958610905845
0.657455651556755
0.673180376571784
0.645570445302189
0.636381480031849
0.681339139597888
0.697922630971104
0.674400941273593
0.704962734042018
0.754523000983949
0.748486401229031
0.726302802716756
0.772027164141474
0.761681487132419
0.779475793262956
0.788448657809425
0.835556343598076
0.853481791341513
0.946590883924339
0.907574325666652
0.905699106709766
0.934090100114926
0.9283354432152
0.915927412979252
1.03357388766586
0.977085794281862
0.972886659985072
0.993014602204166
0.997641643828022
0.939256349155874
0.967538243378974
1.00891580842131
1.05774994227538
1.00652527459876
0.978919225672964
0.955156646092208
0.95919664663649
0.967276647586215
1.05172838092705
0.955489326445628
0.97268932804171
0.943981709773595
1.01692719193035
0.943138810082884
0.939614664563221
0.955712833545824
0.933906057643375
0.872789193013793
0.927055285869622
0.928181244012388
1.01628462373631
0.966260741414992
0.918404423210165
0.886315367336137
0.877664480910903
0.902619385619681
0.915196352664072
0.929590324458226
0.901001544240152
0.898031587014991
0.86872435639593
0.780701922221727
0.881317119144874
0.861528587744289
0.906143402592246
0.85342790779724
0.866550644069276
0.868806899848365
0.880851494643859
0.876934584126347
0.873256490552052
0.917882114389462
0.900925722494893
0.934050332860737
1.02731794749435
0.913079282697935
0.95953171797182
0.880829574754115
0.944316009261574
0.910671557411855
0.964391730361121
0.917602939300674
0.945568102131872
0.812364573976342
0.920545406606511
1.07015339548763
0.954280071875495
0.892257794406081
1.01400977553827
1.08071322683463
1.01236021315183
0.914423696679914
0.931235098657157
0.878549611383909
1.02346777577466
1.05145465383421
0.94736576119426
0.89976666011179
1.01057111347997
1.07565426998904
1.00957162239616
1.093248297332
1.28701579467364
1.08218666933992
1.11987736126144
1.17662117666593
1.21193881052933
0.999862643176699
1.16514064352642
1.28427375601463
1.31669917920364
1.22305070659688
1.44271141361459
1.57312527861119
1.36209842050918
1.18782094410329
1.07746034729402
1.13267497273906
1.30264816007954
1.30175753285469
1.33486093686899
1.03514043819453
1.06872578497016
1.25215420676747
1.24754555959181
0.96868329662556
1.16544124653217
1.02456749816783
1.11946132099354
1.48533059534274
1.15216051260296
1.07446018882529
0.946895772188109
0.879847345921323
0.987805133605193
0.808327484043978
1.23832719760057
1.02644255684169
1.01441223245523
0.929139059267685
1.1275872217965
5
1.33332264885186
1.08195603817871
1.27921035196715
5
1.02293731488905
0.986920891402711
2.1178175935048
1.06429772916091
2.42525188096458
1.17403770571699
5
1.22961133387425
5
5
0.741204778858079
0.915646670708612
1.73955723611097
0.731605905722075
5
5
1.44837554498252
1.1612877193308
0.770029831126857
0.478167723330721
0.682304466961535
0.982675623572682
0.942096527133363
1.4777914496224
