3596
4000.36533379555
650.420452594757
1
2
2
0.0806447362162718
0.0885975127029238
0.0813148968193876
0.0988231326979987
0.0908969951561931
0.0917672309620869
0.0851397547005117
0.0856645196329535
0.0893961560149953
0.0934577249979768
0.0801638560319114
0.0962593608143573
0.0795668588830191
0.0910381891366071
0.0750832383087269
0.0884109404304467
0.0764786626731235
0.0895431671167967
0.0818845916640758
0.0921265956158085
0.0822190137147626
0.0880835633808855
0.0841043322559016
0.091905819551849
0.0804648500322837
0.0943590264862824
0.0803560010442403
0.0955929110916756
0.0882173347664691
0.0950422014140281
0.0872126775878402
0.0954864455083546
0.0919375671083837
0.0898811742739149
0.0751196186530776
0.0971497991858698
0.083084067999345
0.0921380597732117
0.0820925444267694
0.0960872934752652
0.0848652284274634
0.0878647616317313
0.0794747716142032
0.0861130649210337
0.0872023846680042
0.0915261746836871
0.0845792106492245
0.093480291540527
0.0831389740521206
0.0906179151530274
0.0824850448830441
0.0836731329411708
0.095917847227783
0.0979422423978572
0.0926893026109748
0.104832029897934
0.0884662527458046
0.0963461036728375
0.0847519287003285
0.0869151015287164
0.11028008217991
0.0969786677784871
0.0814538372991769
0.0861990168956544
0.0731410173136184
0.0861181107173433
0.0802061737980938
0.075140140221169
0.0762419932622326
0.0943058219080493
0.0765673452512881
0.10047821548666
0.0863377708619198
0.0910429923773441
0.0909932430335983
0.0974647809088618
0.0671341160062333
0.0822120187399322
0.0695329767819599
0.105416888627709
0.089925612121697
0.0926649827205024
0.0831994821300248
0.0853579584109951
0.0795381167676614
0.0987924027263566
0.0686106976010267
0.0909704145440144
0.0872042971723376
0.0965766961279796
0.0798216094135997
0.0909472546918782
0.0747583674519631
0.0801246981660351
0.0710229783088255
0.0864892376348813
0.0665542081767089
0.0947422394224153
0.064841906930748
0.112410698359331
0.0647532695809865
0.124614298274699
0.113307848443624
0.0866554144536245
0.146538928323578
0.0790100414768741
0.100014106142409
0.119501304635039
0.089665031834428
0.0907216805772904
0.0723179950064928
0.0784214039150118
0.0758269468133701
0.0907298644543089
0.0667856331939761
0.128302451625222
0.0914130949349544
0.099860889680599
0.0758686253775832
0.0852735179449993
0.0390626528375369
0.135748253979066
0.0954952732358361
0.0916336072651464
0.0845800825912644
0.0858761148356006
0.0609521286472047
0.145581631236551
0.089864870309223
0.0899475360488011
0.0614246626262215
0.0874042683173067
0.0525757084903348
0.103968656063655
0.119866506538586
0.0932903708891618
0.0652937197356583
0.0756385527262608
0.118738625735251
0.125662348652912
0.090964767387359
0.0880384100701247
0.0548579227987962
0.0892319767035402
0.0965812650422407
0.0826680757761299
0.0721181829639879
0.112807082869602
0.0804006861260751
0.0847656135855942
0.0719427403378052
0.0785563469306175
0.0951043728262508
0.0940046688049594
0.0191403818526048
0.193784758003773
0.0944455460788882
0.141940793681231
0.106963483254905
0.0898494613235956
0.0871320413264467
0.0883021214431132
0.0764369196927843
0.0626459765527308
0.0772516053041193
0.0647834006410607
0.0920923783880086
0.106622103795522
0.0708427320433632
0.091803491171466
0.117462853686471
0.0827902795907378
0.0721664718266321
0.163258760443392
0.0737794799347635
0.097704962028217
0.0990805359411052
0.0904165249649164
0.054890078320368
0.112722055308467
0.0842793816051201
0.0814164485629743
0.0773735934804377
0.0686809674595411
0.0769146296460847
0.103931636287992
0.0693734752123842
0.0893607468190419
0.0710011030734243
0.0746035674061097
0.0863200120012581
0.157989236109403
0.0979618030619881
0.0867348247605132
0.0798007996926626
0.0528876000108887
0.114484048755892
0.0953414455874875
0.0818160859793208
0.0815636018053185
0.0646281700528487
0.0818675870002913
0.0587132138250064
0.0799842068311858
0.0497046883129191
0.0631952624450227
0.130673326975004
0.0950206785535691
0.0701751557883209
0.0732746628808791
0.0793946249732421
0.0597322863300588
0.149140992471429
0.0986288152584826
0.0863107534934014
0.0794143212540497
0.0607589452826007
0.0974895130190485
0.0957993720859935
0.079519047175279
0.076641073380244
0.0754492598869083
0.0702123137395352
0.0773778630425325
0.0728955476577234
0.0801120862008155
0.0713704971230615
0.0797518099794876
0.0747661409721126
0.0791113352966113
0.0898026361362012
0.0748199160079791
0.0738276993254522
0.0795649136282265
0.0587602066353734
0.0918196046952334
0.0876226046131001
0.0846194598075089
0.0733234039432681
0.0767118431116284
0.068160868702775
0.0742537912433374
0.0752540043143281
0.0815784746900157
0.0629113449696345
0.0786441309713501
0.104666972194735
0.0831432343492553
0.0773364469426187
0.0640997189490779
0.113462609833558
0.082383492688578
0.0763715009866542
0.0742184396956842
0.0817124261482544
0.0608281063511929
0.0838588423294096
0.109563256727838
0.0823719144190772
0.0742229205869965
0.1016152558732
0.0841078158036441
0.0860410632333165
0.0676861259524114
0.0686718453111779
0.164963033083493
0.0668581589430187
0.103599409588876
0.144188157025603
0.0845427396260754
0.103725007626039
0.066215379437283
0.0582565217528255
0.235015147596272
0.120954223389393
0.079681195124672
0.0883087542234048
0.104678734043541
0.0694889548123874
0.0960187092444862
0.0646323323912709
0.110123401446269
0.0904936248911871
0.149323855632267
0.14528233253049
0.0564501607529194
0.128715174825374
0.0975189108940586
0.089335332088732
0.0784113181936147
0.0846180532992934
0.0790397343172105
0.106968878523406
0.0989044761409175
0.111183862151552
0.0842134430146224
0.0877385475150006
0.11860552519647
0.0865571331523274
0.0787138368269238
0.0973681320862085
0.0878935696672303
0.071963184252309
0.0832565371047759
0.0762467969672078
0.103795710591409
0.0609362707562221
0.094021225623015
0.138264484018177
0.0949185290990806
0.0962259401990399
0.123786562613811
0.0908346358147668
0.0870887639083819
0.0811978919445811
0.0852493822936304
0.0795607126540271
0.0842391994274089
0.0763788101072952
0.124765748166772
0.0826954704022151
0.0896611147864161
0.0764254355386641
0.0794275400667204
0.0828361002343938
0.0904324813393835
0.0775390606963108
0.0932143796371573
0.0862291756286569
0.0765891997775572
0.125239309215812
0.128483024324414
0.0599387237124574
0.152857410594086
0.105063997097134
0.103144361391903
0.0827518202312205
0.0952408849185273
0.089298152367652
0.0926066279714336
0.0911370811959223
0.101360642226242
0.0986186999312233
0.119382358001109
0.100685360705438
0.0948527712938792
0.0883940087354495
0.18781880450614
0.161107323816887
0.121280082169609
0.109499726491767
0.0762854770403438
0.160954136371327
0.123145837298404
0.143124489090087
0.137820463205017
0.104114506629779
0.114625313959141
0.0964748553998808
0.121569932764697
0.103815951469803
0.121591750941493
0.106652620652017
0.123449752780954
0.114975259631106
0.131012841616404
0.0939377368309361
0.133785525042423
0.159237098245301
0.139351411179637
0.12157006769403
0.128681712910464
0.100981688311755
0.168585894329729
0.140012066637182
0.214534501736579
0.149356676713082
0.189902656990819
0.174613512755673
0.157474059385967
0.142447692925167
0.146585789545997
0.154374648469882
0.161937135520686
0.146737694825254
0.152219868975998
0.145463642238893
0.159199581610273
0.156275294302106
0.16344218700581
0.153172007086617
0.160992287593683
0.179856964610755
0.166399657281048
0.178983464301152
0.167494211600836
0.198568705130217
0.242685324917076
0.215553239279293
0.184308973624764
0.201671223437895
0.182237629451825
0.190994137345457
0.195544022534362
0.189584179683563
0.205328428787341
0.203810058472705
0.243640894777741
0.201737108944175
0.258790202489379
0.213726517871617
0.200277849386545
0.237002310127475
0.21986297992531
0.221931155235174
0.25064930844476
0.227862893851399
0.215303532467662
0.272459360576833
0.254573395756688
0.238789136976457
0.26549310087935
0.231540857322261
0.248124073317216
0.243795770732349
0.264080580027432
0.24731887066807
0.275888621336334
0.257447428216426
0.276768342923738
0.269596821585198
0.276734368608804
0.265102919664706
0.311387494689964
0.268351960575558
0.307501301668324
0.29564580890186
0.284826114426164
0.300855436738441
0.262536761332576
0.307356461146467
0.320794691806637
0.321421079679532
0.34224495680798
0.303865606028132
0.325721871733521
0.300871902704901
0.330958904395908
0.312052572020593
0.329218886537179
0.318491740428549
0.337852346180731
0.319596341630043
0.364692211787795
0.331379372150408
0.350604265960089
0.353303068849365
0.380389109494271
0.35328255132523
0.365549937903717
0.367866698006334
0.371990240434886
0.410974696405553
0.417192834133852
0.424284376114367
0.430830635464652
0.367650480270248
0.422650311351232
0.374383142613352
0.41304386409645
0.392586252356133
0.446693918083136
0.400062088847341
0.431195991347902
0.411159137833664
0.422208913844529
0.427165252457661
0.464375258010297
0.436438226584898
0.447672552069424
0.432211997526255
0.456114745808085
0.436758429338383
0.476120814350376
0.457605987024905
0.49697234933061
0.475355336147873
0.491987468739867
0.480663779257816
0.509259145322372
0.492161877547231
0.518286460833848
0.495419620375265
0.509171200510136
0.496675530489303
0.538174824943344
0.517853892305504
0.531090815465095
0.510103218019683
0.541033182322975
0.537457504035096
0.542585121278332
0.534138943787832
0.573920826309148
0.555623047770429
0.602103223545794
0.54757865918524
0.598004826969043
0.584817877946342
0.539595637352207
0.587380579039762
0.641480320007451
0.574787279733541
0.632565425158037
0.599960818514686
0.648381880914037
0.594353024758882
0.663882985914607
0.604704694639287
0.633831309758368
0.625647271581407
0.660256072485797
0.624412142833365
0.666376284799395
0.673955763655748
0.706066706653843
0.678859708728784
0.687408493901924
0.664155989101207
0.710078250993859
0.646073289475095
0.693514067931857
0.688831739622208
0.712925343775338
0.695918918603992
0.719620237461141
0.676919144165724
0.755674368024207
0.730042391398914
0.746666723195212
0.712833281469276
0.746090927196708
0.739034207348332
0.76975566437122
0.695414688991295
0.822364234004709
0.772178106284193
0.798356018981556
0.759495377032788
0.81932058743223
0.803047389270629
0.827912958642017
0.766335321890649
0.818595956532428
0.786309177696412
0.818120008115559
0.786921891022811
0.906630939721953
0.814452572703111
0.897196897737914
0.855432476734643
0.893768522434426
0.86592171018879
0.890577936585047
0.812602799519394
0.852484534725614
0.900938885887837
0.866921510315067
0.846833956075179
0.834911432763853
0.86833766709369
0.941334852617841
0.916770290907452
0.937964022315543
0.869233260254353
0.985542624793009
0.991028295484912
0.95487724027195
0.876408819064115
0.926923112719975
0.859014971363488
1.00832324831394
0.955899966120407
0.96069347856212
0.978914031373999
1.01494378500602
0.986040177618673
1.02250117553098
1.00056149345677
1.02238118480488
1.00218486520348
0.979418424883771
0.982484636142769
0.986491646246829
1.01585507341354
1.05247407042725
1.16045954462575
1.0413738741547
0.959443429440332
1.02790426410842
1.01788953538643
1.11697315574196
1.00609916762683
1.0313111875344
0.997182619472935
1.05395656910854
1.03502178360162
1.09719380000894
1.08358992661219
1.02882664149043
1.08031212161228
1.14614376123145
1.0338430460321
1.06728704179532
1.16915239964894
1.16618092910345
1.04432754732788
1.12283544200481
1.07928470496733
1.21840035371458
1.09373206859072
1.23247882798809
1.14482725862617
1.14721482154979
1.12030529154241
1.26511138303961
1.10081629468386
1.13856999802859
1.09810690970667
1.14342122765251
1.15651671637045
1.1833775503009
1.07064101147844
1.27554060715654
1.12205044560639
1.18873470845934
1.14757916483173
1.29011470078099
1.18035870502717
1.2748309360847
1.14439987008692
1.15762942660709
1.17519531366223
1.29578829283607
1.24174818891206
1.31088990085916
1.18529418700424
1.24238705189927
1.24867876169748
1.24729762247081
1.18671880832947
1.31829016001101
1.19898548207815
1.19778065295465
1.36967858877667
1.38604117740501
1.29176133551487
1.36451373731126
1.2288651307833
1.29619185586065
1.19878706277613
1.31018051400054
1.27157822125294
1.30335354724528
1.24037904049496
1.28643206704977
1.25329029840041
1.38244360106553
1.27131656388709
1.40509168215521
1.22859292254026
1.35542153236097
1.42845907018428
1.37091886956132
1.15835226676388
1.1689729379149
1.20108816454665
1.54655448645536
1.30053809297944
1.22089414006434
1.34567249620441
1.4147182963252
1.26490531766452
1.34887717762776
1.33807608029555
1.36402267311759
1.27990600609171
1.40384319222066
1.34153836540606
1.46713007911032
1.31687449842079
1.43883853970828
1.34902658457116
1.33422671028363
1.23764317201965
1.27967227700938
1.32576570049759
1.41370175204549
1.31377973585923
1.44558025287192
1.29969628604907
1.35415629351963
1.3617136502363
1.36397383563214
1.32105644008061
1.40195458019713
1.29912891928656
1.36217324604424
1.39300621542394
1.42952128965788
1.45346170412956
1.46682966041629
1.36256709410794
1.44874364380865
1.31902166557028
1.40026990389262
1.37585026232036
1.39022998527902
1.37216939224426
1.42551694563309
1.3570346164347
1.5407580451743
1.32388688571981
1.48306887229938
1.48910295049191
1.48189049750252
1.47322773804437
1.36511301514675
1.33273567155441
1.32859462741342
1.35139762781372
1.40901422764621
1.41072112481104
1.45060100100901
1.34438720603866
1.44110803023071
1.4257693668547
1.39880386743029
1.3118999685804
1.30795389367624
1.28511929332553
1.39087701700307
1.30852994109214
1.46075137784657
1.33820260162296
1.32369138346527
1.35652301360466
1.45057684633634
1.44061139618486
1.35749160327052
1.30762724699969
1.46984921411678
1.36422482140158
1.30385903731477
1.40835593621037
1.37438594258752
1.30860253682916
1.3350693044003
1.40319081200291
1.38479609071081
1.39915732377239
1.46738847698919
1.43065138563547
1.40604924216197
1.30689469427156
1.35552689575519
1.39772399353596
1.49179334497548
1.41927516942275
1.36908670737119
1.31769629660871
1.36336187624841
1.29361405359213
1.4144883513546
1.38151425053584
1.39675426411403
1.41604316341587
1.36602274654174
1.43163490007983
1.38880906143769
1.32711631760082
1.39900498546688
1.38560803506839
1.30211595350818
1.34084005465069
1.41491129073844
1.27137381464061
1.37889208446089
1.4370393588873
1.42073072556363
1.44360712726844
1.4095117102897
1.42413371966213
1.43126216444076
1.32204954737129
1.37799813977482
1.36993888887024
1.37362621115154
1.29903197460443
1.35894118379287
1.35442407748907
1.33795760424066
1.31510524774259
1.31301253147361
1.317763329864
1.35565470630833
1.28622558612523
1.37497731113224
1.30649441098471
1.32337848463252
1.41408794107764
1.30635901884792
1.24634306902732
1.27227103889276
1.27378447884213
1.34859090677496
1.3175121784193
1.26542005892038
1.29529821392519
1.37984858684441
1.33529408288594
1.29279110962579
1.25921638897898
1.24097553215205
1.27661990050066
1.28390090737103
1.29138944433532
1.33137416458399
1.28704242872851
1.29035404934878
1.29884405219584
1.32209900765429
1.22992915003602
1.23484164492267
1.23733205234626
1.2519629184835
1.25165647361483
1.26584373882478
1.25059735751736
1.18068441040906
1.1745855994999
1.29522553507133
1.24381073735941
1.24430162454481
1.23367758687687
1.16771452868822
1.19687971982698
1.21636519565595
1.21447141051697
1.24877267569095
1.19732297036741
1.1790285960905
1.17396409182457
1.17704540696986
1.16667276453816
1.19882562605653
1.16715483720098
1.17264113073674
1.20425131790136
1.20906031357884
1.15984812822784
1.119390041872
1.15741892150216
1.18194498566219
1.18765604814342
1.15626417125333
1.1004595891127
1.14005266731276
1.09312541324476
1.11595036587517
1.11583631942708
1.08244207638868
1.12497132718086
1.14885850199224
1.10268732259113
1.08951249945251
1.09931278721394
1.05249799957726
1.04963391574426
1.11414905789726
1.06138245229975
1.02934137401681
1.07203965247084
1.04753876894398
1.05896567321499
1.0833454819123
1.03396538638979
1.08137035761017
1.05817072675678
1.04417021088886
1.01398403201821
1.00598782973941
1.02174137853906
1.00522564808812
1.00929644810915
1.00931667588706
1.02381049494265
1.02420137826313
0.982513495700137
1.0079102581613
0.98844300104899
0.994353840232187
0.996369533590872
0.984821581343548
0.965638691557383
0.924702029643095
0.9461719134857
0.952671275829535
0.95366907489005
0.951370339764074
0.903543075839047
0.912359870314655
0.9335853761609
0.933237837629403
0.940510402682672
0.926222776100473
0.910707993244308
0.922422762817187
0.890577696537638
0.897095087083891
0.898953665639155
0.900271550518856
0.904237256105877
0.890923063108036
0.876921183899463
0.874461199143287
0.849947780884569
0.863488833198366
0.861268889907173
0.831073865660435
0.858864180284348
0.862941095633243
0.852352418707301
0.839370034701598
0.834510310931204
0.852253398940794
0.804597398105491
0.828153844794588
0.840186671179492
0.809482337600309
0.827833929746086
0.827436888769781
0.797047442003765
0.806698135150408
0.809929054902284
0.789276493749391
0.803659091990905
0.784905148419652
0.770852022377242
0.773383264949193
0.773165224767811
0.775086686682134
0.759071826457191
0.764418824921306
0.767443835082522
0.743405151838368
0.751391401943597
0.75889280392581
0.766290738422764
0.756619038749693
0.74965163138989
0.753650449982067
0.735898347982608
0.734857876255696
0.73440302698255
0.729993755276888
0.703477045216987
0.696321042673171
0.697380743623799
0.70249723665175
0.706978010818594
0.698855648459356
0.699199262380563
0.703933482736701
0.699377297859659
0.687475255058649
0.676817435110365
0.683283922769185
0.684861103573407
0.675157471266251
0.682547070350477
0.662416630742061
0.658140021636153
0.662793738737388
0.659118040678236
0.666077563646798
0.663954772793493
0.649915324355758
0.647523917870624
0.642407095538983
0.630654706463467
0.6376085171069
0.623993945138996
0.621716275451911
0.628632932360958
0.618606193008282
0.631640384949497
0.623195345798403
0.608303841110971
0.609208033555968
0.618053207722618
0.622982981775817
0.592241429291035
0.59693141242445
0.594721290501564
0.592624024800526
0.602426760316572
0.589144916780744
0.592730856758564
0.596211723872644
0.585963035572478
0.584028754157053
0.582732576086279
0.572374361555748
0.576099344715861
0.578502731381333
0.56249973898193
0.556992520063296
0.569780380555595
0.55636768681457
0.549300262297639
0.557720017118185
0.54662565113904
0.543546959181674
0.537831365897027
0.54049884240952
0.54662739258467
0.54112864992692
0.54346955225741
0.537393675842036
0.535540234718298
0.535041688139404
0.522503544873795
0.515673653331282
0.522155397326449
0.517557482045002
0.531618025726447
0.52022209846327
0.509713236889297
0.511697573917074
0.50486158602063
0.497856607841341
0.496865072072789
0.499878515584368
0.495218662727715
0.490524731104579
0.495945895059039
0.499451526500334
0.490923565342974
0.489443504929371
0.489236716721731
0.481647688126734
0.477586704925337
0.483788889701802
0.478357208473362
0.471849174770547
0.473375188180613
0.46593647516231
0.466571656488828
0.472366825159015
0.47373034572936
0.46944083650965
0.464749479806705
0.466622394267181
0.460334361953747
0.459960385427358
0.459726498196497
0.45974407204834
0.457090317341071
0.454936208489552
0.458337711883561
0.453310186152054
0.461022458670411
0.455101274565791
0.443077243778439
0.448962020547385
0.449990719461887
0.452079415076902
0.461142429473178
0.456266262647011
0.43999807989528
0.446826540707712
0.444752474929907
0.443185748226644
0.447441419707044
0.448636744407283
0.460363652474316
0.450008356914577
0.457049465288846
0.458296945073307
0.455816219448815
0.453652134595957
0.454417706745892
0.454137194064922
0.4647099043558
0.457082610584907
0.465209776087254
0.463322506496704
0.46328282806144
0.471266938652106
0.472009704345535
0.470110029819282
0.471154649897486
0.465184385922854
0.473851668405136
0.475892110640666
0.479052328946958
0.480933310560809
0.486276048910252
0.481310670233155
0.491989621023974
0.495434516130638
0.486564389432163
0.482983075921275
0.495190136654394
0.497175439657857
0.505986138270032
0.507485813767762
0.506522713828665
0.514609580174431
0.506972511900839
0.513149655556128
0.515322412995443
0.514603127459467
0.50646552209784
0.516335590845138
0.534162495755908
0.532272531596538
0.539630030079661
0.543512047680008
0.536418280253323
0.536984468630929
0.552519588541569
0.546771828159073
0.555918225777533
0.555593537179805
0.560068026215537
0.560169564042799
0.570314879452992
0.572890597607024
0.579081412926244
0.57785047893248
0.593578765255186
0.58880708904864
0.579982925615709
0.585542454953099
0.598004383606257
0.594179757575402
0.601332960593565
0.600572218594127
0.606185035889186
0.595552060039518
0.59301776083687
0.599000518472434
0.612656052317064
0.596310507571546
0.602858821297187
0.600110947527449
0.594554276432427
0.593064806689073
0.59296725763701
0.603034719754116
0.589218469554533
0.593409321936697
0.597450652064572
0.587434089653625
0.598580313203523
0.60151542472946
0.594939374268111
0.599074257161233
0.602087164773531
0.59105078405356
0.602196125288467
0.589940094010019
0.595405116584092
0.599008151650356
0.602642175772321
0.584669710954143
0.592499500634558
0.601684837810721
0.598704300664795
0.585156861273171
0.608237108486318
0.600956803969341
0.589120369244468
0.605925674985221
0.595548668191932
0.590289929934497
0.602121535458254
0.595376078011376
0.589089001762683
0.589729451704646
0.614808086738355
0.588550297797932
0.594773179088127
0.595306885900792
0.596345595493764
0.59895180057355
0.589678592990574
0.583919821597863
0.587429938647901
0.586879837283698
0.59817232552023
0.585098456125521
0.593585623752231
0.588563983120791
0.59220193322979
0.587447599295633
0.583978023430688
0.573029880454262
0.574375261075016
0.565213060090435
0.568999847018768
0.565224566989334
0.563300386078784
0.557544152605071
0.558516086938334
0.554724375407844
0.545496977207756
0.545092878235961
0.547534126383971
0.537463186884944
0.539002449585237
0.529848383169916
0.535730035389597
0.534819269878052
0.523475299652929
0.514720056896946
0.520708862098128
0.515596906503416
0.51871621260174
0.501088956071483
0.495353569074571
0.497149810051623
0.491392493884034
0.488299911447925
0.480265256196451
0.489729830296955
0.486958669680695
0.479103152388627
0.483211924160472
0.479006682577744
0.471400078106282
0.469223556603427
0.468086250218329
0.470906510736388
0.461509832435403
0.455089872935152
0.453225442678175
0.45442306257026
0.44701121002849
0.439814730462985
0.445207184986349
0.446000282118482
0.43731147805762
0.434133132168452
0.436353544128376
0.438333468796261
0.443144690150421
0.429461093400926
0.428043116263435
0.429290566291067
0.423906356467137
0.421861536707058
0.423242630638901
0.409948805540726
0.423958183374255
0.411226727868033
0.417766020756169
0.408574334499597
0.413684699623797
0.408744602696658
0.411132094636345
0.406846162198427
0.39819884220505
0.401866278882464
0.405833177206224
0.40686099723044
0.401905916629066
0.397460707756786
0.393795268630832
0.395145839608896
0.394319500756363
0.382565152157743
0.398053732272241
0.392539278271652
0.386819660003044
0.387455040039378
0.386955961816976
0.380358899886737
0.382393064152509
0.376342900677367
0.38755074765074
0.374263436774806
0.375671416967026
0.377780634394605
0.369009585738541
0.369907678316279
0.379130541615908
0.365130290355577
0.370462923114004
0.371934420555126
0.371217617447392
0.367190400140856
0.36575877522027
0.365890204376791
0.368706109795292
0.363516900535888
0.367824162964897
0.367418669332971
0.356178417893643
0.361565060753999
0.359527946594942
0.35616987233079
0.35452490015474
0.3499890809375
0.355622462960415
0.349514218460853
0.354463303082318
0.350171338634447
0.35076544715769
0.348582750108415
0.349165476430448
0.349820041905719
0.355776415774808
0.348924522044869
0.348369855907957
0.350481227113296
0.349014693718584
0.340309664616166
0.344126716238677
0.340461802104704
0.342504337360214
0.341328526669599
0.340009008041794
0.341027430041322
0.340760884951668
0.34230332102121
0.342126690216708
0.337855663470855
0.334597902313113
0.33372166352375
0.341712737664346
0.337255943914528
0.329080659838919
0.32968356525184
0.331416305074824
0.329195990887945
0.331205116538515
0.33591280634088
0.328132410932326
0.329959376874676
0.330016459562937
0.327601703657506
0.325112012749964
0.326274754850468
0.328104253536787
0.326284497194679
0.325907976464909
0.320712371568957
0.327349319349623
0.32759358951235
0.326817899926522
0.327623794773675
0.324587170180923
0.323895441940674
0.321226249951279
0.328212843116013
0.327624913601018
0.324907076153428
0.327548097824442
0.320038132132039
0.319899716291927
0.321034046593895
0.32483959139316
0.319655788127558
0.318371536649945
0.315474914740856
0.31396805114086
0.315990539120548
0.319076817524863
0.315777623717358
0.316208078009786
0.317323436032389
0.310125435227033
0.311456404862735
0.315999652208717
0.304667812636311
0.314651758726009
0.309043242278007
0.31373086787474
0.308386326478133
0.308158528712476
0.310043208392291
0.307040207444602
0.302025401596104
0.304083786650441
0.306307042803545
0.301085231455204
0.30502067776905
0.31335337868364
0.306568008408649
0.300408469113901
0.299179155548614
0.304802435982698
0.299211430714315
0.298299932810902
0.299807436791562
0.296535339257539
0.296970243505409
0.296367236183422
0.295639082608907
0.296274424781342
0.302436419480911
0.295155292009131
0.292996008595838
0.298565832410887
0.292529911632285
0.294743523781473
0.291674358179446
0.288349189916885
0.285417015016276
0.284749626140605
0.289880756359698
0.290008562709319
0.282373947532391
0.286021552747038
0.286603291378054
0.287254703535034
0.284348417340281
0.28840559542263
0.281935069046516
0.280540362180774
0.279142266575625
0.276240570740313
0.276121697611927
0.278714285432882
0.275538672440921
0.274686440442382
0.27354631562621
0.274716285048477
0.27034035074381
0.272570933210514
0.268493529248387
0.266162553963635
0.271695032882284
0.273778047542166
0.264887099580447
0.26239491333497
0.267992455919276
0.264742908878307
0.263513422005163
0.258401125301035
0.255426534291081
0.257094707685766
0.257698395847416
0.256460663340009
0.258888127979687
0.25828256767557
0.256418317552307
0.257366534016336
0.254529922417198
0.247708122352507
0.24751830262769
0.255003991181663
0.248290850047769
0.250090871029952
0.245111228365412
0.251110835222739
0.246281001067064
0.245532082311882
0.241689796752259
0.244769365435386
0.249225650101461
0.243604053525235
0.241273096426333
0.245066945134986
0.24074665907526
0.245299309333441
0.2370896650944
0.240286532354669
0.24194399288197
0.236016879187082
0.235218362340818
0.235792755600868
0.234726290488762
0.231216144334578
0.236330938858964
0.2294854364426
0.232592071093648
0.232480218503586
0.229804802138981
0.23264505610549
0.2274546188707
0.225753808774555
0.228460410010947
0.226328112869194
0.229764671936476
0.227003525785661
0.223724476055454
0.224006282320047
0.221533048915419
0.221284444604062
0.223149421048985
0.221880095877508
0.22395167620188
0.224673753610755
0.217609555732812
0.220183552093593
0.220793813088811
0.221462520452085
0.215314087842472
0.214105827773516
0.2165081192175
0.211801537664151
0.214249989317079
0.213429362486283
0.21180030705668
0.212968110086912
0.209066787014156
0.210752149178857
0.209494557420683
0.206165135764593
0.208397497753083
0.208982994876545
0.212648478514351
0.207311348836653
0.209806920332481
0.210578756760044
0.205067833946889
0.205551566772113
0.206954396383247
0.206293300278104
0.203561810275477
0.207217209051177
0.205239324113977
0.207166666301067
0.204582633108971
0.20648847223608
0.206612262015829
0.203609234466523
0.204204857810809
0.205388562435251
0.198980316803385
0.199055336340817
0.200714943375239
0.198338991688946
0.197794196290999
0.203972667885583
0.198595918424733
0.2027143708542
0.202453452852783
0.199135966699723
0.197197684757633
0.196542527948871
0.199622670595292
0.203229965978839
0.194072748385757
0.196676162107842
0.197004808628018
0.194643490075512
0.195715365983075
0.19248671457379
0.195783221397358
0.192130935203423
0.195363444659827
0.195238402437536
0.190331032475862
0.194932034307157
0.196464574055627
0.191326849770831
0.188520085047038
0.19233695259103
0.190782083315785
0.189104861464403
0.190215593853661
0.186645198849506
0.187110543409658
0.187991348570085
0.183651398264169
0.187585658380319
0.186141727635095
0.181623323687379
0.18752305166306
0.184444553013565
0.183698865873021
0.182313337793784
0.186840183363324
0.182977713004999
0.182107924212403
0.182220219901527
0.182817360784886
0.182418985757037
0.179563187551703
0.176507005556763
0.180090285307345
0.182674032574151
0.183738404686142
0.180382629026652
0.180105497617659
0.178924586077612
0.17780483647431
0.181663568844836
0.179218369462365
0.173585717603504
0.180989472119024
0.178050365353107
0.179373825724169
0.178337635581633
0.178971583234756
0.177161922468802
0.175879884474372
0.172365029850842
0.175562371007781
0.173165070235798
0.175768592525774
0.170632660264781
0.174453459554647
0.173199060229731
0.172147827720328
0.175367763065003
0.174182586736206
0.168100266111709
0.170517109864255
0.17167896362652
0.17091918369999
0.168499218059851
0.164490705169478
0.16983195531089
0.174589342039716
0.167853717816932
0.165018964268406
0.164333796562699
0.167550054479753
0.161801012753966
0.164111955557581
0.162138918332087
0.164441093128289
0.163005810750239
0.162263609629768
0.165090511894269
0.163890446460307
0.162359354761888
0.158554515366803
0.16021454834376
0.158549458662605
0.155935511273649
0.156281964556232
0.151726740627033
0.156580840618377
0.155452858758866
0.157129502720412
0.151387458313174
0.153301629699191
0.156034747234406
0.15584201826263
0.148557784063222
0.152957636789852
0.152666471121993
0.148664682545057
0.148886767584268
0.153030767749497
0.147408165176024
0.145027020940061
0.146571015785492
0.151337188399722
0.14977197065082
0.147460419860087
0.14322084247373
0.145692944295696
0.143660579691387
0.144669664324327
0.14802526056536
0.146482474928908
0.140122590597276
0.145476894815366
0.138080652653944
0.144370877181503
0.142021006232922
0.141322037405714
0.137342224006357
0.138932052337287
0.140872412422259
0.145030606809757
0.136911547069036
0.137879462748517
0.136013888038531
0.137053073188146
0.137033059658686
0.136256479136305
0.135123863310109
0.13615391500968
0.1385796561817
0.132011774697899
0.131870175197645
0.132834575163172
0.131591381185658
0.134141745305246
0.132408505240157
0.131453119539041
0.131952368616197
0.129431385243553
0.12638331695161
0.131100735421546
0.127536083330476
0.127535250774478
0.124887349891323
0.128575845360658
0.121884874082339
0.127028928507562
0.125601681175037
0.125946160838471
0.122507001962902
0.126221425055765
0.120878051553187
0.126739869156967
0.119585504434297
0.125327119269502
0.12249441787581
0.124170667526146
0.121589241040924
0.123820458953114
0.118564191804794
0.11954261424624
0.122363702536111
0.124645828113913
0.117788056518675
0.123849927725601
0.117083376662176
0.119722654999669
0.117065345738899
0.123530896192061
0.120619196204765
0.120957928773905
0.116803395524815
0.119874086615733
0.122295175598642
0.12372718072284
0.118817694954521
0.126179961140169
0.12325016078155
0.122969789178991
0.117124767890986
0.122030360055116
0.118457801764964
0.124373905799916
0.11541364236315
0.123138697492745
0.11493273426524
0.123422827168673
0.114709683329459
0.121097985278278
0.111941254718213
0.122762058429496
0.108861208700578
0.123286802758198
0.108012899212612
0.117064929080838
0.107777437190084
0.120376685297906
0.104683480822012
0.119649174510598
0.107947694436826
0.115520034889512
0.105849360287553
0.125167826428622
0.108518423738527
0.128101229284652
0.103405700076227
0.122463377532899
0.111630621639745
0.120579310637129
0.0969441126277452
0.125623797623311
0.101305622347927
0.123097751429748
0.0943586660667976
0.121490777991795
0.0934169075756708
0.118010239449582
0.0903548798376537
0.133117978832618
0.0926679650944643
0.12771889073608
0.0882685278918993
0.129576218079609
0.0911634656347047
0.127634614420666
0.0868213477517541
0.13014205840084
0.0888003396112242
0.137125717662579
0.08769480538744
0.13337836393808
0.089646833708586
0.125841475436292
0.0900441493882385
0.132350128989763
0.101380185447245
0.116730283860916
0.107710513331509
0.108425949327004
0.119706540492857
0.0895917315950707
0.127299598806318
0.086876281476559
0.139804832811766
0.0765191052156448
0.144987265889262
0.076058405011844
0.143552255142683
0.0830103702688262
0.135766301354464
0.0912378508146062
0.12483409023951
0.0993189746549948
0.11069765663564
0.107712064234145
0.102148279753325
0.105256716307339
0.102176991372573
0.103913238485797
0.109983586272605
0.0980996381319268
0.109410148252963
0.0953806535330884
0.10994119810722
0.0978300383683947
0.110782577275985
0.0984992646408056
0.105952766480047
0.0967583864178499
0.103790763101618
0.0967252794686514
0.103824323310261
0.0955673853164709
0.102361472873196
0.0965844935048995
0.104580101124816
0.0963393491680934
0.102938775603431
0.0981697574651589
0.104588646831361
0.0963472426129512
0.101992852479675
0.0964221700415685
0.100437931779468
0.0984421667843652
0.101712924382437
0.0978502413830419
0.102321012497624
0.0974782897902889
0.105791097383324
0.0991578084261161
0.0992903918379456
0.0992202889657773
0.101275951538667
0.0964010425743073
0.10245415708122
0.0963862658369862
0.10320467071315
0.097589163617155
0.104116208239224
0.0991502162835117
0.102128603693593
0.0989252056994082
0.105425845108922
0.0964894232507125
0.100027592099847
0.0987287831822471
0.102240935719895
0.0979731459948021
0.0994800167842767
0.0988707819132325
0.100365677996349
0.0955817229926223
0.100270597514625
0.0945659521906899
0.10121097228551
0.101108250821537
0.101179363600129
0.0945866121641496
0.099448429395738
0.100231811005252
0.100976000664773
0.100096677229817
0.100097580948097
0.0980057566308917
0.0999855696189401
0.0983577034803211
0.0979850373823077
0.0988774787471247
0.100084398612759
0.0976582301567322
0.102188361554049
0.0952476343716965
0.0990314903193294
0.100069970697637
0.0991894175668837
0.0966687993385634
0.1036184104179
0.102082891872107
0.100958180328746
0.0995572824200534
0.100172524599058
0.0989019189673493
0.101316942354596
0.100406728227307
0.100556134855755
0.0978051626957914
0.101360404810054
0.0998948410576574
0.101824099153071
0.099526206452813
0.1005710083794
0.0992209538331734
0.101936613571475
0.099896490110767
0.101224304465163
0.100722739898737
0.102256908514777
0.100629834418249
0.103348492786375
0.100593243035353
0.104185616725368
0.10198316782519
0.105137660493236
0.100232032894052
0.102256452305651
0.101316352762977
0.104076536286018
0.0996708070353721
0.101898122151202
0.102835530254167
0.103577409211027
0.101036147088494
0.104142423169267
0.100848094926087
0.10226607826221
0.0995043990696675
0.105230302129005
0.101587196701539
0.103417191943162
0.101516401263581
0.101686444371439
0.101462223445339
0.101984157008449
0.104767920605524
0.101260906275847
0.101984127015517
0.103471296761335
0.102230772830436
0.103357903167707
0.100271827185649
0.105269282848098
0.103785655003133
0.102968107924371
0.101942843715006
0.103158212304006
0.101602258710142
0.104702908000739
0.102282149047781
0.105791969230489
0.104054950220157
0.106887440191663
0.104026709458989
0.106017388059119
0.103714484146808
0.102941866059787
0.105063736361385
0.104246320110844
0.105120022729574
0.107487598633822
0.109048601152275
0.107661592652812
0.104783949256049
0.107800166151637
0.105496560914544
0.105854347525083
0.106858651510651
0.106567520722276
0.105944010546358
0.107939438803609
0.106093753747081
0.106800725666052
0.106999918500846
0.104829893257462
0.105887916385297
0.106139020188091
0.10696554892793
0.106619728330512
0.104469845219214
0.10695474906221
0.105443143759473
0.105170083384005
0.102502263856973
0.105479730387219
0.105038999049136
0.105754775626902
0.106560060923892
0.104750549088547
0.102626823487998
0.106553439104159
0.104656063397559
0.103027891986195
0.101760394782834
0.105142633321353
0.103980952003491
0.10269125294063
0.100989022372708
0.101280857358343
0.100803035115369
0.10081853636636
0.101016221342044
0.103263867266083
0.101085960445193
0.0999142741288547
0.100069987749649
0.100965524478097
0.0991644244118935
0.0999606240708509
0.102132108343769
0.100877957809766
0.100970654906391
0.101531823489581
0.101935313104235
0.101557335700659
0.0990560546890966
0.0991904967380862
0.100084767021855
0.100129982124458
0.101869275190694
0.101186812741928
0.0974394036373641
0.0997218026911835
0.0996224675210416
0.0992150878962033
0.0972799379464936
0.0989371677279357
0.100296288563621
0.100062787695488
0.0995880896376616
0.0985626010702338
0.0985710587102292
0.0984143892453895
0.0972927905916839
0.0965014278638888
0.0968873020963792
0.0983363799072215
0.102115240487397
0.100047734923766
0.0985333269968408
0.0962158736770479
0.0987934521487402
0.0977495795111597
0.0952719748214954
0.0946119022603619
0.0956223614070358
0.0969267814735068
0.0942990334985277
0.0959284609935212
0.0982263824134281
0.0968583404007687
0.096313842085573
0.0980792612368435
0.0967225008292965
0.0987447176999823
0.0979118313230096
0.0952361362417588
0.0960189566068928
0.0936169234391195
0.0961830361442372
0.0948061478202335
0.0949208240915051
0.0956766375181246
0.0922260686210333
0.0976085252442439
0.100103427724184
0.093461317531567
0.0973858762350385
0.0961938212961564
0.0958815811531333
0.0966631687458576
0.0951685664452949
0.0961963273591649
0.0936157320245488
0.0961833329652783
0.0940720792055431
0.0928937290189395
0.0967657145279385
0.0959209040153568
0.0925366369870272
0.0927580867170509
0.0939548953519951
0.0928573210538732
0.0924093129897428
0.0931298774864544
0.0944814963948145
0.0927076847208254
0.0923224771157393
0.091118306580334
0.0921305819554891
0.0977367158450621
0.093896154723829
0.0916406579439977
0.0937925037857221
0.0932260166243598
0.0912474974673039
0.0889189794541578
0.0899732754134794
0.0938918097277163
0.0898461414246381
0.0907247987931111
0.0910874336340243
0.0886445343760264
0.0922765424516738
0.0931230562404925
0.0884487794262637
0.0876532486250013
0.0865142573395242
0.086926696652192
0.0882693546336913
0.0865173686667917
0.0898239697628472
0.0875797701297819
0.0871880656950856
0.0870675443304453
0.0857533078704394
0.0903045306881252
0.0904315315003607
0.0868746917079811
0.0869968766337666
0.0819245916720575
0.0842128811354845
0.0830195655973252
0.0850669141946449
0.0838346139885501
0.0866279931381742
0.0833266042195837
0.0823191620658625
0.0798906285388702
0.0840915439452818
0.0827044876129647
0.0823922428750273
0.0800018347963293
0.0824347827640233
0.0799629262006057
0.080701266994742
0.0800009597120685
0.0803065133426852
0.0781431665631273
0.081307251466372
0.0785536593395863
0.0811105054075121
0.0826656702626618
0.0929112572343459
0.0812580895355597
0.0797864961315507
0.0807597263160454
0.082147717852423
0.0801648933236058
0.0833821189515416
0.0786973376734763
0.078989050696717
0.0809429675523979
0.0814216168219687
0.0768527304747272
0.0791406845073587
0.0782252567643046
0.0776119419374146
0.0783847387751465
0.0788342246770744
0.0781152294741063
0.0789295126083233
0.0782848437586848
0.0786603453671193
0.077379274632544
0.0794697354222814
0.078169044727416
0.0786020889361682
0.0787657643006139
0.0854043415679094
0.0793529233714753
0.0768570442522335
0.0768041201244286
0.0760005827157088
0.0774562705888914
0.075794918920396
0.0775024374313876
0.0751545019868555
0.0763446864972527
0.0766779623076936
0.0744369020127881
0.0767091194944743
0.0752540638415966
0.0767721762353608
0.0750899572561653
0.0746735577903485
0.0763784610956248
0.0755661727641658
0.0747354594804653
0.073987774402106
0.0730732785956155
0.0741309508930635
0.0746989786647045
0.0744456991296062
0.0755177573082681
0.0752740272494535
0.0941173926648331
0.0794697948426115
0.0763787813074055
0.0754492604696013
0.0728812257565989
0.0735501252626859
0.0722812520607274
0.074655116819864
0.0734004141112997
0.0738509776324666
0.072565281305623
0.0721650441080315
0.0721566648636397
0.0734052032233538
0.0691942231419092
0.0725590035397854
0.0730191117667828
0.0738120328696398
0.0723579114277863
0.0727602744288833
0.0740830558682771
0.0853583732274432
0.0821218464400986
0.0716486303588957
0.0751178722940551
0.0751182167024195
0.0838386700293715
0.0861748447032604
0.0667284774700326
0.078852989374358
0.069536454808589
0.0741399164340077
0.0697183897934583
0.0786926471367109
0.0740765039975473
0.0832680311462527
0.0732025878932229
0.0769935979857122
0.0731566802946686
0.0741331907572848
0.0698728915560872
0.0744783543947884
0.0723324169504648
0.0702807501592764
0.0712054182273666
0.0745614864178186
0.0694376748494304
0.0711499764770641
0.0705662109617845
0.0750151096702973
0.07092499303232
0.0825216623945603
0.0714332240108274
0.0739412710380122
0.0702056412971965
0.074244150782228
0.0729341475036561
0.0900114731982346
0.074379244260943
0.0719130688340696
0.072237915727242
0.071871413206671
0.0708423128795744
0.0725398728353252
0.0734330210169346
0.0734237096969176
0.0706693411767274
0.0731473763689578
0.0713429467328148
0.0729179000500624
0.0727752834274893
0.0729305432769732
0.0722465332432432
0.0698185900803215
0.0737832396039781
0.0743043524363977
0.0723948069446873
0.0744415701407602
0.0793054412271413
0.0992184725113477
0.0811645310213001
0.0840805033771092
0.0741362986789036
0.0764105257937502
0.0686833005711626
0.0756718130026978
0.0682227070934211
0.0742410937714662
0.0696865566281474
0.0729720243390037
0.0712066059134781
0.0747282333971561
0.071344624061967
0.073202649189346
0.0689940322075691
0.0749490910075401
0.0722970213427355
0.0720101510701521
0.0714790154768685
0.07360279907305
0.0725319038540483
0.082001134300631
0.0826819490002062
0.0750545192357707
0.0770776907490355
0.0904446015670942
0.107936154509169
0.0731129864472569
0.0803112711389575
0.0753323874295707
0.0730873911224286
0.0717127831133045
0.0744989390376802
0.0790188598635445
0.0771951193975957
0.072909379788442
0.0721598586434188
0.0746650162470506
0.0765240200741168
0.0744915466657934
0.0841014084287958
0.106694937892914
0.0886478076451652
0.0751990360583531
0.0777748320758356
0.0821304320880952
0.10163459782011
0.0815897610634152
0.0744452393972277
0.0812505715185664
0.0733376513739334
0.0791304675985462
0.0736363007225612
0.0769621339778669
0.0786762348555385
0.0798776248926546
0.0733316634097982
0.0776110847811829
0.0726695437427347
0.0798925907607166
0.0821595054766766
0.0902624737083923
0.0888659792978866
0.0806397221300181
0.0812952313073583
0.0849079362378481
0.0746717518141875
0.081847932062973
0.0772416211117993
0.0832432355827363
0.0895441087375947
0.0994509373024663
0.0857777920741244
0.0959400042678641
0.0917370827972315
0.07884970948556
0.0818563096610209
0.0925098574262635
0.0825655242896391
0.0829498928917238
0.0815484946956449
0.11949163427441
0.101934631152804
0.102222494893889
0.0828896362207313
0.0832944130166361
0.0833366933205172
0.0801362560532195
0.086606177068554
0.0971596351805126
0.0937721602840355
0.0775875784398988
0.0870938597107305
0.0907790387895538
0.10235029260873
0.0880289645067904
0.091209975405574
0.0849811831474842
0.0936673622737278
0.0965722807268787
0.0944370386946523
0.0869468524417877
0.113006560188377
0.126309946645839
0.107279832645049
0.0978722919169827
0.0859508326827093
0.118172973776205
0.105510636476148
0.0893015491761982
0.0928832373946334
0.0897651413811046
0.0905631036517625
0.0940533232628466
0.119780809255228
0.104049452181476
0.0880104754810887
0.0987878778644446
0.0946409788513406
0.1142284528242
0.10995659574989
0.0916961746947483
0.0966937333006652
0.0991111406999099
0.104566850836556
0.129897818556524
0.125911411293063
0.108743411055453
0.134578477389571
0.11657340077102
0.120199965399754
0.114441558784551
0.108866978364687
0.119425132962908
0.131548171341533
0.113121060375885
0.103373511241298
0.126386775707823
0.13690589707185
0.115985439250314
0.115489446193799
0.115806202651751
0.108488565610857
0.155642401659379
0.169251958298526
0.148151899759874
0.129528175120377
0.130304834369386
0.146724979147467
0.13391171889215
0.122863241489676
0.126090515990975
0.122825163023049
0.129640915434241
0.129436515021057
0.136637942869825
0.13681433925229
0.136783946472575
0.13590874743681
0.136712687778028
0.163875276239846
0.191992695247604
0.176432910080774
0.159242832348788
0.174080525543756
0.178578822586797
0.153041495364096
0.152044372165414
0.145317931996427
0.163582224488708
0.158343856187175
0.153853996885762
0.157159257780653
0.184113256511603
0.179970443320181
0.175334807391656
0.187036233854603
0.175335289561326
0.172418197632767
0.192054591671656
0.293970088870642
0.228417556247052
0.189652811554857
0.211632541784003
0.196417614887236
0.272119740572993
0.221871255277071
0.212970894046057
0.209758796716452
0.219146435576928
0.227942430358828
0.24065629216928
0.248115950668536
0.259227772270632
0.247818256810934
0.254882836469026
0.267214931544839
0.360585093239868
0.335955429159167
0.304727262194968
0.285574311749199
0.319082410676841
0.309065692421004
0.308551441322064
0.31215798781163
0.325773174747581
0.33451839449092
0.397642730090332
0.35465697975973
0.350026996642481
0.361608432683943
0.394336505348949
0.371516287490664
0.415199235226331
0.427171310830296
0.395186157099652
0.40463330507121
0.406395006665061
0.418327421158579
0.418115695989341
0.446759609959736
0.46529650724045
0.441664440031042
0.452092663318217
0.449777278645256
0.4592064858942
0.461920164931679
0.480651383345027
0.471932787345077
0.519174309748492
0.518627726057125
0.623969881728388
0.530725860259007
0.494502867162273
0.494039084791024
0.499743710109124
0.513032375096139
0.530766464171814
0.524398693750861
0.531386241151834
0.492098147785316
0.500230411194232
0.492479244323661
0.504986200064803
0.511331078966427
0.506743320342827
0.493355808641815
0.521433239180186
0.512834700897984
0.556575353723324
0.584976537248388
0.522635178992821
0.494524687522725
0.507598864811104
0.502189632422635
0.500151378317156
0.487614945089136
0.504455981162201
0.51130938535666
0.50412551406006
0.491546098108619
0.483688920944035
0.497443824060673
0.513923077599066
0.481664613746045
0.490488331560344
0.473641646508549
0.467640630068832
0.461708222806829
0.484928400805368
0.51338850316757
0.473697961574192
0.448907870861104
0.45701884890078
0.445393165916427
0.447431996887037
0.438209708447336
0.456602153517296
0.444672081207089
0.445995479748152
0.438474837666149
0.431605409656084
0.425849480804589
0.435493137153759
0.432440270064305
0.437770812628679
0.434253560408904
0.427212063087615
0.433231991142916
0.431490993265104
0.428596269553625
0.432796256600916
0.422670071388072
0.430263974397311
0.430368499677795
0.425590077141866
0.423444857884333
0.427054629867044
0.423013037156856
0.427060291818672
0.415584748508314
0.425082899591567
0.420105156513848
0.422712291764757
0.414900178829675
0.41829413132605
0.412516448730966
0.41689391192199
0.410494493245996
0.415183465192122
0.404710811379748
0.412727411959634
0.400162001905463
0.47663280505352
0.435652999821914
0.407101062257047
0.395049698422504
0.395585509014072
0.395537844066698
0.397766702104514
0.43527958852092
0.425913001810809
0.389720649825268
0.386243687055991
0.375706571919936
0.398923237474292
0.388502278618421
0.372417527411443
0.371437166599003
0.366978055123775
0.392955611113994
0.44480071823476
0.445328412405321
0.447309338048225
0.376720260105743
0.355211131572239
0.378893915448083
0.398558305095073
0.354456584379513
0.351338677820997
0.343558399469731
0.385128162037979
0.36043815138423
0.346307383359331
0.337111616655192
0.336094902998667
0.373808621061353
0.379247988456226
0.346631531956606
0.362039348308253
0.379764944733106
0.363851127079583
0.399768304493355
0.405093815256417
0.357400507151136
0.31853306325059
0.314365503632734
0.312425007725288
0.318273432927722
0.374930870809449
0.32411822946674
0.327307394358434
0.300804555961942
0.304528423350197
0.304625038381065
0.324062387107825
0.307901017763541
0.313729956402716
0.335486515994225
0.292585037641942
0.305594439864068
0.321346025993774
0.331222377381141
0.348032661169691
0.295388947370679
0.280046167866624
0.32385190921157
0.326817307340082
0.298411588282639
0.299315619760103
0.269581099649399
0.282933320561391
0.285807572083228
0.274740579598165
0.288272813804593
0.297407351621941
0.294106511818553
0.341018365043337
0.338772878914937
0.322430841719175
0.276088159355065
0.261799283284914
0.262256205275719
0.266929033895901
0.261240592268915
0.257153167852902
0.295921616104852
0.273065478034005
0.261738792070467
0.313514788749168
0.2804546760405
0.270410822437176
0.269387364679707
0.270479607995993
0.278303811234296
0.302440349396219
0.325758481111567
0.305537076105065
0.304402108303442
0.319519153524997
0.296661078902466
0.300613450856227
0.301559805411878
0.305979766337207
0.314280903628103
0.328904898849675
0.317161570632677
0.333337868557202
0.332532283929242
0.329381926321282
0.368155506124333
0.374140426341433
0.354397784487042
0.399098065511383
0.390929905550693
0.456460190512949
0.399317783720527
0.397246260219897
0.395149065042283
0.403550933181758
0.412904328618797
0.408241994908973
0.424596124371494
0.463108298357034
0.424249570976207
0.444689678503699
0.439731422223447
0.450402374551641
0.439140915909224
0.491868288129697
0.474601870763368
0.546840596434955
0.509464668562935
0.500972685847979
0.47836928367211
0.469504475747008
0.484413548849324
0.485851234670296
0.473126742037611
0.47938221706225
0.485602603899238
0.525341814100394
0.488684427536957
0.495602222419187
0.481630373479959
0.504107307645891
0.492393283224212
0.501387119472667
0.500111381728826
0.51126417482544
0.511966763225556
0.518045563631836
0.50833770370003
0.609479668558518
0.536370813572327
0.534381998493461
0.535370439568866
0.54655625376084
0.537439389506835
0.546806659544039
0.579549147770906
0.568424302747572
0.559534343086627
0.564844091222934
0.563845190357988
0.572595717138891
0.579677625706362
0.609864966092265
0.570189763416689
0.592436476939376
0.562228865799392
0.646379314036888
0.630095857959032
0.612836393190381
0.621248286034571
0.616258853365795
0.602658685502666
0.607917509950677
0.603734560788634
0.614206709784506
0.609666661607101
0.61322665514995
0.611281435466306
0.621133417505763
0.610646510503773
0.612407366817899
0.611870611571209
0.642369679346428
0.609130292908197
0.609568421096015
0.606298440225506
0.612768839194765
0.602978437605613
0.651268050314076
0.631027309515144
0.619347045892933
0.613653778628204
0.621854725396874
0.640023016142738
0.62374543258934
0.59174687427781
0.620595040334951
0.601548695486471
0.620416552404536
0.60572540073711
0.634845762037218
0.648373087264641
0.626767446530259
0.625342104457283
0.618847688433888
0.628354863469652
0.632957481519355
0.633395344975215
0.631310517851005
0.641501458442988
0.648605661724808
0.643638309206751
0.646224079957941
0.645055147145791
0.658761552054985
0.667209346562127
0.672418065992557
0.644786005205275
0.646384292229887
0.640979548954898
0.647272105684301
0.64455051189576
0.640225605553935
0.615107410435109
0.623586850645295
0.621909217729511
0.626168372872959
0.643008275761774
0.612616166175973
0.617029008227381
0.602770805509676
0.600418618726924
0.590473109736064
0.58937037883253
0.582982709437243
0.584153382692681
0.583319619267653
0.570553487677054
0.574077094495474
0.566119278653123
0.570236581968436
0.567428663699572
0.567552253324648
0.569368423449582
0.564342154529681
0.551934231613996
0.560837147644578
0.566039687094771
0.558332317094054
0.552838678474586
0.554566172157403
0.570732144899315
0.57928973169874
0.575320100305538
0.565003404731377
0.566542416369456
0.561482892328863
0.552026771449423
0.561563335025346
0.549995781133987
0.558788046142524
0.551857774673557
0.56267161914326
0.553810330136946
0.553575050518901
0.550129059971972
0.559197521361444
0.549026384565894
0.555250040609751
0.548558479523041
0.555812233301542
0.546099144737149
0.55579145827939
0.545492368202497
0.56661956870397
0.553119955568232
0.558354823073235
0.551950902907749
0.553605981363517
0.549670111040361
0.556354864689287
0.559943641317216
0.558156301064146
0.547867635062165
0.549922137713478
0.55109774073766
0.554404634608514
0.553477967872379
0.548211466317185
0.548249086716632
0.548712757817714
0.540392667592288
0.539641795016286
0.536227170678338
0.527371811953172
0.52497253184773
0.532023871943524
0.517907556924268
0.521516154045131
0.507873002959637
0.511780481591232
0.505909186045743
0.502165873359662
0.491702364163181
0.500214104399609
0.493088902030148
0.488324397791454
0.484286862880008
0.492027237420923
0.476815483179117
0.482838086026722
0.473012421509765
0.479954404926166
0.47791753987432
0.478450173192627
0.47344457420608
0.478885038273939
0.474820903760079
0.475012080923807
0.473233257329418
0.477936166071348
0.47695038205002
0.483034562511314
0.484942687305214
0.482877902149393
0.484429054834556
0.484952560004716
0.485534353721466
0.485338801807869
0.48945991703516
0.49615495171641
0.494367632681338
0.497851871132094
0.497147121262843
0.501878695700628
0.499374443364969
0.504461212693383
0.505228768118669
0.508524464626812
0.50245920953956
0.507903939831576
0.503105849896287
0.510784467747054
0.504348211653605
0.505265670968951
0.498990615823724
0.506156595443968
0.502900950585856
0.498312744115615
0.497002155954853
0.498452439231529
0.495451417640799
0.496319360472829
0.493362307556188
0.494566398087573
0.487576553481043
0.493073281017569
0.488553373683022
0.484070446493212
0.48350892582806
0.485218271363532
0.478895198512369
0.484633333721386
0.476605618951651
0.47778768737706
0.477292645982821
0.476921286836966
0.474035249647401
0.47569226064684
0.469083403123606
0.468007543917033
0.466664316044753
0.466624583510502
0.466434512219018
0.46325727191965
0.465991182048187
0.462208924318713
0.461991606354167
0.461344532170731
0.456743150926824
0.453264744906622
0.451848608537642
0.453090213847879
0.446022206193181
0.44852577969866
0.442870664136922
0.439878291279175
0.436709819113891
0.431745129834174
0.428168265508431
0.427361398240819
0.419757360758809
0.420460937622082
0.416113012841332
0.417929141532586
0.41804864316319
0.411717258813541
0.41124911443179
0.413357441417531
0.409910085420242
0.411869039509692
0.409782418129764
0.40821760255717
0.402541972029276
0.405520663720772
0.401309981937199
0.40018382264489
0.393490938405424
0.391822609974754
0.384323520755216
0.384570326541921
0.374543855032948
0.372866069095386
0.366034004613916
0.364025212412723
0.358415079640242
0.360050032207645
0.357383395162843
0.360614599978114
0.360895862560248
0.365586714626823
0.370722099450584
0.37829658045374
0.383490144287292
0.398286602261667
0.406651502466169
0.420963022241911
0.436378458353347
0.45498173649148
0.463948951447981
0.483477447896561
0.498875100673714
0.52192430836549
0.530123520288724
0.552668128349792
0.561882577187505
0.583337110733053
0.600701713049276
0.612717630691321
0.631451327774978
0.64795045737034
0.662429762976052
0.678507573269432
0.690682520746333
0.709677663519639
0.716345963491826
0.736793756122199
0.736787798593373
0.74854142949434
0.749715507551248
0.764134542768111
0.774408620618808
0.788066683679506
0.791078330227901
0.793631464912618
0.798513677340806
0.80331352431817
0.794615760830353
0.803928482049585
0.803062865679537
0.806888916563476
0.81195913772501
0.807504869170814
0.809658092415715
0.809440225207554
0.805732160236769
0.815875647914616
0.817453196537688
0.82644835261369
0.817778198813332
0.830074158966733
0.834116839946412
0.843708746332247
0.851383050771206
0.848276805451561
0.856275056933288
0.863177048027234
0.868096674458591
0.874079431536502
0.889322828312646
0.901187739321054
0.905985985968833
0.91409077356405
0.936685379924022
0.948865319694001
0.958262633824612
0.967575914959497
0.979020179007695
0.99141978598154
0.989877344308373
1.00942715394441
1.01003966519698
1.02578588439857
1.01304868278207
1.0228989292371
1.02145548059147
1.02187518857142
1.02024685918056
1.00535439133545
1.01373286817391
1.01686036114067
1.00245301070947
1.00079357722405
1.01109483053154
1.00538919621818
1.02120409743672
1.03483140165888
1.05514635681406
1.06271099015149
1.06856843409886
1.06888696572892
1.08141204660761
1.13284022430809
1.1383038866324
1.14970888719477
1.15517176180576
1.17020547897826
1.21106881847828
1.20856555062496
1.22325292508402
1.23073199573311
1.24241809346455
1.27877728978896
1.28495939481841
1.29865615041126
1.35289395581513
1.34746823757189
1.39123588005584
1.38271177691038
1.42856330905608
1.42973727777814
1.44133917975239
1.49608332872664
1.47267473869958
1.55560954994677
1.53519101094559
1.65841855764591
1.55870071236741
1.63377207660434
1.59804277569973
1.62696916065034
1.64342163526199
1.6333543102067
1.74859111174355
1.67716216228321
1.64273425684781
1.63173455839189
1.71007388124196
1.65023892694304
1.74758876021959
1.80473748442321
1.69678556158334
1.73067978669603
1.67214377697311
1.60407890004705
1.70143069235654
1.66591180931163
1.70092179102922
1.72408474797217
1.73077487021105
1.69827914138695
1.70408130676068
1.77994766494859
1.76579298949681
1.69116550832799
1.77773623019293
1.8367661090486
1.82591364783799
1.80429370805753
1.92693266050733
2.03249092276423
1.90168597085487
1.87525736932812
1.98774653093823
1.88902826875718
1.98068778643372
1.8839111413497
2.02552235072033
1.85409630911935
1.90600208398719
1.87522178480907
2.26403450831845
2.01288332401954
1.92631730319504
2.07031519404946
2.1246825193611
1.88960635882228
2.02007471787045
2.02259132320513
2.03507770330015
2.19716902795639
2.10391930946233
2.11117886500724
2.30627136423187
2.14166523426246
2.22432340495344
2.30950457858116
1.88297484063667
2.058947566609
2.16161040355503
1.94480853509415
2.16111767403876
1.97579783107563
1.94128415054509
1.90437053649289
1.80454701334274
1.85572573050857
1.83247286337698
1.65649970133298
1.68605956029444
1.60510046614458
1.61062048303222
1.50239445495999
1.523299122248
1.46755692962658
1.45943557098141
1.36438827817504
1.38894944783592
1.40304809804884
1.39552354709114
1.36894226525222
1.38742796512398
1.35419763060281
1.36531899222457
1.33561820496597
1.33761047219167
1.3157338450469
1.31549524371631
1.25231396639651
1.24962780955982
1.27760474318669
1.21234410904734
1.22217926497278
1.20334833131043
1.14925630837952
1.11460239054793
1.07657526502011
1.0447840703178
1.02928899269392
1.00955996461913
0.962866082046727
0.932676118092352
0.890885706795298
0.850848857758293
0.817057692273537
0.793862743940605
0.752739674448072
0.722929335903236
0.686487235049415
0.671153281162259
0.645083982329424
0.626144428798074
0.600748845963879
0.586966050138231
0.561167966313122
0.54869170455546
0.534383173611257
0.530807966137197
0.515537394770692
0.504501541391931
0.50397385657507
0.499819681476067
0.482131969290695
0.482438916333456
0.478732081770978
0.482798830866295
0.480048196506035
0.483034941104401
0.480785535236614
0.481664160272537
0.47781738574214
0.482922027523315
0.487693318007109
0.483063547302854
0.485714605411218
0.490685332411726
0.485694730374422
0.486036821807822
0.475228077261247
0.476190070696164
0.462104702923104
0.472131544667159
0.466780729680577
0.45798836564624
0.448996959812619
0.449549660096195
0.448497658329184
0.44825818744611
0.44451589858245
0.446844770773346
0.440518804097945
0.447050794308655
0.441456004577105
0.458458915891449
0.46033835437266
0.4584175096116
0.455982698521676
0.462463398058701
0.470812214353671
0.467152141940955
0.468365757570027
0.4672748707536
0.471964333881617
0.477882341799636
0.473630285717157
0.480241070279033
0.489188410298179
0.48792339066674
0.480843041116815
0.479640991959262
0.478672002602379
0.485704732017171
0.485198561435266
0.493486724117904
0.499018111259069
0.496361127707392
0.500091572272347
0.508772286170115
0.499457817288659
0.507782019855085
0.515358571904863
0.537008697630997
0.544977690474298
0.556362121327138
0.566052037638368
0.587968504963814
0.593090668438485
0.610499570430846
0.624539618315784
0.626444985569932
0.635883310352428
0.653663072816045
0.649862734291558
0.647226680573015
0.639230575707438
0.633423994364666
0.634439911639715
0.631392668504859
0.603576152473266
0.603480078331679
0.59095497560107
0.583141743673214
0.593356527570543
0.586179497482493
0.575837631986689
0.582321591080317
0.575054617521122
0.586668174358683
0.569302589233942
0.579931027277048
0.577300218251671
0.584722584660776
0.574820476352384
0.582217478778632
0.564877085965525
0.560216944382463
0.550227623949703
0.551918388835118
0.545299193357913
0.548496297601789
0.539455608285605
0.543665685111648
0.519939243387397
0.517251092609147
0.50984935834627
0.507717319070569
0.518234412804676
0.527039279704382
0.513178165773472
0.509302156283351
0.510147903885141
0.513233789969719
0.495975672703471
0.505463686104337
0.487232137200741
0.496401351598269
0.489687943281475
0.492008215730578
0.470456803515976
0.476471342040181
0.478245320860686
0.479582904587719
0.474663196870556
0.467603712040413
0.469485799272431
0.470141135664495
0.452331848727147
0.46382548346395
0.445054121768836
0.43805413909185
0.444721000127037
0.463267241978069
0.447716946996277
0.44493556432215
0.452867456672482
0.450306351608164
0.446423254826121
0.443686989680474
0.437830893658612
0.444329928710085
0.439347127164103
0.444646081813782
0.444024167649557
0.446504760307446
0.437321427469466
0.44018478592361
0.442328472172053
0.446384796977627
0.43862834633108
0.450351295500402
0.447997948443799
0.444654644916511
0.450929918241704
0.46710485726639
0.453537103795781
0.457380085245125
0.466956893091432
0.471998755481723
0.461971051452919
0.481835658636023
0.465054631909275
0.48285793584372
0.482723258069607
0.485952450071886
0.481772485579566
0.497744701838207
0.501305280703324
0.494382989669417
0.503785970136107
0.513563020229447
0.509398110364909
0.544509793258168
0.551666772551327
0.543404153976677
0.55300752727683
0.581578050418417
0.557285689657364
0.59427211021944
0.636282347872331
0.655028262262997
0.639438185571273
0.681829154072587
0.683186994287175
0.696564465451301
0.730755442349823
0.745680911448622
0.753489709958861
0.782288453746304
0.780814291643043
0.771538065326469
0.756471892020788
0.767129144377252
0.730927647481799
0.737163865412064
0.746359919014958
0.758209345266987
0.742797224590321
0.771442921623288
0.739143641984522
0.731117612822183
0.732229790033815
0.751835757395907
0.741946483379146
0.733559929432152
0.71051001635114
0.729179231042619
0.689966419073749
0.763144598596398
0.746159403864304
0.740173507885617
0.716193616691218
0.720236644144018
0.689492175560674
0.68869055465678
0.696805572464853
0.686746677036526
0.676050421459749
0.683433849990523
0.653862447284392
0.702349263196454
0.669115700243384
0.646103436130151
0.654958252176782
0.713221828250889
0.673818946911889
0.652663991962723
0.665182261238672
0.675315212244594
0.675516227913027
0.713695208317343
0.665110134950109
0.676148304376622
0.639857632628838
0.667330062879089
0.645551057313744
0.688633741656057
0.722780640580468
0.689917722806156
0.604629434327216
0.669169419712037
0.711616713666989
0.72818747920761
0.716810549409299
0.726876739886888
0.718831667741814
0.68250974301954
0.703318650944426
0.760365216698959
0.6921030252866
0.729279994295249
0.709660416153261
0.761275739084293
0.714442839272821
0.757223645308687
0.699891554956704
0.764131726463965
0.658825170065931
0.6968668278956
0.700027328687045
0.73709530060353
0.805531545915604
0.864113207355285
0.728122021374643
0.818392343440729
0.919172678151305
0.93565431220332
0.861625383112176
1.05479281052898
0.931617580958779
0.830900310545473
0.867703923142837
0.897366264141845
0.849054341247452
0.859882271287899
0.897311450246416
0.99132343060281
1.02437112543261
0.906020370701375
1.0996209868101
0.980115950035406
0.796557355958174
0.930146690695143
1.08143689584573
0.952223603674707
0.920623444616336
1.024818704565
0.740783587518749
0.881073991162906
1.00461089559532
0.865456666031979
0.773896949654375
0.887735213415629
0.817527879049571
1.13339338896143
0.957579767094035
1.16595956690566
1.04634092769609
0.770108381804888
0.811047683443792
0.685516114433661
0.862008138058159
1.69634085329814
0.664582667526678
0.733994452498623
0.80597416070246
0.61095610301909
0.847393958061726
1.08963061990812
0.976214092162355
0.83804681450254
1.17300121244513
0.916565210818839
0.587005813801504
0.957982825820509
0.887857074529116
0.833254839026786
0.717063368303911
1.31847786672284
1.57819783654924
0.871611233701263
0.955488657939378
5
5
5
0.93669647561925
0.497279262880431
0.92044811288743
1.78987323470241
1.33191046339133
1.26381923855872
0.89779365585185
0.638621922135897
0.912947752867457
