3596
4000.36533379555
650.420452594757
1
2
2
0.086082576905315
0.0850542008217466
0.0789001729754323
0.0880312348826462
0.0771097701233505
0.0934482634011444
0.0762524830332581
0.0851170874794325
0.0838937674722424
0.0982897164519721
0.0794601595777558
0.0890159810742449
0.0808084513778714
0.0828031153691445
0.0769844537472857
0.0814450332234955
0.0724573222277451
0.0885638576379719
0.0777368266558687
0.0925810279759495
0.0791520737227637
0.0840719449099822
0.0776392283382857
0.0889466682356002
0.0773693375931389
0.0959835923144296
0.074052353346606
0.0979062388729548
0.0804808816263222
0.0799483746676103
0.0783629600565363
0.0887477022574906
0.0835832137033108
0.0784930481336065
0.0795596541823081
0.0931878081741897
0.0869788412524139
0.0893738926890612
0.0711373809898044
0.0929895656311945
0.0792916330224598
0.0861832606267953
0.0806051887586132
0.0888510145518079
0.0796628773373596
0.0887693932653376
0.0767578289817815
0.0928468316594955
0.0799978061432033
0.0835323598766946
0.0878482388064511
0.0851462506821751
0.0926511015145223
0.0951217541268939
0.0841084456718406
0.101622618675582
0.0860049834922634
0.0836844684897252
0.0801827619049007
0.0881421276213139
0.113017364133332
0.0907744421908996
0.0741901897757603
0.0801330028880367
0.0698250558018315
0.0840282698057335
0.0751926307093346
0.0793563298138145
0.0734138951914014
0.0838306670205932
0.0742181775040008
0.109169833914897
0.0878751399155962
0.0888381279371768
0.10047520172455
0.0895340659227099
0.0640909600968957
0.0746697989375715
0.0702667754441918
0.101325677111028
0.0897109855370153
0.0909815651929289
0.0838059429512707
0.0800913234421966
0.0823663116542589
0.0988150630096316
0.0660560342811282
0.0970009058667902
0.085230775336231
0.0897935223478175
0.0706963980122703
0.0844962531104794
0.0626136236291425
0.0822333698349872
0.0709267797884016
0.0797750005385257
0.0651050695877777
0.0916442234750232
0.0632183233127152
0.101394163092121
0.0763194196320994
0.133659783671616
0.0980866210250202
0.0851686634551385
0.132481241529372
0.0880634788039695
0.0887380000585378
0.110826491806595
0.0873040062397187
0.081689309579272
0.074613774659116
0.076572249408452
0.0765220617595473
0.0902633136357771
0.0683936638213782
0.120548274793263
0.0898933279257169
0.0921671976800239
0.0772226587488432
0.0906102152612819
0.0410037085255053
0.136697642082466
0.0944590595351776
0.0914477806570626
0.0765198455786784
0.0730719847063014
0.0586861695935256
0.131830995758882
0.0843216357596137
0.086633904003455
0.0558048850858238
0.0836372741411959
0.0589674396890927
0.101361729318997
0.104355711546247
0.0889923339291129
0.0688532072917043
0.0810314745325762
0.118689328298161
0.125229039156556
0.0796617758099139
0.0841528388352357
0.0516775771714806
0.0986441792458563
0.100599921126736
0.0926848607339797
0.0669530999863198
0.105701087680958
0.0719689880957221
0.0863855126912555
0.0704629601384734
0.0844871639875621
0.0932095682410576
0.0879252406978105
0.0319978774361508
0.175562957651552
0.09768494420666
0.144178430558548
0.108046468656802
0.0836767014774539
0.0849511701633432
0.080491826520118
0.0761270087993532
0.0666883419399055
0.075273778069309
0.0641560233583
0.0834094356150277
0.0933847163175235
0.0666920892071799
0.0938980716548767
0.106728548596259
0.0842360904077975
0.0798372006878231
0.165358634575625
0.0708438151964506
0.0832000753305314
0.102531027320883
0.0976398515880469
0.0444383683204622
0.101766800884448
0.0892000701435641
0.0800163478968489
0.0703973256269906
0.0752356349780018
0.0753027437150053
0.0986830527339053
0.0715059131586027
0.0882269568888912
0.06084184976404
0.0739668344427283
0.0793120436116429
0.146271989926298
0.0861094619636829
0.0922072391477746
0.0782597777561633
0.0643447165745008
0.116437818543225
0.0973247636793362
0.0766676805522303
0.0799231484819793
0.0619329883935377
0.0761451973279609
0.0643262484480913
0.0840403047861094
0.0523675830815766
0.0678735635231421
0.11194543323784
0.0940704790167887
0.0746083837647557
0.0789586000486183
0.0752145347845878
0.0666681158255834
0.147419675369431
0.0911002617055769
0.0790600304944134
0.0778318161176673
0.0622891685073763
0.101100939470519
0.0825680745267764
0.0760020508568166
0.0663923256036505
0.0679910159746707
0.0712655080889716
0.0708949559580144
0.0718610602317525
0.0809269714778326
0.0627111991187861
0.0730253970943416
0.0684315759016731
0.0795334731032258
0.0883107806029028
0.0696490130952786
0.0672905566537785
0.0867239704938886
0.0526048626410897
0.0969843975940027
0.0835996346827157
0.086730027172662
0.0772156772875267
0.0756724820689627
0.070597821121794
0.0699474158670163
0.0667974711262975
0.0805229951588905
0.0562902163489503
0.0719920124702364
0.104482345392607
0.0774029101895338
0.0747807341725724
0.0629815129346264
0.111369065366104
0.0756582113501482
0.0766392449160427
0.0638235908193486
0.0840153658258429
0.0580010519617947
0.0816936775385486
0.109783040520256
0.0778507161373002
0.0779972973890277
0.100249642874473
0.0803311348061004
0.0839088390862545
0.0642555338692082
0.0747538276123437
0.16499924299467
0.0755195305056555
0.102018796707551
0.130027480349818
0.0853973351378788
0.0951156765106605
0.0770379193964025
0.0692867003902592
0.221159529170763
0.117588231991721
0.0793464851224465
0.0825127664762116
0.103370049192006
0.061669631311139
0.0974871404678404
0.0692148856821702
0.114311754333648
0.0880383991801821
0.159255125485711
0.13627368767875
0.0623508296996979
0.130413498925037
0.0912358396161673
0.0848578531484182
0.0790757395638438
0.0692442243159648
0.0777198519719759
0.103240836926908
0.0883539649850356
0.108223894152911
0.074404456008118
0.0927551239319422
0.126263304443833
0.0815146143633122
0.0755880263114768
0.105499627201412
0.0896470571745035
0.0761510637386065
0.0856242533934933
0.0758546345709008
0.0970968544134782
0.0595645659932651
0.094584782559689
0.131217642306574
0.0907504164237599
0.0979862021158344
0.121452107900314
0.0873668095964987
0.0804542223527189
0.0735605026103688
0.0870351364087121
0.0722660293161826
0.0784311108245072
0.0781992124510876
0.117279139315296
0.0828243108921247
0.0898625638147956
0.0719382738789369
0.0851837050499912
0.084355558126628
0.0835467664403117
0.0773831875776951
0.090500533832521
0.0863828015905822
0.0787859662251015
0.11750636754204
0.127797648738029
0.0673210435077774
0.167307357960066
0.101741479517359
0.0987898023806515
0.0790548947392785
0.0929585062151613
0.0856215733823847
0.0905734669850352
0.0909888845157186
0.0965948871565761
0.0898758296990704
0.111809737256268
0.0975201939392419
0.101568519108304
0.103771559669033
0.170366574793465
0.150913113007663
0.118341638040027
0.100856727201629
0.0815593555027223
0.157408554869913
0.106504779117726
0.134384890503122
0.127392582335023
0.10507917649968
0.115525652228986
0.101232572514847
0.118085156380931
0.101973478365897
0.118061412614724
0.100088722290322
0.117228565487653
0.108629625912765
0.135122329056255
0.0974965387249799
0.1451325846441
0.151834434598193
0.127307720106578
0.115864224675915
0.13216714742133
0.0965638628949763
0.185932680496765
0.139271748032143
0.217530692412245
0.14669152234314
0.194718061016346
0.17473059552586
0.141478327823318
0.142219520637692
0.137036536171355
0.147874282089129
0.159187058929279
0.146673257688842
0.149911762786482
0.144797613681715
0.157111082742253
0.153908365575689
0.158420957994053
0.149810067711089
0.16814652836543
0.189251615594436
0.168589344940691
0.168475959012531
0.164174200709805
0.196172468162086
0.219594760139496
0.234152441763753
0.181649031565261
0.19558895766796
0.177569073362293
0.178263811745814
0.188556985535708
0.177911955133626
0.194502883315438
0.19239927494304
0.247681089246766
0.19699134326794
0.242315779566936
0.196763203489949
0.19065651838272
0.224245821139795
0.212993540178498
0.216546691367736
0.236332068483766
0.231877554210997
0.213226124403806
0.258501402922487
0.230056520045454
0.222318536260172
0.249266217224033
0.220843432399947
0.232811903321886
0.222183053887376
0.257829924043625
0.231293373135072
0.278877782647087
0.246663729999518
0.260296524305356
0.254196790920868
0.279813811452275
0.24611110843556
0.301528355395035
0.248149634829932
0.298552013604238
0.265797705411949
0.272186237375383
0.272770368349459
0.270962775781717
0.308036677794514
0.291180452816211
0.304623796081803
0.306830883282667
0.273809341478279
0.309765232628688
0.290497821783626
0.307668475231334
0.284572760095779
0.315417712234904
0.303509278813454
0.316763787341523
0.304553881238061
0.333904136225675
0.315186223805355
0.329040341784948
0.31810012931427
0.345462141244286
0.319683305362352
0.34371295058469
0.334856205555989
0.334573478128037
0.364118275129188
0.404989583638135
0.378830054989453
0.380144861573081
0.341755920035903
0.377623183064691
0.358963155001767
0.387405755620735
0.374729217787405
0.423597865815522
0.359722390736427
0.403682247840506
0.391189375208756
0.402583896896387
0.384925102839705
0.413381801933522
0.408114784144508
0.430903882238549
0.385009577672488
0.433410351541922
0.400487984967351
0.436764424087033
0.420521951763682
0.466610093271255
0.441539315831094
0.468647568559373
0.432977274569973
0.458732626304533
0.447908290975507
0.46684467383293
0.442400297201651
0.469893531447113
0.453324371687809
0.478627263802138
0.486215953419462
0.488971946001363
0.48013442186968
0.492746354505801
0.472863553908083
0.47783483334188
0.498325768994346
0.503978560207809
0.476462423478891
0.5373849218191
0.486790499343609
0.531485456385169
0.517252837520139
0.535581241134243
0.532282154448531
0.562094359408671
0.527596773486103
0.550044939153136
0.523852986441864
0.567873297960077
0.524715149789531
0.574546591662763
0.535303738512918
0.58146770462955
0.538482675046672
0.590568222474348
0.590291947752242
0.618089751668209
0.586447255363476
0.650946391859315
0.583428276776247
0.620628468068936
0.612343409192831
0.627045207287256
0.600660815851483
0.61602337597518
0.600353262921343
0.654948096416372
0.628521462731709
0.650883164460994
0.624069813672675
0.667999420091238
0.634470596307358
0.690760310241872
0.638480949694942
0.681068893752116
0.63408383098201
0.695558968715354
0.656025622152132
0.726556983394199
0.677273273780764
0.705540833021269
0.677579200225994
0.758452005633126
0.686854088633672
0.712985247555297
0.709704809081212
0.73047531291108
0.704642048214849
0.734927501596073
0.719648017418864
0.716635028964975
0.705927494806132
0.769415057338567
0.740325927937784
0.796726294220973
0.74590059826341
0.797639612895177
0.769491824908858
0.805417878928754
0.768224390863183
0.803832250415497
0.734064434530281
0.781054299390822
0.761509308028663
0.825730358208905
0.753603352025456
0.823839376354843
0.753065578028166
0.831932148985408
0.768920036745895
0.842932253549492
0.777098503670238
0.919898395123028
0.830629229292289
0.917814740203092
0.828785743423468
0.826742029628357
0.84884579678599
0.90878330737238
0.822735305101989
0.907558866220963
0.836846071165628
0.888615671141756
0.853269057079569
0.915082557432363
0.835509586677402
0.868781200735226
0.825686868146091
0.878320374053779
0.891847323423407
0.944817160665231
0.859111111503753
0.982104156604556
0.908183507547976
0.896797378515911
0.905116353670175
0.920562763386424
0.886746471384551
0.907746915508205
0.917888180305538
0.959306944639427
0.920832326748045
0.948543376266157
0.878730266436565
0.975477206462293
0.956987225708579
1.01752628266886
0.928025822182148
0.982238507333318
0.945877872811985
1.05080582928459
1.02721086112016
0.980578967379016
0.954370959230853
1.00407482317226
1.00274170858863
0.988447486078039
0.999811196873797
1.08664354800836
0.964410079108297
1.00161184425035
0.993374853763224
1.07607951018116
1.0487071559783
1.09433915733663
0.957984239245988
1.0922438114675
1.01390358298378
1.02055082410628
0.956364828202361
1.07580129681437
1.01985628472145
0.989132978759843
0.945040470177713
1.0597666798258
1.07891226103704
1.11880875474864
1.02890852283716
1.09493713626679
1.03568096063025
1.13521850784147
1.07710158213566
1.19363680016572
1.11828295714483
1.09284458079764
1.02983383013999
1.10151552091325
1.09291900086081
1.17028217698713
1.11757157512486
1.20440919610651
1.14233536963681
1.20214296016605
1.1455938510891
1.18523416957832
1.09357449121374
1.09268427952708
1.11854279651992
1.14469078816589
1.11541551560195
1.10688534367828
1.05112270175104
1.16422596493999
1.09683085056133
1.17043959633607
1.11831439482817
1.18172707925269
1.11156889443654
1.19333755221628
1.15112697074928
1.13684758734208
1.12889826507706
1.15183286643319
1.17721372438317
1.16097412525041
1.16695080276579
1.26439368858785
1.1332934788945
1.1610008282666
1.17547828353932
1.21770254783884
1.13771688805593
1.22034267273642
1.2383512549349
1.11434681343651
1.16743291627696
1.19177547472459
1.19783822907989
1.17905938316752
1.130946869076
1.14570885469109
1.11841076438927
1.26491572024824
1.18429692466231
1.2516986811422
1.12364142013711
1.21366664571713
1.17935183368768
1.1944831160789
1.14225342555782
1.21369609813701
1.15756757926174
1.3079702675778
1.23679568157902
1.18609516895419
1.15978924916533
1.26718910118871
1.27142202140588
1.27087026669983
1.26338494449331
1.31024147190353
1.11274416536296
1.22440980808122
1.24153721058291
1.18750247412134
1.16044372259464
1.25783221130213
1.21193690008267
1.27261864454828
1.23150174345817
1.22104897345691
1.19682531981638
1.21342755991961
1.11971366888833
1.26448049116051
1.19352466419321
1.25654717797709
1.19068260315961
1.19979198584862
1.2034894804997
1.23200292580012
1.16452857380735
1.34881147080111
1.24615573890066
1.17403129651829
1.23722848861763
1.31913701828235
1.26329875654548
1.22282485009695
1.2106238424916
1.22041033103722
1.2404163593191
1.21650183287879
1.16785157170326
1.23564437001062
1.20650920465273
1.31711815175543
1.16516476448561
1.18393060842752
1.25615506933872
1.28607036840339
1.1551024830749
1.1536762121415
1.20547960280993
1.17047732673684
1.17593274796087
1.16360637046754
1.18196328394156
1.27740221973002
1.22823393582901
1.29470910667695
1.22352920227196
1.15690919989997
1.18402495155832
1.17443649455132
1.2036148640988
1.25948667798138
1.21909488188515
1.26814934767492
1.18972436068772
1.23727861278684
1.20190634222611
1.21856189588924
1.17770684043242
1.22928717136734
1.21871356641721
1.22951527072348
1.20206757436354
1.17890363801992
1.22191334015015
1.28179466431954
1.17824534981191
1.22188530717668
1.1703678687985
1.24487344705975
1.21654262469236
1.15704960149559
1.14571466597641
1.19278448907091
1.20127471396867
1.2704827548371
1.22905779400874
1.21316762148084
1.1574351288387
1.18601675056675
1.1580375206365
1.18312359490019
1.18599557451618
1.17985078554802
1.09753030631876
1.14284578591764
1.19142891690177
1.16687221384655
1.17097601519366
1.16782489651461
1.14395548503122
1.22206794524624
1.14484904009315
1.1705954053447
1.14821806975583
1.09831056710343
1.16062215972387
1.23669006951723
1.14429068364868
1.14232010046367
1.15272067324829
1.15563407313142
1.11746554480658
1.17855297639743
1.15888979556789
1.15388401475013
1.14953841408968
1.11976441787119
1.1084423164147
1.11172163553985
1.16439899453995
1.14908187091177
1.12088387458184
1.12637660569171
1.09617304402565
1.13130835012224
1.0788769320955
1.12105000025723
1.11270861490839
1.04894359427366
1.03757734048868
1.09368432607391
1.05098454839519
1.06729037008446
1.06708728616979
1.0797947969912
1.06921488171179
1.08797427369689
1.06468002241908
1.06694793968072
1.03077057662508
1.06787300856524
1.07279109778898
1.06498292695382
1.04328253839447
1.04673446303771
1.03328083870631
1.07272200277711
1.03751836593117
1.03535603586361
1.01527993909762
1.01221714618893
1.00328795533843
1.07697474350995
1.02252883846117
0.972084640462825
0.995701771077989
0.99334781978559
0.985076763281974
1.00202943718806
0.980516223649156
0.96142508631367
0.9828734999221
1.03057776397099
1.00096320734425
0.994251345713387
0.984295805177073
0.962445069310767
0.947952353142221
0.966392516070027
0.940376076209988
0.950565508957687
0.954372220365754
0.941269346333912
0.930153394481322
0.927833722720815
0.946376022048395
0.929118427902856
0.886782983046332
0.902982366112376
0.932109126467468
0.915641930408055
0.887583823215252
0.895856972371842
0.896534194592995
0.913852710762229
0.905790351448215
0.890825160436377
0.886262547220239
0.89412330878412
0.863143538571349
0.872799986174086
0.864529975343257
0.859613776796873
0.860645789547568
0.848636622280001
0.84737674635935
0.868345828948131
0.855719621384588
0.87190840616624
0.836751967469244
0.85131109197887
0.833549455260293
0.804298637111155
0.813985439836877
0.826249096281789
0.820948057731314
0.825530486082693
0.819498408723549
0.794079163387931
0.793223109550583
0.833031291692384
0.794287565327204
0.785913145926175
0.804336198460285
0.807844925330762
0.79037765069635
0.791917253526465
0.785966441482977
0.776458342157651
0.775103200230624
0.763049186088254
0.755169800744286
0.740337829376741
0.744099560518031
0.747210072755007
0.752456988058469
0.754325219778727
0.75125220295522
0.730359221339944
0.714711028297391
0.722459552202173
0.720373055534985
0.717692950175526
0.710036488660775
0.70376110460835
0.715941267204873
0.708299652189276
0.694740730543312
0.699733297384495
0.685641248706752
0.681430510992718
0.684089907960853
0.683300784957124
0.681667547280727
0.691754059660493
0.671512160288426
0.662076822535309
0.674866008503297
0.690660005350413
0.67446023706795
0.678470644712174
0.679308489407878
0.652106388333279
0.643729198889124
0.636201139381968
0.638081697386333
0.656947748756603
0.641715095575497
0.644706240746433
0.637225916199486
0.63380273402125
0.620708740055434
0.629562871440399
0.640116747783899
0.621236696670028
0.61068463317558
0.605025479298105
0.61460025444077
0.615602582193876
0.606292434282607
0.613710447369326
0.596187312371501
0.601723201186069
0.610185651435835
0.601319527673607
0.595463317656259
0.578262930884075
0.584779589643442
0.59660756591077
0.582588876897494
0.574372245401128
0.570182361742154
0.567543710483879
0.583137316644568
0.568235409898186
0.558035049223062
0.563129150824537
0.562497705872895
0.564273077216258
0.547124341560475
0.546768322146061
0.547306106188767
0.551649693834741
0.538325553720936
0.54133882804406
0.54924315162881
0.542592502549334
0.53758292634187
0.532140864922586
0.533241802458257
0.5278447074747
0.507691677624164
0.519009271689404
0.526960340266551
0.516027029577441
0.519725070996904
0.5154136234808
0.514274658592118
0.514598597924097
0.50860670293799
0.503131336923388
0.499292003416883
0.491719692832516
0.492763495319029
0.499815734617422
0.493634376467688
0.490488625271287
0.489723067881771
0.493523750811923
0.490174232842711
0.485341161473348
0.483070052712818
0.48172544452595
0.477513161190804
0.47417944826401
0.479084297510771
0.483837648547956
0.47114224154271
0.463222008290967
0.465905436863788
0.46650444024338
0.461247856960496
0.451513087135712
0.447925967452369
0.455978270282292
0.457185143829877
0.449511337206742
0.442057932398518
0.44028295818083
0.440991802318587
0.442509400051055
0.437373802990707
0.436114907402248
0.434934809824354
0.440056408236735
0.440449570401677
0.438048864589292
0.433185260161615
0.426583064718188
0.430768169321868
0.431941636850882
0.42979068791997
0.430614129238415
0.421972193076828
0.42110769962423
0.420228191758712
0.416205174595749
0.423077109748019
0.423337474379124
0.42364908735878
0.418574493105631
0.41983263966612
0.414358699822623
0.407851679134821
0.414595267137362
0.414955300824358
0.417034466298248
0.417574752107835
0.414193976327593
0.414127877109092
0.418171214929956
0.422819900284293
0.413303168062646
0.414869101870194
0.425323125832537
0.413962023468322
0.411499891369475
0.421761698039427
0.423291581400291
0.425587764621623
0.417489970207433
0.42006641275316
0.422095388213931
0.425572936646213
0.422687438105499
0.42754350392728
0.429888785105781
0.432713810011523
0.440848105937736
0.435515494113975
0.43111531760353
0.434683811681467
0.441269130980137
0.434231833268095
0.432024840521682
0.449107272207556
0.444157176678698
0.451894414338987
0.455047730090191
0.44590155223474
0.443015879827445
0.458640016612058
0.445613774108501
0.454544801094585
0.458330112841138
0.457762020828542
0.468921482504231
0.470679375424416
0.46318741869074
0.469517582753375
0.46768966184064
0.476314494389632
0.476885664933256
0.479588108317923
0.477897535107547
0.479451778118098
0.484852962574073
0.489619760196591
0.487798106767828
0.49545799030488
0.498864922421772
0.505167330844881
0.512255976700365
0.514358775684151
0.515841527285483
0.520650729268943
0.512990361026909
0.5178988803158
0.51979283315624
0.519839646416129
0.518367819764922
0.528521035890828
0.522464713516121
0.540158626856929
0.538484326053333
0.530330045382616
0.532136532125375
0.547996708692809
0.535842094032256
0.552941879955818
0.551145029654976
0.543103299267872
0.534998191571004
0.546005226380642
0.544303757239761
0.527990827399995
0.527826086634249
0.536971926982222
0.532646089781332
0.53986669324408
0.532799286730276
0.538874188958944
0.52295432215581
0.525081412915728
0.533744190670883
0.529590764825579
0.536002382345805
0.534304203342485
0.527077751671462
0.531539288363729
0.536875353114259
0.53569976714832
0.532524694422772
0.536345985676874
0.528902443666121
0.538321423282237
0.525654366249023
0.527238283508489
0.5405510510592
0.537838302080703
0.542382855488258
0.542556295762006
0.540913985506761
0.539957045019896
0.534161713180253
0.535360086392996
0.524203393643287
0.53208366632462
0.533444051825441
0.535957815249436
0.530168053669944
0.540915204009864
0.541323357228548
0.528323432398871
0.536011795685322
0.534305669878571
0.526001618514859
0.534304059926952
0.527160404197249
0.523829555792387
0.53163988642381
0.524181869937688
0.527712078874858
0.529423284979983
0.515026476280775
0.520519524321664
0.519876315460934
0.514859686430783
0.517592475256435
0.51308685896471
0.507621677284682
0.515422357063643
0.514545309468328
0.507564022396546
0.495792314322079
0.500205925706305
0.500374603238915
0.493303180138704
0.488551517561484
0.490135180341662
0.480381889051743
0.47389611701847
0.469150399555043
0.472545532375953
0.469442486009047
0.4719889626078
0.454193822864665
0.468993185041748
0.457048880597281
0.458699749141744
0.462179792423221
0.442650961944066
0.446442459650489
0.438586296103978
0.442703141179235
0.446203764827613
0.434373708066893
0.434087909179148
0.419519269189615
0.425602567446205
0.424441407677995
0.422313938985556
0.416626146701528
0.413938291998894
0.409946147740775
0.411826128747356
0.412206730071488
0.40996866663851
0.401781619902236
0.401029163396128
0.403017060842402
0.401493010215977
0.401049841702006
0.399009763001106
0.390319111653588
0.400356645455591
0.397633785363415
0.387945495350439
0.388445755311206
0.397426755223589
0.388056551336375
0.377805467485235
0.385409045557404
0.388714720851249
0.37547226648058
0.375368535843892
0.373500367598802
0.375807430172017
0.370988818244296
0.376928912551825
0.367884993620737
0.366433402199423
0.365473764663891
0.371753815056214
0.364015535595094
0.36452239308264
0.365667877280527
0.365080357022495
0.355187383148251
0.362493614010126
0.355309493258623
0.355655925443243
0.358485461102495
0.356569801028957
0.344085017369301
0.347768933446542
0.342878158513579
0.347552879722262
0.349681150715611
0.348523551210397
0.345698572554252
0.347772189169382
0.343679449981195
0.337279932100573
0.336094011488785
0.341184286916263
0.33748046857977
0.338288564236758
0.338939185706878
0.338185042459063
0.337349376421584
0.339617639296039
0.337624827381467
0.333765649352882
0.325333490626389
0.336513027005106
0.333099818767748
0.332691468757007
0.324668610840571
0.330807376318697
0.325531453838048
0.326818436420333
0.325247564333803
0.319991894472045
0.321117045263794
0.324867302607274
0.324813340046854
0.319658764303929
0.311524394444751
0.322442343588933
0.320651275390976
0.318801738704176
0.315710055810373
0.317612490282719
0.326778205654083
0.319045060951355
0.313770950223354
0.313026224988933
0.31219626691614
0.31299024327972
0.318781291232098
0.315079662284598
0.300622271023947
0.306381254335126
0.304262270483111
0.306424066007144
0.305608630798288
0.304642161972081
0.30300360507448
0.308880101828239
0.30643381409221
0.308945241116032
0.302025977782357
0.301014541140518
0.302813673885765
0.296589761167752
0.303514841116878
0.305428521354769
0.304964899088032
0.304346098964106
0.297055748959156
0.301292421281294
0.302065442557234
0.304892433733512
0.296929922863869
0.302359476051158
0.298935321592966
0.30159105647136
0.299323139471055
0.300555980105846
0.295385744173933
0.294355857629724
0.296049394366998
0.294882671357655
0.29750952642401
0.296256378706847
0.292667941606026
0.298686017822383
0.294320832399416
0.295739839775391
0.2911267779472
0.292662484446663
0.286409860414715
0.293052576814691
0.289052939937522
0.291653723249736
0.290243997418807
0.290753209971217
0.292997935930565
0.288584975988976
0.288946540432768
0.285894791108293
0.287257152304432
0.287504696175686
0.290278177071856
0.284885208894877
0.287154708349461
0.284573029394563
0.287263736058519
0.285531238262024
0.283205020971432
0.282631627730868
0.277533784344919
0.28324305670632
0.280334762217462
0.279885315320667
0.276650370376244
0.281278521393911
0.276208109153117
0.27780219789752
0.270948879680247
0.275832037321829
0.2717629757894
0.271549612322812
0.274255515554565
0.272270457480348
0.263452682187233
0.271473908447327
0.267690043385978
0.267986118887665
0.268458049182247
0.272252891577322
0.268637877529635
0.270506410306175
0.269398290196016
0.268466314391588
0.269768786409734
0.26376195343282
0.262881027430862
0.263735965814713
0.258586722764749
0.263026280705042
0.259329921515016
0.263705458845957
0.260924016474545
0.268750871679745
0.258859076499524
0.258436252233158
0.260083324926391
0.258004134835452
0.256561434202412
0.259538676824044
0.253279436185352
0.260310186985901
0.256462109238317
0.253774305159814
0.252815937827097
0.247552265421731
0.250964828084056
0.253059566072226
0.246548710629442
0.249235910710069
0.246459423131286
0.248488152637653
0.244570162809205
0.244258559636595
0.242927073252119
0.240980865105122
0.240920629417485
0.245818066176215
0.235487276561589
0.238112904648754
0.23685065955881
0.242869964436049
0.237609329171797
0.238097762085263
0.2365178402157
0.232050935291123
0.234542106055712
0.231022851738102
0.22894189600149
0.235598309393508
0.228582592073857
0.231695375828604
0.225881320893927
0.230750442087788
0.228723234588734
0.224702787530354
0.222324675682241
0.223764606841259
0.225278596718395
0.227435654291153
0.227938468403362
0.223260667541561
0.225058841571955
0.224385730951658
0.215127812348871
0.220259202311629
0.223552665990648
0.221726067365369
0.222085852146785
0.217470595244329
0.216038490607442
0.215131130204092
0.212738641751402
0.217451980780538
0.21277170486162
0.212804925986938
0.213105989105562
0.212012883597279
0.21362382788271
0.208745069181054
0.211063170392354
0.207843480506982
0.2126582621859
0.208302883841987
0.2078850092934
0.206130439750517
0.20484854798533
0.209455360046875
0.205728427894106
0.208377478093347
0.203122692099005
0.201631060530894
0.203330055754533
0.204905599880944
0.203608528451575
0.203931962428398
0.198242221016211
0.202894480487091
0.206704068180263
0.199318464955157
0.199732076116271
0.199843201283372
0.197117068558538
0.195503296733718
0.19664262684597
0.197494976469791
0.195669220772701
0.196032874939886
0.195090765849899
0.195171390043581
0.197896577569767
0.193295614749349
0.195264559393451
0.196508077009383
0.18903961824277
0.190007836909966
0.191679638285417
0.188305173524317
0.19358127222424
0.193785711015544
0.190005812368547
0.191756510387761
0.191763293253541
0.191309787064814
0.18629117298645
0.185421227840206
0.186645948177368
0.193596371659052
0.189929225371702
0.187596169620596
0.185320061798967
0.184647495594521
0.186638574966141
0.18481525983523
0.183133483168301
0.184406522755938
0.187079940100937
0.188729649203644
0.187251037301277
0.184643763776904
0.181721661723415
0.191444390670505
0.184656598942409
0.182215732057576
0.183845935510098
0.181962729823924
0.184421524131115
0.180005243002404
0.184280485044176
0.183312673722269
0.180927595323757
0.176124501532007
0.181243255432409
0.181211109734745
0.183714831085272
0.180863705179957
0.178226414017129
0.182011485564427
0.17556071561749
0.179866704746561
0.174831409391526
0.175619447836762
0.17340701347504
0.176324286189372
0.175297513980467
0.174203998558258
0.17269270672039
0.171256048446361
0.17384533658053
0.173019312099823
0.173365421127988
0.171339654564202
0.17391478610562
0.173607937234406
0.170794789435844
0.172587809884967
0.170885506767991
0.171366363917233
0.167466796007165
0.171898810086764
0.165985260538879
0.166281205911397
0.173725581698621
0.165092720961321
0.169151335267586
0.170100607905664
0.17156360847097
0.167443159835356
0.169513530496011
0.166197703091872
0.165508190631709
0.165759186244667
0.169230617802418
0.165956933556138
0.162827998204152
0.162771096273185
0.163075762062261
0.165932613679629
0.164791848500178
0.165255097726833
0.164940516687334
0.160575916991135
0.163314147172477
0.16232902532004
0.162972989756167
0.162457786829818
0.164417645780919
0.157859788496904
0.160910744880524
0.162205119796912
0.161016762319934
0.159511719051242
0.156396906087105
0.157731925492168
0.156946020893541
0.158490050224988
0.157603763688204
0.158544988754399
0.160431351312409
0.156045402796872
0.155812211011047
0.154122665976691
0.155423893758052
0.15357879181059
0.155959658478797
0.153643414864405
0.154131015628448
0.152970606563156
0.149745335229076
0.14906796961965
0.150120813899543
0.146776012156525
0.146978421793493
0.148606501897532
0.146705722000424
0.150618924851816
0.150500585828057
0.144694543418133
0.144655027622239
0.148363217135771
0.144224635583
0.142600756993974
0.144123880564049
0.141739058689096
0.144074965534746
0.144532522989104
0.144569129983477
0.140479750847911
0.138354851296853
0.13956919864548
0.141655149372496
0.140471725688376
0.139527405252363
0.136159067910282
0.140756413807248
0.135632693993771
0.139335908997652
0.140302373390471
0.140954310447686
0.136449713985318
0.136620319961339
0.133119792721766
0.138788389178103
0.135437384882556
0.132640262643754
0.1319556030924
0.133420341510901
0.130120619224922
0.135432746726036
0.132518969082915
0.131796400923214
0.129665851472648
0.13304332845134
0.129709826223542
0.131964164300732
0.124303836126216
0.131994847901422
0.129354833394
0.126608535895162
0.126827713494657
0.128587717341889
0.127048245245053
0.1280126839152
0.125141382297906
0.126846507624795
0.12685635541243
0.125129946920195
0.118570490465073
0.128208163170382
0.124036736247967
0.125444751334604
0.119354232036826
0.128247022545501
0.117332492829302
0.12159676722999
0.121112380759741
0.122606636077682
0.119031449324611
0.124703949425453
0.117152003528921
0.120854170194968
0.114789932300299
0.116286855359774
0.118894186078901
0.121288187002557
0.119453064952762
0.120198066560317
0.116443183408165
0.119455353213736
0.11394419690754
0.119518350899747
0.11330909310251
0.119110138869224
0.116895464135169
0.117851805644905
0.11723022767895
0.11994793234416
0.113208153055361
0.118518049739521
0.115247439401723
0.11830272095009
0.116426174020883
0.11847126859427
0.115089932096585
0.123098229429208
0.12030260327522
0.119498981835096
0.119311058902268
0.11809090679981
0.112780790652606
0.124187584057672
0.112854056401066
0.121100048109762
0.109148264668262
0.116235723056644
0.109556294100447
0.117189465314965
0.110132182602902
0.118418915935265
0.111008440451312
0.125763577939271
0.105044027671859
0.119727125113904
0.104707137345924
0.118857303153808
0.106037991693502
0.115145477417291
0.106492114092835
0.116402142848437
0.101797936899087
0.116899813320868
0.101903829477141
0.120398715120326
0.103673606943117
0.119890519854903
0.104179715164365
0.12000042419929
0.092647171407554
0.124066039343852
0.0952527740351555
0.119530320006887
0.0937829424886282
0.121496820250901
0.0868324425112376
0.11579734342286
0.0908501610342436
0.121076490271277
0.0878997292125382
0.123016019262764
0.086511241880663
0.130476335503151
0.0876184473004435
0.127954620709306
0.0804507130969561
0.130420174170638
0.0855716038786731
0.135359110210825
0.0853940402971349
0.13265000823085
0.0846213293060177
0.130387651874514
0.0840464617949245
0.128925320649303
0.0930459649701619
0.118429074793049
0.100966447481612
0.107609906239591
0.110025077257037
0.0912728080347283
0.125887880104295
0.090317238312544
0.134835045771264
0.0811829342093281
0.142787751511575
0.0757164469263911
0.138749132737789
0.0801878150462986
0.131507729920201
0.0864689575816319
0.123018403355785
0.093698573156224
0.108683861123706
0.104731134320363
0.105614776725673
0.101158409694592
0.104972572036465
0.101731508739736
0.107237851280576
0.0942539119863998
0.109667662638299
0.0957553771210618
0.108459725515803
0.0965630297682997
0.106715647992194
0.0949249601653255
0.103660089518078
0.0971752185896785
0.102443679207131
0.0940841237122881
0.103319280261335
0.0933722185853893
0.103849279750884
0.0964458404828404
0.102312003109293
0.0957597943795741
0.102074554173148
0.0963636510066564
0.102664667737482
0.0951385376461731
0.101398060585767
0.0962639770284872
0.100881117598471
0.0982803114617282
0.100558846170831
0.0958346290913327
0.101204598616502
0.100061771797043
0.104590354609543
0.0969513222028478
0.10200071526194
0.0965085416725321
0.099809034213892
0.0981922720129444
0.103403506004758
0.0960545233352871
0.102062626964077
0.0966631477686009
0.101248103254385
0.0963621906267802
0.102644589575185
0.099166562423737
0.10226157552926
0.0929925867481218
0.100089255825625
0.0979290732359793
0.102948432331155
0.0952463475061059
0.100138573823699
0.095079721605457
0.0997147705229938
0.0976043922483612
0.0999605173045622
0.094626710798073
0.0991654862935381
0.0941754747077409
0.101458118384925
0.0959420327085021
0.0971278349149688
0.100097981621582
0.100917070226824
0.0985174244465002
0.0987044627146472
0.0985799227839319
0.0991000888846458
0.0963475194840787
0.100040883281933
0.0973925846413758
0.0978217309105471
0.0994440180048988
0.103084610856902
0.0968100392473768
0.0998700134887921
0.0990874569779047
0.101222313348155
0.0974186244793505
0.102562539830869
0.0992022068648002
0.100824191463025
0.0989235741385682
0.101504041850191
0.0970271483273248
0.0987502006379723
0.0988136559580564
0.0968904434400551
0.0961394531656912
0.101537469435893
0.0958889199147054
0.100274841049652
0.0981048689588325
0.10150803874988
0.100026367978323
0.102743646061239
0.0985230912326076
0.102336158738747
0.0994372734168197
0.101750261292316
0.100342735597378
0.100665746534064
0.100737439339024
0.101629735441997
0.101216238299361
0.103355674321566
0.0976695423336049
0.102743435744498
0.101999629771371
0.103439192495165
0.0995913180755314
0.102864659426612
0.100417150179292
0.103248684548446
0.0986819349220551
0.100701524939732
0.0998946427143202
0.102986425118618
0.0986949512439415
0.101405732490673
0.10181930599258
0.105156466535108
0.104555862019015
0.103143819167493
0.101521782098409
0.102428198128491
0.10147252159712
0.0992424569032269
0.104661652200688
0.101314220116383
0.100431258283063
0.103520800634107
0.0993001527871185
0.103712622581485
0.101758025861231
0.103353163775262
0.101799579618494
0.101339320699894
0.100236885535684
0.102351976347093
0.100987930438774
0.103252029023907
0.104545168209414
0.106229771266359
0.104434694911414
0.103523284508428
0.103752983746799
0.103231091895123
0.102289088051324
0.102626092006755
0.102285358517471
0.104584256041862
0.103862211425211
0.104637665884525
0.103722429155524
0.105917522433591
0.1052428901522
0.105530385991865
0.105877058440757
0.105779570714278
0.103344873634099
0.106539533012612
0.106718371849984
0.105811939774591
0.102533009929288
0.106179820069575
0.105918247913865
0.106533686260605
0.106600546004872
0.104427030402183
0.102316980059213
0.104781634046834
0.103131777773731
0.105201720957686
0.103392072164918
0.102762705674775
0.100921217428044
0.105789634513126
0.104371897838419
0.105130458354047
0.10256064571527
0.106403002792618
0.105810593466755
0.103677947408262
0.102603743167368
0.103269661284475
0.1029080623951
0.101957181883349
0.100038858657507
0.103035958332021
0.10014194052657
0.0980814007646405
0.101068149231206
0.102623624401897
0.102863218430853
0.101570526104553
0.100332889150086
0.102474870024407
0.099273438732368
0.0996746276413842
0.0991713304887269
0.101812494660975
0.0990566747948718
0.0988250369808808
0.099841784682261
0.101585076698496
0.0977945349979334
0.0988775659749322
0.100238440895619
0.101835587878884
0.100903921579092
0.100145192540875
0.0972952339572595
0.10085977824953
0.101760944023341
0.0979403721754981
0.0973950647473361
0.0979089173686229
0.0989097260134792
0.100172308277779
0.0974528549397752
0.0980398126113725
0.0987801726161881
0.100426335240357
0.098989542631738
0.0961652212800876
0.0977191471043269
0.0970604674046192
0.099801910889978
0.100621559502343
0.0996414290047923
0.0975526639375891
0.0959084772145425
0.0981765465440131
0.096423572836564
0.0945037776671394
0.0955771734022706
0.0968267887505565
0.0963796031345253
0.0974389393731876
0.0977794916678152
0.0973295188478035
0.0978824485998319
0.0941810946524929
0.0971295265184962
0.0962820959316962
0.0964178996975832
0.0957360595213977
0.097039980365636
0.096457970326192
0.0947506909002294
0.0937611309475295
0.0962867844693293
0.0957342617921667
0.0953984301314547
0.0975082063795884
0.0976861201151657
0.0941706165294032
0.0963252844632558
0.0950650898773207
0.0956976323014579
0.09488297487441
0.0928872733591438
0.0937825251365883
0.0938015500460064
0.0945871632026173
0.094370856505203
0.0930682908171281
0.0960387671751788
0.0948824864311077
0.0930716340842901
0.092081894602255
0.0918600219243381
0.093926631932939
0.0933278997558279
0.0916380084412155
0.09344840368728
0.0924640669502
0.0909058245756832
0.0902426517965036
0.0930130958119857
0.0983103875088679
0.0958859822668758
0.0925549384055889
0.0913150828804115
0.0919427276139456
0.0905616447226956
0.0882597228986115
0.0921346363594383
0.0915238486886118
0.088362016375091
0.0910929686276444
0.0911383342644069
0.0886421303240028
0.0911417686557604
0.0882553499976715
0.0878581654189169
0.0874165608247658
0.0872689856605174
0.086342057597687
0.0859475219130286
0.0882726169893435
0.0864783349546768
0.0868206555173806
0.0881799803079316
0.0870994310962111
0.0871590994282654
0.0927970104856504
0.0890631794454412
0.08544627629943
0.0876164259564969
0.0814615492985301
0.0851572438121809
0.081281687142864
0.0845475947610038
0.0812761656896946
0.0837962968267409
0.0846489767567605
0.0832301635926208
0.081340975419613
0.0816338583052081
0.0814329587788658
0.082288011252504
0.0813885437603473
0.0835010298410907
0.0797112862502766
0.0806363315002748
0.0801008610510811
0.0788713248486646
0.0795337698787827
0.0823378132997493
0.0804436820691012
0.0816374410586543
0.0828741884554511
0.0942957165526327
0.0816495833385278
0.0807355257813949
0.0831785602253894
0.0838107796996749
0.0792141209912061
0.0802875828634522
0.0778397024178701
0.0791426426471527
0.0781667363778964
0.0785825597564359
0.0775385085509031
0.0780632526106776
0.0782281101609948
0.0783797958180981
0.0794625667023906
0.0799712305582043
0.0791501771933245
0.078338189389445
0.0781980496638387
0.0774414074645931
0.0766952177811667
0.0781967393528406
0.0758776857014054
0.0779411166776932
0.076188891515587
0.0860666848760163
0.0818175709436191
0.0762934614928785
0.0766610957264648
0.0747965358617945
0.0746632687610446
0.0738195515908638
0.0764295267529152
0.0739427595911526
0.076716369127873
0.0761737581171656
0.0728450312250717
0.0751269785989778
0.0751271652482579
0.075843321706755
0.0735936846177795
0.0740931786064789
0.0747890881602309
0.0737075405675563
0.0754937083253431
0.0747169080560728
0.073201290869011
0.0732664279165917
0.0748117372840368
0.0728833785308248
0.0755710459651337
0.0752673915167749
0.0928611412199817
0.0775521579368283
0.0732825646446957
0.0724096475179755
0.070451622477713
0.0728459265556595
0.0692730473063538
0.0717441425711721
0.0714989960886499
0.0720916599014973
0.0719775625159712
0.071859635793037
0.07129308198666
0.0729147028114978
0.0707447378480912
0.0702667557242947
0.0730770176091604
0.0727079478367383
0.0717764849889705
0.0715426282077297
0.0724288180132899
0.0838948155918194
0.0808742952905726
0.0709939638020105
0.0734532126202801
0.0735148769021886
0.083072622924633
0.0858308579728682
0.0639039471951535
0.0744641243472328
0.0654405899024658
0.0713276234319666
0.0667771820517968
0.0756479818698429
0.0719276102913993
0.0798975145809533
0.0705307067582672
0.0768039405574078
0.0698409311236355
0.0711714157492428
0.0681364898735832
0.0734254922223165
0.0710232855598589
0.0695699174383551
0.0704342179918745
0.0716284712947157
0.0682010909054442
0.0705498938625089
0.0678830162404666
0.071967502169937
0.0707870692043298
0.0809136547327284
0.068261699533606
0.0713410399723038
0.0677239543015542
0.0706176777499037
0.070962049425574
0.0891266749439997
0.070025553516276
0.0678124249556301
0.0695266641351915
0.0721329522192323
0.0707511826422208
0.0695728625091552
0.0699303926853644
0.0709422167466613
0.067493952308296
0.0694031991687029
0.0694075859991263
0.0701117349879351
0.0684389356945032
0.0713097119230744
0.0714705504369775
0.0681949196105035
0.0706769585696413
0.0709412455336063
0.0693524361333112
0.0728519735587995
0.0803952546080772
0.0971448575859923
0.0760625363705244
0.0824704711391655
0.0723269683080771
0.0727699550281892
0.0661915459495739
0.0728808134173852
0.0664496570294273
0.0725969200359608
0.0658437772345237
0.0711891340841786
0.0700755477974157
0.0707096084458934
0.0676017867228256
0.0709095652420695
0.0650975396674599
0.0704691764882225
0.0674495864988531
0.0684946681395791
0.0681202677630535
0.069426794092646
0.0680144134262592
0.0778831122978245
0.0788973878070896
0.0724457946163324
0.0748666009296117
0.0856957421382218
0.103240035859209
0.069754167781644
0.0785128384618816
0.0716429170998939
0.0682133884845556
0.0697337301154251
0.0736610835081018
0.0726500404643412
0.0719402436629583
0.0693237685351964
0.0697956303331742
0.0715468217905683
0.0711087072460662
0.0692176542290391
0.0806593920884738
0.100481761220698
0.0851833138283738
0.0738716410711228
0.0752758651684746
0.0770379146677733
0.0957291054005195
0.0747945540239745
0.0711114764259815
0.0805319758401492
0.0683644472794596
0.0723083018454422
0.0705547881443613
0.0730521325516489
0.0750898688827441
0.0774164652979905
0.0680951968446121
0.0715085467854806
0.067699106120692
0.0759349223239283
0.0786040026704917
0.0858906448996008
0.0851340928120905
0.0734931328679464
0.0755625452970593
0.0802443357924432
0.0679140607572805
0.0771401946094162
0.0720109654872338
0.0790093560379503
0.0844683368021784
0.0900200225040081
0.0796622983317352
0.0903476373831051
0.0854666894902522
0.0733008878926415
0.079833960810175
0.0904873560174027
0.0764456047984686
0.0797145078717809
0.0766224509986389
0.111600487492635
0.0960567265736455
0.0970684376340583
0.0783708807577536
0.0779598050165072
0.0793916126734055
0.0757524462000016
0.0822357247391892
0.0921673330413619
0.0864607221419944
0.0716230958544133
0.0830068299201479
0.0841473395773578
0.0945514783985001
0.0796907237226948
0.0864512241186997
0.0801779885616518
0.0894923484815272
0.0918392790323333
0.0913321232918045
0.0812816301737399
0.105348563210732
0.120784419694975
0.098726439451738
0.0908857929119552
0.0808396110455566
0.114900155350225
0.0997957687415247
0.0815738995500459
0.0861380160936602
0.0823397675539532
0.0858918512495942
0.0896258781894707
0.111471836387265
0.0973975776275789
0.0845970250423863
0.0935438707986901
0.0901870057247089
0.106835615322095
0.104116966301613
0.0875364274000094
0.0923671154758128
0.0943872187073802
0.099872975633791
0.122403169895248
0.12128362775964
0.100136495288916
0.13354855073648
0.114052795807588
0.112385434394488
0.105043880029363
0.105441088812433
0.114231485570547
0.119969748210963
0.106090276915376
0.10039884865244
0.117130283030393
0.130294020534428
0.111411528595424
0.1100377948867
0.109826124583828
0.106955987820306
0.149971738535839
0.163176108004597
0.140174005599524
0.119707983089388
0.122485557055374
0.135566492781991
0.127202105531625
0.115887401142346
0.119481186214142
0.119060167562323
0.120477715365534
0.123333620109302
0.130889110390571
0.131082018094878
0.131620475244887
0.128176863246449
0.131641668977638
0.158653850338357
0.182367607716983
0.172227955179129
0.150975222281746
0.163494831934245
0.170111271422331
0.144074159971293
0.143940323183518
0.137902375039529
0.154641803801772
0.151226345468573
0.147697536230033
0.153277333172058
0.171659505611084
0.173141402570592
0.167408774318626
0.176238698088461
0.166992412691209
0.167163207794101
0.185118073466641
0.27509086265701
0.218295998116646
0.180336223950809
0.209088682347409
0.185241917319132
0.259799593828535
0.2116650415072
0.204415266892739
0.203517053812662
0.20966933262384
0.216162776056392
0.230367175740849
0.235800317237786
0.249534607166702
0.239348988053698
0.249266637749903
0.264257576538473
0.358754108811751
0.314175281544626
0.293505845422383
0.2771648502677
0.304218904646072
0.296288977176747
0.303185617264345
0.300513846287929
0.310902067353335
0.313899336152144
0.372126823281491
0.333515160588445
0.339112221796422
0.354165385311944
0.373241450467997
0.359639562709709
0.395713457131278
0.404607676582349
0.37856413783626
0.386542711448797
0.395694890191167
0.401449521235123
0.403606374437588
0.43109126245342
0.440927565546531
0.42265421032911
0.430156376238154
0.431451712548489
0.445624965806973
0.443826099472418
0.453488468768467
0.451378205822441
0.501849774918602
0.52002926414119
0.626023777429602
0.504611346544252
0.47299886813138
0.471332964731445
0.480230490019102
0.510135960657406
0.516580629302689
0.519854121420247
0.518653291670629
0.48324975575331
0.488464032749776
0.479084315406079
0.489723373337241
0.481650490529192
0.495537013770177
0.495985585578479
0.508611047652094
0.501150382753092
0.50262125238088
0.549272433416079
0.498285325407607
0.479030931252099
0.48638309479737
0.48317724894106
0.484195666676258
0.484495230790423
0.50384648541269
0.498677638195603
0.483191010164148
0.468920269914718
0.477964158671643
0.491674995336151
0.494618601477835
0.459735086891364
0.457399900396511
0.449323197744977
0.445135469948425
0.438988793000012
0.483621026493466
0.481086719358511
0.448114820560549
0.419514841898144
0.431749850704002
0.418013038660279
0.430592767211272
0.418365737403285
0.43036811548344
0.412585917293273
0.419125803714137
0.413904536540168
0.417284447971827
0.406705925385464
0.4152679136795
0.410670077645835
0.40912827507376
0.402889504698637
0.405056910929415
0.403608356390048
0.405551308293665
0.40187387650962
0.407176469162539
0.397256200622096
0.40897441992828
0.395999057998798
0.394684435610045
0.400340103972413
0.40138163521147
0.397542841810741
0.400750978904991
0.394671893197601
0.400095784619642
0.391022341386699
0.396865913958797
0.393526661523907
0.397403016257607
0.393644776312161
0.395219366008825
0.385870556209576
0.393110095015273
0.379250479489503
0.393725481789769
0.389443177304926
0.456164311026201
0.410827360962596
0.385211088022693
0.378378891170804
0.383732189246544
0.374725817485761
0.376214558728169
0.41017423225963
0.395711195969022
0.37464791274525
0.373354610262801
0.357803687021686
0.382825649281856
0.361505664691937
0.356219398129736
0.352890503623398
0.351936184605578
0.400405596103065
0.431942239131156
0.419213304414177
0.435997601529951
0.360802167888888
0.346379430152712
0.363631435226237
0.390373969766482
0.351451749366633
0.343975477668964
0.334540372226983
0.379709661970697
0.348006236743734
0.338733283892882
0.330355036640676
0.334798433264495
0.362846024960427
0.365785632289608
0.345907190756887
0.360028791687506
0.375787196874916
0.351842131156159
0.390322353308513
0.397947965874104
0.343886485621056
0.315966535416586
0.30908330455729
0.30942263314143
0.31955769537085
0.36606322008646
0.316571930273792
0.315185262190926
0.293805895517733
0.299687733728666
0.302628466150413
0.317738389314085
0.301543578374856
0.314692429652872
0.326835553822566
0.284602848103877
0.303995173789431
0.30828400982443
0.326686446247928
0.341683472777261
0.286310717450084
0.27818768271645
0.318012578226813
0.32379326167084
0.291919632929676
0.290924039833926
0.262754657332364
0.282070434673436
0.279728559243404
0.267010295130678
0.278777220569318
0.288318757957571
0.289839565013172
0.330288728488986
0.34153849668474
0.314659628684933
0.263697597478657
0.249104241907349
0.250456260943097
0.254708905424843
0.248236354770106
0.246386261799456
0.281161664075571
0.261528108184379
0.254150073672251
0.304278545441113
0.265612395634218
0.252737660657154
0.255001191098831
0.254998237535531
0.257767730656056
0.295210936402042
0.308791651485385
0.284517081318587
0.284160636288917
0.300467846853738
0.279977402898965
0.277508835208507
0.272309447871136
0.286386223660997
0.2928125143333
0.306037239671627
0.295208776896683
0.303684779042256
0.307416094184906
0.311421673988908
0.344972881629454
0.349633721692534
0.331411333267324
0.376724761399448
0.371037853273677
0.406524349114787
0.370144734081374
0.366966392248465
0.365049464974622
0.373093752578385
0.382391737467711
0.385184831599362
0.398299506351379
0.431253772750827
0.393435203773765
0.406352302799989
0.400389707431651
0.410835005285837
0.407899692338624
0.452379119946098
0.442698068090683
0.502327986423767
0.475904618279615
0.462008466793223
0.437626320417879
0.434623554730522
0.444685340043287
0.448135070076936
0.442938435769095
0.444624415324279
0.448974177387246
0.477203820616823
0.449323146586257
0.457166663473154
0.45484375721464
0.457558621692166
0.455947389763243
0.472365007505426
0.46171315119567
0.475324827844088
0.478884065471173
0.474405464601623
0.471700009145875
0.557135199454177
0.501178748754243
0.48942013472086
0.487461103640696
0.506956123390794
0.493040681074976
0.506426730454225
0.527735730428938
0.524847770607415
0.517726194056954
0.518948584937264
0.509525038002762
0.525895926000218
0.537661319972277
0.562602720988964
0.526869200610653
0.55108227242555
0.51572248267168
0.594866527582438
0.578321715716276
0.562686253212768
0.568236040839594
0.563410603242335
0.551562200151547
0.557803886972338
0.555205777383417
0.56873639199398
0.559295234595387
0.563226153770276
0.565187175042594
0.561603333303171
0.56790199094785
0.55674975070238
0.564375626219019
0.598044808394531
0.563645601243419
0.568172771270882
0.563276065302708
0.565065028827636
0.551015450112568
0.60164403539601
0.588638311162643
0.580018495488291
0.565355930598592
0.581820190011428
0.595446711465331
0.587297589993808
0.55050905102873
0.562039005034383
0.560250699128605
0.570596369290915
0.555797922272683
0.588702753625575
0.597990212781379
0.58011905674314
0.570797532322565
0.573577915778306
0.574700446392299
0.585146007153015
0.577581857318201
0.587801656203975
0.590946249363924
0.598849040067617
0.597918604641779
0.595845513416215
0.58858920453313
0.606700362244238
0.618604129777191
0.613178354147646
0.591112667354619
0.598276596548629
0.594642046977474
0.59080311896464
0.598734126935257
0.59709840900744
0.583553777612779
0.585987789968304
0.572571595703346
0.576747450079874
0.592892021601044
0.572782183418863
0.572456115469964
0.557857629678892
0.552737744918874
0.552814374452773
0.547395926985223
0.536056322258049
0.544841891833968
0.543102365377098
0.529322081326503
0.533763092616623
0.52346710882496
0.526702109951969
0.519795493632569
0.526136392571881
0.525942634609885
0.529615515939455
0.520644086833401
0.521407039682452
0.519677858018166
0.516301725437581
0.518545261597401
0.513590945657778
0.531707190527828
0.537694158602893
0.545155479205641
0.527855262209968
0.526495443658676
0.524092914017547
0.506060558412509
0.522253532592827
0.510465042180445
0.522899173852956
0.517655222873365
0.515957249606672
0.508665959001032
0.516348576830001
0.513263351878624
0.514966075201827
0.5079465928302
0.516100296400533
0.511121059069243
0.514662478457317
0.512652094400285
0.522640725746565
0.505845353660041
0.52806139434536
0.51249886917303
0.518497730191817
0.516105983291766
0.517321413255188
0.515422921369848
0.512973905528808
0.520420694975232
0.517819194016353
0.512642965890029
0.51652765022659
0.512609695652236
0.51181205929225
0.502951609355385
0.5080421234905
0.506873214634396
0.513394235661904
0.504983420962779
0.501564592392308
0.499590651562969
0.496561670290504
0.49252612456326
0.485394542034145
0.481724032891072
0.483444984721484
0.479319222425998
0.475525249879107
0.473650483039221
0.46081643872247
0.456960374175268
0.461265107202387
0.457297585301027
0.454899801277838
0.450188153879781
0.456028829632425
0.449550459364541
0.451574677709061
0.446181816003311
0.446294949651491
0.443978187675422
0.445552943148766
0.441684592439076
0.44249445012368
0.443122601347013
0.446219216732277
0.443068410195967
0.447527039874442
0.444027301602821
0.447155649594678
0.444923148636002
0.448432726646134
0.456430167333998
0.451801097123934
0.454552618799193
0.458307241227622
0.455828118096665
0.456818884016874
0.460562049970384
0.459390300684627
0.45631354148626
0.471092559526394
0.461345987300165
0.468776074838627
0.476601744508922
0.473467623054359
0.470958660724758
0.472819039893837
0.473681972431958
0.475194878016842
0.467157034292901
0.470264820232122
0.469922575485438
0.474103357472098
0.468645838805771
0.467076093870165
0.46501466233113
0.46444245891709
0.456821251480122
0.4627777121468
0.462552603923655
0.456416336536557
0.455257057056748
0.458015027743895
0.453132386594196
0.452855871867246
0.452191150260268
0.447376610676541
0.448617446392663
0.447044474859392
0.444458818978185
0.446387278010081
0.441398821317823
0.442414980254969
0.437476920078613
0.438716570447327
0.437035721518856
0.43656896418765
0.432455067932268
0.43846976287273
0.43354572162734
0.432911950786372
0.427667491683148
0.430311980581205
0.425546313827126
0.427002597350951
0.424690791282699
0.423484886877709
0.41928827908219
0.419209738039692
0.415049124142791
0.415998321298239
0.411389371163689
0.408462474296447
0.400523546188077
0.401053503261287
0.399943809313716
0.393614184305865
0.389675985213333
0.393314335867488
0.387919517876606
0.38499592342697
0.384663813474014
0.380515203960749
0.381637391981554
0.381502381524347
0.377435592878339
0.378876047802559
0.373714016471173
0.377807148055184
0.374987874329648
0.375335571075579
0.369741621683135
0.367203566030422
0.364719664921845
0.361396860572871
0.358377800843243
0.352880805690344
0.345655767809581
0.344527338368358
0.337401384340918
0.335406887708611
0.330593992507645
0.331132105982693
0.330291718390012
0.329966015539868
0.331847089184265
0.334525797596179
0.338713260873692
0.343857183239803
0.350912750587703
0.361148931790274
0.370559494177393
0.38335006711844
0.398036913768679
0.413454542746491
0.423630975458356
0.438916910835013
0.453597622613291
0.469045462028814
0.481697440880636
0.501824415506442
0.513373914235155
0.530446633447302
0.544730218414115
0.55840353858042
0.574556578646205
0.590440429479296
0.601322442299269
0.611944817094154
0.625611548954977
0.638341687307519
0.647190473650506
0.65725220431657
0.669860236975285
0.677685944366678
0.689292378928074
0.704965979103508
0.704752189553309
0.714622736969139
0.712597100069471
0.715959540870887
0.730658914655205
0.731786036763144
0.725378395854203
0.730602305383158
0.738170735353604
0.736218403315572
0.736423709748184
0.736996828998435
0.741391274717609
0.73966332814252
0.739518402252746
0.73876898478987
0.739589420315938
0.742420140493333
0.749386814839304
0.745151203189592
0.758600488158009
0.763350033147604
0.765117554853341
0.777214610900375
0.776197253397846
0.786229662933571
0.789404772557096
0.794763037863873
0.806811074034497
0.812049461284821
0.82403222530637
0.834191404409601
0.85694638418268
0.870599203472502
0.885738672115434
0.875633708279086
0.894402482453952
0.908333396585236
0.913874542744284
0.91837537955962
0.918484062389106
0.927452290136323
0.925312013428998
0.918473831727401
0.934458571945865
0.931224126978882
0.927718527670893
0.933544564059676
0.912996434109338
0.916928065049761
0.91587131673304
0.907539166489195
0.919514041434889
0.918206683377869
0.919268788707247
0.93264981168484
0.939280244778731
0.957938815122273
0.975193454595917
0.965079039689559
0.994833652549237
0.99902756747946
1.03045592695959
1.03451389140013
1.05844535029252
1.07730946665163
1.08053383775583
1.10111423373337
1.11926189008867
1.13564688998412
1.13819520573055
1.14309459157783
1.14367716690479
1.18905757728721
1.19314704060996
1.23062901041013
1.22964285712946
1.26607335894843
1.31192921213908
1.32093831646151
1.35180295624492
1.37313261447577
1.36363975685726
1.3580123365375
1.38199762041731
1.42219966332353
1.49079380247988
1.43993058809273
1.50015540262805
1.49740427600294
1.50256085311658
1.54853745987609
1.57289621183351
1.62236332385608
1.55205031752687
1.55729761831308
1.5134911258071
1.5724730741782
1.50398251416036
1.57921938575109
1.52145852932227
1.56195214041816
1.56633695736386
1.51804878202399
1.52715161803523
1.51899686403212
1.57606700555342
1.50323728908061
1.52510672207583
1.52787542771828
1.64033051599645
1.66132006290412
1.64729623150815
1.64487769577925
1.6826545745108
1.65253435055756
1.70914838209415
1.71416616174582
1.70149376024453
1.74500235237538
1.78360380555841
1.71726452037367
1.78031128627617
1.79697475111845
1.73542902736771
1.81476832890299
1.77160180647445
1.8166802706846
1.86430392512385
1.78630724072146
1.876161635459
1.95018698278107
1.99375814210002
1.96678137873595
1.88856599338719
1.85578026884172
1.88430880311339
1.84709809183364
1.98087884465179
1.87004069086149
2.01364022935647
1.98549378837554
2.05096952895435
1.80684718303069
2.05228514294963
1.87921883869941
2.04417158884358
1.84244420282992
1.89363445631018
1.93886843083916
1.87989090729006
1.75332126283024
1.78156555207998
1.76826464173933
1.86811881800614
1.76440789683686
1.69455356944052
1.69537116883277
1.72563596018932
1.61547202254717
1.58846901545294
1.55908617160583
1.51371361260298
1.4661022686702
1.48303873539013
1.42565764610217
1.45216572590188
1.43258928228211
1.46294483469988
1.37668821579419
1.41834652386471
1.3775899923473
1.41651720016595
1.32585568653153
1.37860748117308
1.36372425875036
1.33781628184296
1.30453402965682
1.28252455766387
1.28282047532716
1.26816492863131
1.21796896658331
1.24516812907571
1.21208197383144
1.21606182572113
1.14788830511428
1.11737503571428
1.08202139499555
1.05387706266981
1.0221895966965
0.983978100867094
0.942271350586329
0.927444538157746
0.871830134803969
0.830478311944365
0.798714180359213
0.785046040343123
0.739636114771286
0.71232946138982
0.676609588916027
0.657746584907416
0.632954891706509
0.614489122179314
0.586352162074315
0.569635633368577
0.556320226785473
0.543249049883915
0.531067070869008
0.525973249814486
0.514371014791842
0.510680548833029
0.504230291501526
0.49968880452894
0.495208454704385
0.502022623387544
0.488656317233577
0.493041677007013
0.490816451095425
0.49285819767142
0.489621101990667
0.49223093098262
0.488786135261404
0.500702861011144
0.495926872574266
0.499156167592052
0.497051661015018
0.48980186450307
0.476071362771274
0.485071504388501
0.476273323489034
0.475922894582439
0.468813713358755
0.466853786264149
0.459220658899333
0.45868862847209
0.456090824897569
0.453158572791938
0.455762124238614
0.450820036743765
0.454735062812604
0.455221988649921
0.450396241195529
0.461797223063868
0.46001520066035
0.464078415985028
0.463314098028304
0.463364438245266
0.465178243649412
0.473453735709399
0.467472601441017
0.470550075248389
0.47345709622658
0.480524904484652
0.476139738915316
0.490890911950499
0.491239589432642
0.483862911889154
0.485193390306839
0.48505814798292
0.490758076239101
0.49414268592091
0.48502834967947
0.488041595775892
0.498623684534083
0.495769383691428
0.493849555596576
0.49975335348161
0.501268816324307
0.502074788279629
0.519113742866156
0.531131677180153
0.527275873611574
0.552741436004679
0.559666108348684
0.569265399475024
0.578769395067219
0.612839983227512
0.615222853972525
0.621363283546941
0.640052963059397
0.639705847227266
0.633184112975615
0.637371784151663
0.663697991888009
0.645217883681715
0.616391960704963
0.62113047607318
0.60332119186556
0.601525724767692
0.592992311017853
0.594508848177818
0.586218010268394
0.57623061390482
0.576169867352937
0.584808141685763
0.578784656571187
0.581172056070066
0.576931842999152
0.58836739636657
0.586189679810626
0.582105859891528
0.580780243792825
0.583513016873823
0.562384663815781
0.569481106837
0.561628748665664
0.553125445823457
0.539656854100576
0.544215692686612
0.544608444156478
0.54140782916866
0.530062761661671
0.526360211113522
0.523170298159374
0.524739212353587
0.521488242401582
0.52321511758845
0.514393874035552
0.511631954339002
0.500614795113211
0.511163875626509
0.490708117660438
0.499296825803871
0.496914895561986
0.503345624766064
0.495567733952265
0.509106899014084
0.491025465130158
0.482217598990572
0.466093629962992
0.493091186702059
0.475600757508927
0.474527725117009
0.487252191376664
0.478585689678987
0.473326829396476
0.474867365824482
0.453405775666972
0.458351461078125
0.459697935290799
0.454341885032058
0.457445393276117
0.456025901677278
0.455790691644546
0.447009846029554
0.462184301818488
0.459045386632306
0.453537590058082
0.465166654901622
0.456634470486265
0.460048545760991
0.450206656032388
0.467090715997507
0.455880186708273
0.463099519883186
0.442718808354931
0.449491945651213
0.445795196493409
0.456967014158769
0.454475643870607
0.472936518681757
0.457231862785425
0.460722083623207
0.459068803829439
0.466169886400268
0.470513246170368
0.466826995903998
0.466414064436504
0.482475179898134
0.484002243819364
0.480476414228476
0.474750038945278
0.504244238131786
0.498923643915083
0.493744576771289
0.513981240477327
0.510539663263358
0.508376286787543
0.517593112300172
0.515099554759019
0.54664591283725
0.550886325307787
0.570823601502294
0.575405837184827
0.573557018097366
0.571131861286453
0.612047135107038
0.645701369483441
0.671892902303553
0.641583439281301
0.650524828881614
0.671957328184962
0.694606356863473
0.735934333144533
0.730130911140467
0.708482823831428
0.725701783930679
0.779229837405918
0.776240781928809
0.740075129036961
0.781971885326109
0.795760426632284
0.808950059640697
0.748771178432232
0.74449852393303
0.728441850038064
0.751959893362201
0.737806398353695
0.76119811375745
0.765135479388437
0.77717091620871
0.740494237422285
0.779731064979043
0.734870721968726
0.752613255663741
0.722305443508781
0.791188255830425
0.754561039191144
0.697119987332672
0.721374793064699
0.782780536070065
0.732778125671693
0.705265144867807
0.702175075734102
0.690436109755768
0.663303971755664
0.650754425506087
0.696782947664466
0.695464189552437
0.696165423765016
0.671934215129703
0.654093655501726
0.734113918557412
0.68172506023393
0.677931844863831
0.674059022352237
0.713926402603401
0.670673264941984
0.696001970595153
0.691900766587691
0.683239894706999
0.703073875882287
0.750340719455455
0.710716721474111
0.73011572362142
0.681507384512444
0.685198442098633
0.642600402011756
0.66577449531714
0.68883441531259
0.689958429212818
0.702862727027871
0.707340381913281
0.689193739753703
0.763847322220911
0.727900978904536
0.759563230886143
0.752473870891353
0.759016720128493
0.714247805238557
0.794463659938848
0.806251085781053
0.841330727479934
0.696576910844918
0.729577381065565
0.694353162244116
0.754628579712773
0.70564545612322
0.798485805871867
0.742432886162785
0.873688210998075
0.810513391036142
0.889201402712417
0.827882012650563
0.728919583094435
0.764526938041804
0.935443664861177
0.858231408188114
0.868187810887013
0.863549924997544
0.913070595028382
0.956735426284405
1.04979670346853
1.05387859393699
0.922289573779863
0.840439444818569
0.985015030276318
0.989480014989023
0.996521483847843
0.970232337976875
0.926536185080395
0.832670836373482
1.07733172343014
1.16110964705793
0.946646210561681
0.796358272106791
0.891568285242375
0.991206142121637
0.835011352651707
0.871990881587719
1.01913812306955
0.767093779008018
0.947081055801627
0.968015176910508
0.856638809943275
0.823092492766037
1.15088311556151
0.933224993699042
0.898487080658727
0.844608965081793
0.786703502730094
0.849748286470862
1.06782493513162
0.939455940282436
0.955569077553105
1.07710653116426
1.2620239585274
0.953684698782536
0.79422584097439
0.82534809302953
0.821328977246054
0.72779937006783
1.17340868149724
0.792517972160957
0.968323862550763
0.85287433405443
1.02197237077555
0.799490500599289
0.991618750248272
1.20624531648235
1.33466207092909
0.780129820485894
0.748004094412382
1.16284856308744
0.992640719409884
5
5
1.10151133087301
5
0.916463017330249
1.04713686780678
0.807623145203809
