3596
4000.36533379555
650.420452594757
1
2
2
0.0759227763682131
0.0808159237665296
0.0666412682630979
0.0856243685398432
0.0756140594800498
0.0836992408362306
0.0803429162142307
0.0801923978603501
0.0772286484131918
0.0803498722125947
0.0769302184808819
0.0899135631489715
0.0713478559553428
0.0844030417728909
0.0747042303355114
0.0740294437547103
0.067650451948184
0.0750393673447798
0.0751716108198781
0.0822713886445329
0.0733059195986825
0.069286356188067
0.0678976876740981
0.0721787362718459
0.0718476912676495
0.0844520948084499
0.0688128214701686
0.083139925297822
0.0772271449098946
0.0763621440954159
0.0726193262596419
0.0841280165114316
0.0746564996319815
0.0791828759286814
0.0755765126813343
0.0885866434115745
0.0826234181021965
0.079468243581771
0.0719633562824494
0.0829741533965155
0.0836438091220965
0.0843805422082244
0.0776013415419083
0.0843825838856247
0.0727041046656642
0.0827800572416687
0.071228099694288
0.082198950831835
0.0789920875205929
0.0763822535491887
0.0776734415103758
0.0755232234215576
0.0821523112717611
0.0935730142898524
0.0816631115932872
0.0926022453577451
0.0759441623951592
0.0794223777575666
0.0746971115045753
0.0759169325348119
0.107024263739165
0.0893530493112071
0.0757005123861082
0.0811931170980487
0.0633920394102853
0.0817167509295968
0.0684146574463959
0.0727329402282369
0.0740302826151628
0.0767247442311431
0.0645339930833021
0.0964711648436219
0.082385725519149
0.0819715761896344
0.0840062611148756
0.0848551461803811
0.0661938694301573
0.0757747387281621
0.0694305092541204
0.100107610245017
0.0875379928032466
0.0827544863956338
0.0756395645631858
0.0729439576313305
0.0828926959307148
0.0891242169065098
0.0586563467179486
0.08925685990533
0.088766380465879
0.0911887323984187
0.0682650606616758
0.0798724069950443
0.0716414912809009
0.0806295093542951
0.0645239424753328
0.0765543823070043
0.0619289285166382
0.0836945628054731
0.0620709272367194
0.101503845731418
0.0631295919193283
0.118092016923893
0.104820711611191
0.0772777033715159
0.129896658120238
0.0737900873801057
0.0880040415268759
0.115104273822527
0.0930821112679791
0.0746481106823503
0.0650726885840927
0.071677404482845
0.0708145770242027
0.0893619851715792
0.0618009217570354
0.109854773076446
0.0923565303655926
0.0843054310225541
0.0704427150808088
0.0773848514673947
0.0402457987638461
0.128847741101325
0.0930322890925047
0.0881153555152485
0.0776841624030701
0.0715606286673793
0.0553446493054979
0.12596121964517
0.0921132928131688
0.0817477705384598
0.0603422674008099
0.0866897443091628
0.0471062259986823
0.0882913634678814
0.111196877370654
0.0858460841824265
0.0729797562597503
0.0638999383993626
0.10325918531069
0.12364552155316
0.0854951647416508
0.0850705186201751
0.0522478170597485
0.0876501305132132
0.100930018936355
0.0831910966328827
0.0681438884662082
0.102800331568074
0.0766026923690313
0.0805073977164467
0.0612750416244078
0.0714290014145815
0.0821465853235217
0.0873136098274371
0.025781055804749
0.175962314695124
0.096648525617335
0.156118278123885
0.108626020982705
0.0788026470768832
0.0810081610004639
0.0748038596615673
0.069766417995845
0.0655485060861351
0.0746533437923363
0.0635529646392511
0.0871878963569773
0.0886854885983701
0.0632206405290962
0.0819809310496431
0.10981744143772
0.0829942209278528
0.0634580011791047
0.158901301336622
0.0779675163950011
0.0920787501129028
0.101535039101351
0.086169463677299
0.0452100264081892
0.106333515683246
0.0857401842222095
0.0850106145894008
0.0715894207908101
0.0718499102204952
0.0699224066160868
0.105472775864539
0.0706319087467908
0.0791957494363078
0.0632674775045947
0.0672851144013276
0.0755479076147752
0.144582349394196
0.0917891495918284
0.0923570631515205
0.0708781981533694
0.0559222721138434
0.112665087621068
0.0989041650551483
0.0795489239225352
0.0745296811323801
0.0658872163817536
0.0737969124939931
0.0628898720583759
0.082698852910342
0.0423658945018117
0.0545381758590714
0.118809463399556
0.0883871243407697
0.0730772744796534
0.0679076524598882
0.0718135628379212
0.0648482273328071
0.142128013559789
0.0951461386053441
0.0723901712205843
0.0730451504052111
0.0656762481613348
0.0967843985620223
0.0902229186459854
0.076952885895274
0.0737590896654163
0.0778003980446254
0.063117713404521
0.0681060331376178
0.0652201924281577
0.0734279463142155
0.0640261507457741
0.0720158865695273
0.0643189404164139
0.0849439896316012
0.0847060086176358
0.0747860967749679
0.0664800279174083
0.0826174699357966
0.0493088150339523
0.0896618700286216
0.0850043115022263
0.0825547114654451
0.069227861984667
0.0771762604648464
0.0618724070200854
0.0700631586479659
0.0610397204608061
0.0770677783392791
0.0509425510984524
0.0732261852777336
0.104366314680476
0.0779536339971083
0.0707307026026
0.0565852406652878
0.11015730178092
0.0794591433338787
0.0763459277873097
0.0673216704852606
0.0762549894719998
0.0581122786311219
0.0782784253119829
0.107765954917285
0.0772594286597719
0.0677145066237781
0.0947530125253206
0.0757859010606839
0.0805020596270608
0.0572718905217857
0.0694925776188751
0.154435029499458
0.0660660727679504
0.10970115159677
0.132290036501064
0.0825403201393127
0.0985124095259542
0.0672870817154284
0.0682223756898495
0.231712021011057
0.132364594779171
0.079285259896001
0.0800008656375394
0.105252010538239
0.0640786261678636
0.0898216514204296
0.0582028382990452
0.107185874181667
0.0865144002954102
0.163941912980253
0.133502913790567
0.0598153248596435
0.121649426706253
0.0906820538563139
0.0841038902481454
0.0750381008030401
0.0784940610087067
0.0699061060141647
0.102159328168979
0.0828415586142978
0.107510308392899
0.0706069531947793
0.0791717501071157
0.11587857492115
0.0841597796026324
0.0748368994159119
0.0990432008419864
0.08494289656711
0.0706199738449001
0.0770314078831802
0.0710111985261825
0.0973590692727877
0.0562747021031249
0.0697570618425665
0.140671514606184
0.0881888760424056
0.0938491057142601
0.113796134061908
0.0797586547255153
0.078123588315714
0.0697959392829552
0.0770915690375593
0.0767046036723349
0.0698057943314271
0.0692082002699447
0.125503524307687
0.0805436272381723
0.0855940024076829
0.0664529874208714
0.0784056022710459
0.0795645268911861
0.0874010622228645
0.0777889596039142
0.083108477337165
0.081545252295751
0.067281387938276
0.103667439731309
0.11025653380665
0.0594716446198737
0.148416108184866
0.09887653220053
0.0978481165392556
0.0723367040773414
0.0923652481976565
0.0825296259158589
0.0851159548724524
0.0818519224952739
0.0916436032993704
0.082801777553054
0.109894005312771
0.0915162446878752
0.0935493591457491
0.0916251285310935
0.163279991528802
0.149868701494535
0.115112075960313
0.0979406525572523
0.0688213435269264
0.144055865087624
0.105852343939432
0.126615820222282
0.121439256409247
0.0960091835635128
0.115521591084443
0.0847554668016024
0.102818706655405
0.0915416013955009
0.10819068461427
0.0916655294152962
0.111073939232367
0.0961090067364598
0.120015327239284
0.0830691692604999
0.124418236374718
0.142426531753706
0.119371694513848
0.106229164723642
0.117818145186069
0.0906973722593718
0.157771524618939
0.101476560181014
0.203117334657701
0.127840113294769
0.180536744174448
0.153344937041532
0.133015342903686
0.124874639395041
0.119130621614664
0.128835521553389
0.144020609207999
0.12326374637781
0.132594318393064
0.129809783531998
0.145931021758157
0.132606961139556
0.144244034945363
0.132216916515883
0.137897793399772
0.153278067826782
0.143196747810896
0.148784986071398
0.142435177483064
0.162046488088548
0.192127422365526
0.213176814645216
0.160280594144747
0.183899453425962
0.146102368651083
0.155185188728265
0.168761445727126
0.156495172726721
0.175584403479193
0.165884867746891
0.214903883556796
0.180457384588295
0.207162423080077
0.180625920490415
0.166962240566591
0.204880025631095
0.186670676821724
0.19186901053314
0.22367857085085
0.201680346751976
0.190086293770347
0.244483380659629
0.203345718598334
0.206468563656659
0.222025314443097
0.187439722872744
0.210660997566303
0.190283580409677
0.217811074171267
0.189548907380163
0.244364818022016
0.225874007575605
0.225677041336373
0.228790393718116
0.227999260081425
0.221734017789359
0.263634494101418
0.230275870813675
0.251988046909407
0.244836429810349
0.248434984699825
0.241571310551909
0.223131721710095
0.269056022228671
0.262100278430656
0.285716705358916
0.282557317467677
0.242373192675355
0.275415907926872
0.244852793525097
0.265999028221203
0.258055287464445
0.270014446001746
0.271684027855111
0.287008292928691
0.269895600573055
0.294461062709393
0.280368247538812
0.305842079242511
0.282164944587155
0.318255410612438
0.305963613737211
0.300752548546255
0.304227452000338
0.303312250851149
0.338511445665082
0.34501173247178
0.345208460316804
0.353154815783674
0.314111202569176
0.354156694068383
0.32287773035836
0.34495023822792
0.317019504794545
0.364120699260918
0.336029135749811
0.37462139857505
0.361462666607454
0.373386753207476
0.350879928274019
0.389107835274317
0.361970510854656
0.409904890715292
0.391934940540047
0.390340902687971
0.362518495769439
0.394976917493938
0.38809168747628
0.409212030012345
0.392042451345866
0.413338202604637
0.402776386089674
0.429958593058587
0.388030984362436
0.417717466641383
0.408094851215074
0.43942627059491
0.420461635156405
0.435999050818262
0.435945391833711
0.486417336083197
0.440337427347194
0.456919400206513
0.459417092992846
0.479680838555907
0.459233169145341
0.468374828803336
0.472863014204522
0.485550130659819
0.492151366362199
0.495329267189553
0.470890512784044
0.492755196261157
0.470437930086776
0.543969351362833
0.509107303633428
0.522828198512309
0.508412626353781
0.537111792627821
0.51763904789134
0.544093804962962
0.477578531579248
0.532902089213213
0.515706915295082
0.563643926492558
0.525545277960708
0.567667893085093
0.55507230361578
0.616532036615991
0.60873563163293
0.600190736643559
0.556219895821755
0.595353658377751
0.572516119575199
0.588082249867339
0.594840335579768
0.645317268971616
0.585046447995391
0.629826087436989
0.574447026230563
0.607142859621763
0.579934416778977
0.631166469551952
0.60494232016026
0.659896418562851
0.633303790070004
0.678112826195979
0.631217163635072
0.674914633984735
0.652144949257394
0.677775419609519
0.676458363754907
0.680960960530095
0.67861022428626
0.682831221441435
0.679989040465794
0.716464236559578
0.711485906617488
0.722608429183551
0.684796431375821
0.743748326073867
0.70195729349661
0.724224799220031
0.692743995750904
0.746732295570151
0.712707646119867
0.738889641265358
0.723938075958681
0.789397134879504
0.709801407797279
0.737971381478778
0.702444005814077
0.756773252340311
0.743071951211933
0.798447570062023
0.739886076559332
0.827038516628937
0.764635871497448
0.789462122178643
0.746151113710342
0.866470496171126
0.747629530713159
0.765837889833689
0.79938486939561
0.845936246435385
0.772878293610635
0.868890508276265
0.83962139827308
0.837312063264324
0.798269928131088
0.871962772183655
0.812484300430148
0.86190086227484
0.836352418470365
0.828510675436528
0.861200345382648
0.907785405979513
0.824869339298566
0.882178785442801
0.819511844708333
0.891340752090133
0.873588457853134
0.869566497714412
0.843578957628589
0.908652895479457
0.848978710400087
0.912207727729988
0.839770328208468
0.947315268755771
0.913155176264163
0.93830727477089
0.906609728971373
0.913195336600965
0.853161927751972
0.982817301733661
0.959262593676704
0.977214576641977
0.938143051695528
1.03453415634536
0.887551018426419
0.982755384653087
0.911115079875281
0.932272964935524
0.892852133096721
0.991426898494043
0.967478788005854
0.979672025431281
0.990580173512373
1.02230908480061
0.95345098185117
0.968234648157485
0.920664274748171
0.991389544025357
0.948139815031324
1.04394348023535
0.97721314608281
1.05892107838209
1.02950500684987
1.06196751866521
0.960469038074847
0.994352594063056
0.999114071083888
1.0066862825113
0.941244288803694
1.04085483736651
0.954707592813602
1.03784252668881
0.982008285808308
1.13768868826693
1.05519622286766
1.09253777705564
1.0368349511975
1.05296647548468
1.02772542660404
1.07394042851904
1.02877236678367
1.09651052876884
1.07771444219246
1.09013351977798
1.01066694764539
1.06753276887598
1.11219590436661
1.09139079556419
1.04275986311824
1.13682622020836
1.08051972956628
1.13237613013858
1.16150151800475
1.10639514901135
1.05983772132514
1.11274690814908
1.03773217640214
1.10004551109702
1.04767195741317
1.1443305082068
1.08998503528062
1.10130083921137
1.05474603346543
1.12546637592515
1.01969863102259
1.13923575115781
1.02230282808155
1.07408356395021
1.12150643533829
1.20678509990354
1.09952232902853
1.13682110415518
1.10289235716105
1.13852793737881
1.11334376634947
1.12219439295433
1.13989458447652
1.18759744405038
1.1323913893508
1.149206862888
1.10255707828396
1.14938039541021
1.12801777109926
1.16472579266772
1.079931459593
1.19011125548977
1.14777847436999
1.13713030502051
1.07513581148919
1.15638399390794
1.11128515891964
1.16894326574416
1.14508415412299
1.21744842206499
1.14294340398069
1.16617107122994
1.10707706447598
1.16567984852
1.17816374710175
1.15749152362706
1.1917624189969
1.15262242269231
1.14779365963419
1.24345951590578
1.16004692131086
1.21380421879611
1.15414607781704
1.11116839685764
1.12784023312035
1.17280253974787
1.13536819106477
1.21263878592367
1.12935769158562
1.11361165072186
1.08241699562592
1.13656367197008
1.15425578950652
1.22288540253254
1.15011017673867
1.23644587003553
1.12598020341813
1.15331017338817
1.11503160833342
1.25439199037059
1.18324952423565
1.17467770619643
1.14682553319878
1.13380571433578
1.13072701875316
1.11568098963484
1.12223395723048
1.19308426965004
1.14636103734657
1.13801102588466
1.15783419698224
1.21068536077099
1.09318098894519
1.17464141113179
1.18405105429596
1.18777145018975
1.19498909870875
1.17811041352577
1.08785122638221
1.22272121011102
1.11097281991692
1.11941934892898
1.10233939419905
1.19206434553736
1.1026327120268
1.11926483447245
1.08175635414451
1.15349755393308
1.13950680526029
1.16494403770126
1.15193833644008
1.21323577145501
1.1048035853926
1.21131087326698
1.08481775174691
1.0763565073612
1.06067138887575
1.17785839653526
1.10188031782176
1.08919154118943
1.12717174184823
1.16417581698786
1.10829095930061
1.1330557019271
1.09535429028519
1.11999956741337
1.06215099164566
1.13631220727089
1.09281582847604
1.11428688325949
1.15878746940924
1.1724204444488
1.0469297702244
1.12017298610778
1.09645372056508
1.13893780690458
1.11699939282625
1.07741965088172
1.05575620044286
1.07356949631679
1.06459249161253
1.06345853706143
1.05045030078411
1.06643831939527
1.10650356726637
1.06640034446454
1.03365596812924
1.11121720519726
1.04724673505722
1.06250735048308
1.04468886788018
1.05281594886874
1.07638174719544
1.06169278614088
1.02705301876941
1.02867796492293
1.11439464911543
1.10204660063461
1.02650974723878
1.05283508864679
1.0090095942447
1.05609468682679
1.04486068291939
1.02578121214981
0.996681583810328
1.07884419750537
1.01134189690424
1.00645656448809
0.970318038152208
1.00291583582657
1.03011904806417
1.01107061251242
0.996085856520682
1.03147246864992
0.993478720839577
0.981287411017292
1.0001571459889
0.999596187484309
0.955045872090891
0.996286184960066
0.959680227990993
0.977604565849617
0.959894988661723
0.947296181647816
0.943778233864815
0.958413437543852
0.939309634864386
0.985528419728176
0.978484526933563
0.949315133692717
0.942296828837129
0.960366595995348
0.967865420947628
0.953733197685922
0.898056275280478
0.908124295653778
0.939104075052464
0.925539787841427
0.904323991428288
0.908516473837072
0.90040362677413
0.942641744282006
0.941677489481778
0.934670578147299
0.882629575714756
0.901391204489014
0.904573469728865
0.911080130597779
0.875338215512491
0.885309288582762
0.882369821025282
0.889327327264663
0.863945460904128
0.881944196088222
0.852040460328095
0.854298170145249
0.869015999638128
0.853892886450453
0.825332667554664
0.872226534608419
0.867132261646066
0.842860552032288
0.839258072730677
0.873739132068349
0.831054847489105
0.830303653333627
0.792237397801637
0.808619366338686
0.822817290352471
0.798707226407086
0.818704524888883
0.822807577728306
0.790318707937475
0.820568363164786
0.80246805389135
0.803354520264128
0.780147743803702
0.789174546876829
0.772094876478008
0.769688564872276
0.78349534156918
0.788853987838336
0.764159154226933
0.782383561835404
0.754621020446384
0.769438577187259
0.75056449606252
0.759369334609328
0.778190536515193
0.772555090230092
0.726240901053211
0.757984767830301
0.728323563875809
0.721183975402075
0.714005690539938
0.72913056145308
0.726421844325221
0.724669266617457
0.70984793201099
0.726495352770704
0.703206411385971
0.694397666067112
0.694605221723022
0.698555151094747
0.677654843398803
0.690071225502436
0.693718613744525
0.688845861884951
0.675468019144486
0.680538323237782
0.685414712225635
0.676986203248375
0.675768045615518
0.679215091365847
0.661939002743557
0.65893452311274
0.65702524534421
0.65010421854786
0.644249699153448
0.64965104321564
0.638282858495718
0.649999863773254
0.636405148475423
0.629496282077369
0.628290364123112
0.630137143605346
0.607655721181228
0.616450366835085
0.623837483295246
0.621707638396324
0.611448331791222
0.616820655950359
0.616772143813402
0.617647180997014
0.600695802913895
0.596261314801224
0.586548395918533
0.587278061160292
0.590743346149607
0.59519768715486
0.588312946426614
0.584408198614942
0.576072763468375
0.578873720143059
0.576184794063587
0.575287270232371
0.562761123195391
0.56950062936181
0.565367204273197
0.565609187218893
0.557930202833641
0.562502244412659
0.560500760392963
0.552416084766209
0.55317586952856
0.539026260950964
0.537496079889225
0.551189886078866
0.527217580909025
0.542394639250945
0.543649477797082
0.523161724356678
0.536083116918964
0.526198840841205
0.506711602978491
0.521926136671019
0.518016204207985
0.514096914652518
0.516128239900939
0.524853857840672
0.512013695780198
0.508161181106822
0.507068595240237
0.503390353778762
0.505560614560726
0.506808173163759
0.496587754143324
0.49103799405445
0.488115692128223
0.494762893158063
0.486735225650994
0.481961705612026
0.483416366585716
0.480184024667094
0.473368437973543
0.476480928438222
0.468817500067567
0.470065062701226
0.461783316485048
0.475968161956232
0.467524575172394
0.461078377138824
0.458458304478989
0.453613316411422
0.45630894062596
0.449505061496008
0.447209674102054
0.443082307896151
0.438620822368653
0.442695121506926
0.441198259740192
0.443094922054948
0.443556127714233
0.440712362086806
0.435353311164974
0.439581459640852
0.433768185096931
0.431259244226594
0.423230298986194
0.423270669005546
0.418182244282873
0.417060883076318
0.415824694218072
0.414845650469282
0.411440736688169
0.412641110691415
0.405458811037112
0.408500806431899
0.407726396922153
0.400086420895185
0.4049575255094
0.402798161697917
0.40103772642117
0.390683960914086
0.389633709475065
0.394321685016272
0.381627725697435
0.387893515527412
0.384611637374765
0.387979041484512
0.382352715566879
0.383796770589518
0.388847926801372
0.389726838811043
0.372813649878614
0.361969202287582
0.366171662130554
0.370309995631472
0.368001493093341
0.371648512241006
0.369008037809184
0.366898675428671
0.36755782727896
0.369349000350862
0.369145393752737
0.3690877464139
0.361756009277976
0.360484267611357
0.360762402947523
0.37032533267594
0.367137849535195
0.364605770463993
0.355123697525077
0.357002457213137
0.359046172322942
0.354934447577472
0.355412982524231
0.353472076332188
0.357912217517024
0.352169949252603
0.351835744420411
0.360002161470943
0.35253442843933
0.35152822888578
0.344995425278915
0.35329874161161
0.350225745930667
0.355709534105803
0.351350306595907
0.346188228239989
0.34882055123718
0.351744225764895
0.356203755241564
0.364672908219312
0.361790382190798
0.362608407432641
0.360152800283547
0.36354510741108
0.366642967485104
0.360105036768724
0.369137531866052
0.371796266443454
0.365602104901748
0.37172644804228
0.36891093141188
0.375221430532048
0.375292540138724
0.376787095785386
0.379850735939534
0.377194652468095
0.381461467433343
0.382819847520579
0.383494181169198
0.389564903067887
0.385486046760308
0.391795953118045
0.391130009500674
0.390636923311274
0.399147244811688
0.392248257310807
0.401102025241585
0.401014772021942
0.395704015208317
0.404304934395105
0.401142160368665
0.408194005858657
0.409687959490014
0.410538953430926
0.422618988232785
0.414574277758217
0.416363821757293
0.434052454439983
0.427323530732515
0.432307704085031
0.43037044187814
0.430728298310282
0.444121509825347
0.435111131781553
0.435892107342676
0.443509054301419
0.446109986968684
0.450525543718678
0.453866698915014
0.458888418525369
0.462430411598577
0.46560997586313
0.461803768214221
0.463319684327236
0.470937213492045
0.469970174436606
0.4774728264678
0.483298844193413
0.465835464723691
0.472337030223181
0.4824271589215
0.474917996002853
0.476544415433097
0.476504074544285
0.482842886609547
0.480921513776234
0.476036289971486
0.470945949004657
0.473726586054945
0.474496053842364
0.46592286479378
0.4671615386003
0.473171686646444
0.468536132176783
0.470096336631487
0.467042149123003
0.47312974428826
0.473776457117568
0.46127524839364
0.469863351270398
0.469749340451695
0.472928814302662
0.463004115103822
0.456878670822673
0.47112172825532
0.468569245846632
0.469522354485702
0.464716024803637
0.464931999929673
0.464436381660552
0.471335932303773
0.473020422795092
0.481138642933197
0.478452733522364
0.480360854535063
0.476737635596581
0.458799153938753
0.470307079532471
0.477595883959644
0.464274130271061
0.471882318833325
0.47720368415994
0.468877900651234
0.46817001366576
0.463700876449088
0.469664765976216
0.471114499738868
0.470282330893561
0.470438294011371
0.462921244917304
0.467913411804445
0.463154025099932
0.46290610525609
0.46731653284229
0.463037474282977
0.460333243663621
0.470855277216886
0.458095673195674
0.450211396381018
0.458997094319003
0.451319523688934
0.445084404259224
0.445644567348494
0.439739444922093
0.44789493796005
0.442193337094706
0.437330794665463
0.431469541347251
0.433821972410388
0.429492881035442
0.427421122386114
0.42037924743596
0.418208958042974
0.412910761825815
0.411561924719586
0.413375635256086
0.411855023318781
0.404070249117847
0.401300790960611
0.397144262004372
0.397037992152809
0.385259467922416
0.386431585965595
0.386062986959613
0.390609863376137
0.391032399038721
0.380050517456556
0.376147273786204
0.378597116027337
0.365141117685219
0.374397862945193
0.370585308705343
0.36534716328769
0.361924243791367
0.358122813329579
0.35339342831599
0.348326429590325
0.350364685170933
0.350628533426475
0.34849172504651
0.347784149292675
0.34194561982356
0.343504352036209
0.34342091587867
0.331693866577051
0.331477201546239
0.336969120682699
0.33651300323257
0.337369280614183
0.329796913213029
0.329238155672247
0.32820057498101
0.325132395409382
0.324003902062239
0.327310264327225
0.318162261053128
0.322376804261187
0.317666454801723
0.314401242880777
0.321124817415332
0.314550113140625
0.311345296441916
0.31509541589404
0.305130623546455
0.30630740409393
0.306506993278835
0.309988426765475
0.305431294976983
0.303860708338804
0.30201497629873
0.304327362871276
0.300040971476473
0.299547879594891
0.29934996867858
0.297425753916826
0.29946967885786
0.292580643333032
0.288166452307441
0.295853099633045
0.29132435014223
0.288555031899091
0.281520961933829
0.287128267694278
0.286064526004191
0.287752402417922
0.28760067399829
0.286099303943505
0.282094819785807
0.281757106040538
0.280681662183231
0.282053313942852
0.277617866953319
0.283914296351679
0.282693831608932
0.284491674043685
0.279749805826849
0.276410794744296
0.271690315704194
0.277204195492658
0.277235170590937
0.272559716258907
0.272513363294118
0.268409688023075
0.267070625035997
0.269969724892573
0.266437094083479
0.27463857440223
0.2696014440483
0.271092283389259
0.267025218407307
0.262585006875176
0.259828640571708
0.267938116122576
0.266871837516847
0.267032515796808
0.265151175533812
0.264697664532446
0.26579113426232
0.262340389568337
0.258480485381609
0.263177750085734
0.261762512425747
0.256684351354279
0.256725191363263
0.261728303094788
0.258360645397551
0.252987091568307
0.255762829411429
0.252027452854728
0.250809720209426
0.249441201478884
0.253277250212341
0.250202136130824
0.250882348739038
0.252962795418317
0.25136869487263
0.248208363842811
0.250381845901153
0.248863654728136
0.249897722075602
0.245342055374044
0.244960555256523
0.247947094932824
0.248707099560612
0.249488722351188
0.246888768329398
0.245875873182992
0.244786067017993
0.24983150632133
0.243208324382416
0.246279682967168
0.246016646072987
0.245291196377977
0.242003595451874
0.244872291644788
0.243739581322474
0.236043331189828
0.240748665580759
0.241924388292812
0.240495249180642
0.239740893568967
0.240867367242555
0.243674829684439
0.240110263868277
0.244725316731612
0.239999246745412
0.239352208067421
0.23344164752606
0.241947777048865
0.240304076544451
0.236528557853028
0.239386216070395
0.237465844807332
0.236993197952356
0.236922232896686
0.235460702412532
0.236001414521215
0.23579450483301
0.236489020724246
0.234488527718477
0.231376756988504
0.230698988366101
0.231370568693507
0.234401307618325
0.235438601120849
0.22897205218302
0.229116020214796
0.230897796169835
0.227687106641026
0.227484644413954
0.224941313042445
0.224281264804944
0.226816699028744
0.222175935983457
0.221541068194263
0.222533022228719
0.221340267022289
0.225487765901966
0.218384962348955
0.220066180901194
0.220732585934321
0.220485768946515
0.218615731936391
0.223327555275618
0.224980507158992
0.220260354590795
0.216986842120764
0.215578868191984
0.220236038636584
0.219888886288269
0.217738105832767
0.217415109351617
0.211233797536823
0.214456963995417
0.213133095086892
0.211729548366133
0.214355905347655
0.21275673904847
0.214441258883423
0.207447341933619
0.21048584498313
0.210594117954819
0.210560776545798
0.206002364239354
0.207026201536117
0.202687066779133
0.208554773923889
0.205262967180365
0.202035842380964
0.203536484336328
0.204624404086543
0.207005576585261
0.203801862659884
0.202088855624426
0.202088050761143
0.199304946141453
0.203347428325342
0.199110230777424
0.200507572297292
0.197066911326383
0.195832862593979
0.197506689025738
0.198294818006005
0.193552908795892
0.190863957672339
0.187263851298193
0.19127875562987
0.190594411571444
0.189151300329206
0.188371680524086
0.187031058968442
0.190958389537693
0.186896506786886
0.1858806452447
0.187146554002994
0.182606034311398
0.182097740882896
0.184099790642842
0.186001120010751
0.18140785227926
0.183877680676682
0.178681083455839
0.176338454770108
0.181300360190354
0.17979649962211
0.181588375055897
0.179460159643528
0.181062795306089
0.178258146416318
0.175300200361045
0.181766491900086
0.178123996398293
0.177081292638265
0.176856651134387
0.172864748307264
0.175806548474171
0.170367483590182
0.17143366987497
0.173943636539189
0.174936700306874
0.165825047825917
0.168831358032524
0.171992072766841
0.166559583454116
0.17007507367955
0.170454812050901
0.16747922295853
0.168987826753267
0.164635595704769
0.168379602217474
0.164748749943687
0.169550878836248
0.165107121674475
0.15969688017063
0.162551035229322
0.162888091467112
0.162394270228722
0.161894820898209
0.161047231283364
0.159696747874756
0.160731869327993
0.160555155084564
0.159777337585791
0.161458698321539
0.158485044989483
0.158372678188441
0.154833601486366
0.154732368499068
0.159318015540808
0.155628147412418
0.156111900414744
0.155865121632191
0.156295247949674
0.156381916429431
0.159387082982848
0.157358315368605
0.155278120739014
0.154774007767479
0.15350692561857
0.155259144872179
0.151503556731474
0.157256053976497
0.153596865926847
0.151962868648737
0.151798108048561
0.149989078225496
0.152416283392908
0.153507620447347
0.15018204971506
0.148316116965025
0.146804096697147
0.145045377203855
0.148157975883172
0.145524393879272
0.146839024199129
0.14793635841321
0.146117520447388
0.142838015306256
0.145956443443343
0.148124870073222
0.14849936695047
0.149156584275685
0.152111504631088
0.144986806938786
0.144933454424885
0.14453504785824
0.15072490633068
0.144324145611142
0.144452928585325
0.145633937505169
0.144895815992379
0.146492352358826
0.14262717808806
0.142164106175125
0.142731552766791
0.139451043900538
0.142427415388187
0.141856965619175
0.142055315659474
0.143643937739042
0.144174139972776
0.142960777827568
0.138247919035226
0.140579994350977
0.139919040645354
0.14207231348029
0.137606304615774
0.139459033412775
0.140151936708397
0.136237172554633
0.139540962145036
0.137441555259093
0.134197678655143
0.141049684454356
0.139316965346478
0.13279913133609
0.135686396479636
0.137219488913998
0.131757069997808
0.133069029579189
0.133056344395513
0.135202435916287
0.133732608246858
0.13507589485777
0.133094158112113
0.13163022293411
0.13359255038556
0.135949298853721
0.131658306606023
0.131739391231226
0.130734284634935
0.132518315872265
0.129201199343116
0.130432319113851
0.12675961039072
0.129099227290145
0.129505679236612
0.131061479905339
0.129540300393931
0.131213269119048
0.131249593036534
0.13328080053054
0.129321786854683
0.129023981723412
0.129630001292078
0.130498983503026
0.131169100472272
0.129649291711021
0.125265954794537
0.127273700096006
0.127965667348488
0.126542159864136
0.123873081920059
0.125222357671445
0.125007492741427
0.127173534424669
0.124348666987896
0.124898864506637
0.125918720854493
0.128902823712857
0.123181551336926
0.122657395599477
0.122548378870049
0.121855033923491
0.120935385026843
0.121730003124418
0.124047416718025
0.118428021777726
0.117625283336738
0.12215207339385
0.12121382148072
0.119827534644957
0.116559865981298
0.116249667538506
0.118975561429314
0.116836394669821
0.116928462237688
0.115652120006744
0.117746398359566
0.114296207955997
0.117735620229015
0.114082884193736
0.108790270256051
0.113761345202079
0.114545506129804
0.113773071111548
0.110761628298474
0.113533114577289
0.111393393364115
0.112434503938969
0.112162561019812
0.110425594725682
0.110550310600847
0.108582727603973
0.10819137467618
0.109765107235014
0.110167291920221
0.109108711882466
0.107059994224798
0.109595155452841
0.107397157497076
0.107457506440618
0.110199267396913
0.10926489691372
0.106026081198507
0.106532511362093
0.107069417950872
0.110193783250479
0.104539977506203
0.10412802927235
0.102317626095175
0.103753445266079
0.103274710862335
0.108471568970418
0.106454915175873
0.102609880640315
0.100429039873728
0.104694644218202
0.102752271970716
0.101376940822604
0.0998115892450997
0.10346221728524
0.10187611265956
0.0987773757741913
0.0985529027618531
0.0980677864692701
0.0986422251755928
0.102006696036302
0.0964801908798175
0.099857495181524
0.0981691684343312
0.0956777868541678
0.0958463506805829
0.0988595875271331
0.0980446167386626
0.100015181151171
0.0949920683001974
0.0969644032935049
0.0924225981267958
0.0970441594294027
0.0947300225554049
0.0949883752505599
0.090147687269883
0.0941238433407406
0.0923968336387688
0.092466892496204
0.0915369643477332
0.0914258537062093
0.0942163342842435
0.0919053466982376
0.0895739953378833
0.0924780040092125
0.0896959139820028
0.0950337034494037
0.0916665858019827
0.0952927012732954
0.0898432698939413
0.0950454234715878
0.0895978977813143
0.0952030501414376
0.0907912558151185
0.0947278301133076
0.08961981029449
0.0927215185583717
0.0900653560393001
0.0940669604669459
0.093017455401372
0.098459698037357
0.09055507205458
0.0983317837099709
0.0960153267743977
0.0975145208898762
0.0952993997094083
0.0963421407559545
0.0924974661165744
0.0971190580914475
0.0899157920951344
0.0982993613277992
0.093882073633473
0.0957374659120195
0.0875174719297671
0.0937600224411312
0.0833052040549558
0.0946793037217021
0.0858236101667632
0.093701230173569
0.0831256015500706
0.0963431799749596
0.0824582599809351
0.0933183256940065
0.0840461690449702
0.0936293301193109
0.0876337776468317
0.0930880734061761
0.0823091080442143
0.0942165429192278
0.0843312684129249
0.102701338942595
0.0801367573273452
0.0995226253334534
0.088139231040828
0.099452196852277
0.073832459613573
0.0990601096250052
0.0747998625497429
0.0936437776057641
0.0724873645316328
0.0999195355601144
0.0655747459255104
0.0999998860162106
0.0642249477363383
0.105828092741155
0.0678172872782733
0.100933735468307
0.0664643133177533
0.106726554389692
0.0640365409396654
0.109650869727308
0.0629196617405238
0.106386402043794
0.0598461200203685
0.112744994079883
0.0638475894951118
0.113156754181192
0.0626092774018334
0.109060297542485
0.0645250932855843
0.111654921528234
0.0737982050186565
0.0988275929430747
0.0826785568086059
0.0960201158611769
0.0933176761725375
0.073639521581434
0.0998779732961283
0.0725909678800453
0.110327459888597
0.0566639692142678
0.120887940062437
0.0545199446756541
0.119158598981149
0.058086465999626
0.112754581002998
0.066316268750168
0.101915947224727
0.0734466412523114
0.088336474486468
0.0870377663484482
0.0839878788336419
0.0828053479857011
0.0808208040199761
0.0817430414919523
0.0857151643360388
0.0774270501725467
0.0861282255975356
0.0729646959085241
0.0885364935059451
0.0732407986586779
0.0885746341428325
0.0737029846528046
0.085795407347508
0.0763274100486666
0.0806001069894423
0.076384335696708
0.0818541876451679
0.0735580028386393
0.0797117151795874
0.0765225462991776
0.0828602858442573
0.0753871849199741
0.0807798765129799
0.0740068137223278
0.0825562521269804
0.074997469762236
0.0814564510465963
0.0755236672711435
0.0805518053463156
0.0751071654800889
0.0777413136510675
0.0758370635403945
0.0812502423355339
0.0750291056693498
0.0800047550092814
0.0773749285446947
0.079633394871844
0.0784266680839569
0.0803865658000117
0.0753590337135287
0.0805876192694877
0.0740103838667496
0.0797817650292143
0.0780984422283639
0.080808433697245
0.0745016680586452
0.0775554600338904
0.0769848269169984
0.0811794612089663
0.074609590970599
0.0804239345088087
0.0778066512725266
0.0800348034564668
0.0736506021349372
0.0822926701779659
0.074938101305488
0.0773690774751339
0.0746396114318781
0.0767632290440601
0.0749337238966004
0.0792287909088859
0.07364911131747
0.0779708432073915
0.0736786066133127
0.0782942030684915
0.077162550741685
0.0819766243565062
0.0761517311844157
0.077334665626861
0.076332179994075
0.0795333570895855
0.0753302640254768
0.0777681764421583
0.0768836723035361
0.0801921225741552
0.0746604177998603
0.0796100329045229
0.0754500515103539
0.0779927472128152
0.078912344489529
0.0778206899014989
0.0768950673697925
0.0797234867490108
0.0757655246392853
0.0768792166227158
0.0741956447729166
0.0759963553964677
0.0762263609236433
0.0771127112026318
0.077901282107194
0.0785608948900481
0.0742838175399637
0.0781111726456094
0.0729153757702387
0.0792896338056223
0.0799836964276879
0.0782820065870174
0.076558643761768
0.0803013569765733
0.076731130177819
0.0772197458035963
0.076434073415578
0.0801930571232697
0.0772323156460819
0.0791892937287493
0.0751019822995967
0.0786232594284954
0.0806464166384378
0.0807208179930394
0.0769398514819225
0.0795099550695371
0.078142054564783
0.0792578238270434
0.0769769405954086
0.080102339137955
0.0790717992338236
0.0777610870911958
0.0779204815561347
0.0791392474266965
0.0750907382039504
0.0779010595111946
0.0750758670972598
0.0788074286164672
0.0790012905081986
0.0817624326083513
0.0781718846429044
0.0775814077183296
0.0792203473770309
0.078051178062807
0.078567548310441
0.0780013487807537
0.0784632262713969
0.0791034665457633
0.0754527604901341
0.080200483949389
0.0759335741378822
0.0788308504790943
0.0766786993401722
0.0781498600677477
0.0786901465865555
0.0785737928595975
0.0771629814781698
0.0784633069121615
0.0781093385051892
0.0799279669357861
0.0786883996225045
0.0814193189215118
0.0800414609375604
0.079689908447583
0.0780362679201397
0.0784041576757823
0.0779389196909132
0.0801917795126787
0.0789579889647823
0.0818095631071719
0.0819709606107135
0.0813439614311766
0.0792458139198141
0.0797515420041484
0.0785230143644811
0.0811445206504363
0.0824735108186534
0.0793094819524875
0.0797706308096816
0.0818793994688177
0.081277792642215
0.0823462820193228
0.0793569671795077
0.0806617752024176
0.0804485710615059
0.0796024836835478
0.0808213491957705
0.081147942607499
0.078268419853893
0.0815032723582511
0.0786170576248147
0.0793791549142936
0.0776861838279376
0.0795185635949106
0.0776118522445733
0.0801382162485258
0.0803346736374533
0.0780768521066524
0.078462575510661
0.0787457791395482
0.0779345664476982
0.0794775315483563
0.0778361780672346
0.0787235016930057
0.0770188896462255
0.0794386625504935
0.0776647195451221
0.0766655627692151
0.0791717592182479
0.0764830749434642
0.0756487049615871
0.079418806542646
0.0788662370958928
0.0767871472836576
0.0752020311191807
0.0780965620475413
0.0751455760147141
0.0773810928183574
0.0787017943535853
0.0771079211236662
0.0763981560231854
0.0751071771804033
0.0770255025107481
0.0769398753697064
0.0759879196281176
0.0740675407100693
0.0757501251211294
0.0764961271441793
0.0767647509688373
0.0781807377114437
0.0749574542446469
0.0756533535450586
0.076259534037078
0.0762555286676875
0.0766837113713168
0.0756731790384973
0.0772272583738967
0.0758271499834263
0.0738299835773643
0.0735411280104546
0.0747435618808263
0.0746024559659992
0.074534728697018
0.0732334676008491
0.0739436759888812
0.0762045949844927
0.0766437867804262
0.0772289431142171
0.0751023500547249
0.0746072342485677
0.0746038731061421
0.07185382181502
0.0736969842450195
0.0716009259733572
0.0708438770634937
0.0744590255106072
0.0734568048710268
0.0728582299029184
0.0721822710607953
0.0745972359898922
0.0752011236525106
0.0736761034090249
0.0744032532149449
0.0742776334208631
0.073316852885651
0.0718837732187367
0.0741498311354438
0.0750954127064195
0.0730270444508126
0.0709181979522809
0.0721672130460181
0.0734510997079758
0.0708033175864797
0.0729680623499083
0.0774303800299915
0.0709705892494719
0.0703548007266115
0.0719045324446094
0.0725796925618566
0.0743950246469715
0.0720966046427429
0.0707210853931229
0.0716095184804739
0.0725563803641763
0.0701108105026702
0.0704855276286827
0.074487414601166
0.0715142655006446
0.0710164563097425
0.0701224041469661
0.0711250752155237
0.0707924427007422
0.068433082541325
0.0701982657340877
0.0731821940172035
0.0693107276879137
0.0696864749212434
0.0694877445677059
0.0696555340810717
0.0748464528957087
0.0720755842133553
0.0701823282792483
0.0693867650093957
0.0723925196708708
0.0701816711843503
0.0692663227551205
0.0683239082178925
0.0697279625866241
0.0672947969482503
0.0689111101789311
0.0677310161230354
0.0679833368866579
0.0698819621293619
0.0681826257786294
0.0671826984622507
0.0645183682698753
0.0645325879326273
0.0678538434545138
0.0674576180403269
0.0689577932400793
0.0670706898641311
0.0643704888667135
0.0640167784997931
0.0672089254905944
0.0664049660190627
0.0707718789076415
0.0684229257490686
0.0642002543452693
0.0664039011940287
0.0613221055047634
0.0652783066431531
0.0621845377550701
0.0640386668620674
0.0631091901239565
0.0662424459700843
0.0624961786100679
0.0621563995614232
0.0604737908902103
0.0611607188889171
0.0614193551154439
0.0644704299656498
0.0632217045202158
0.0651603229332317
0.0614672104476893
0.0624671892378689
0.061126505131929
0.0600839098103069
0.058632971203693
0.0613532109169974
0.0614180088830193
0.0612802410867127
0.0652975264971606
0.0765013385728762
0.0589973172543309
0.0598210059544277
0.0622076190918242
0.0628935604231871
0.060316041692348
0.0610753593427608
0.0590325049280895
0.0617377518622197
0.0590746875458167
0.0604676264356391
0.0601060401221239
0.0600283417989447
0.0598232655521452
0.059609098265073
0.0601582880958595
0.0607387316135067
0.0594775591797389
0.058544425650874
0.0581344283409611
0.0580636739545713
0.0570527956745668
0.0594489289459318
0.0576150368850226
0.0592722273230942
0.0582054280276935
0.0648152945331343
0.0618015235046591
0.0602762046262106
0.0589816775789545
0.0571095582212726
0.0561700855223531
0.0564181415526752
0.0590706660129622
0.0563163056411275
0.0569582066819889
0.0566492591877046
0.0561575193119667
0.0565541665183277
0.0571070196836447
0.0590943605416242
0.0564053957135727
0.0556031864963999
0.0543621927544349
0.0557000483121809
0.0574890890361085
0.0569567695682154
0.0552912809198866
0.0544106975695407
0.0558725716096174
0.056052305389809
0.0580118894297579
0.0557291746293002
0.0771595299500638
0.0602770473742027
0.0583011256103787
0.056490603717318
0.0549545615277267
0.0563320593614988
0.0538359825198083
0.0539189172548115
0.0525415468050778
0.0535967769809129
0.0537700413879676
0.0543064141792934
0.054837425492165
0.0549156627759383
0.0526102010097315
0.0518346401809889
0.0551237952190574
0.0552538529224961
0.0546038827246338
0.0542128329494484
0.0576685548611586
0.0674079663417872
0.0619189538015662
0.0528679237983793
0.0578270639256418
0.0534833625550241
0.0646794521255935
0.0682165077127501
0.04934571657944
0.0586990317229899
0.047176668138086
0.0555807177533919
0.0492649495880333
0.0569053222335392
0.0527042920205395
0.0620255830535157
0.0539203191600613
0.0618115135959821
0.0550704486579347
0.0551442994216698
0.0506247951622118
0.0558248258406598
0.0540225626467428
0.0538634337973571
0.054148814789976
0.0546291533059877
0.0526457020313266
0.0534891769280896
0.0513419267348397
0.0553329524795168
0.0539321772488314
0.0650101408347552
0.0524287343312878
0.0575545006432992
0.0510839593011705
0.054402298898412
0.0552456664100428
0.0728937388783098
0.0527870247162571
0.05209363782315
0.0518807331528721
0.0538922268441585
0.0529912504541699
0.0536108909941821
0.0549170852708016
0.0544264993291003
0.0524819871043271
0.0537358251977325
0.0530698125781064
0.0541378083037781
0.0532687839823883
0.0541906206369059
0.0532025372129141
0.052271424865647
0.054805492066521
0.0517392009793122
0.0520730166630948
0.056004684832991
0.0620238837832852
0.0829553176932524
0.0635992225983563
0.0674026675135493
0.0562033174182272
0.0572871926640154
0.0482795747968889
0.0566708056860344
0.0501370147386279
0.0578051380714797
0.051405556985914
0.0568608887114328
0.0531363801126053
0.0550640584466757
0.0526261769064208
0.0561029433479814
0.049779374368851
0.0560929590386904
0.0523336263978397
0.0537984586287233
0.0515034044377322
0.0555832671913769
0.0520900401972357
0.0613067106943177
0.0622925806687452
0.0546203923562145
0.0570963920008022
0.0657956242057108
0.0917042452218047
0.0538241203516486
0.0626206152236064
0.0540636359703692
0.0551040441602939
0.0523678789945327
0.054298904967157
0.05952603628754
0.0570758532723454
0.0537142885210734
0.0543614137643743
0.0528193114978022
0.0562999786573644
0.055499169332669
0.0636378279330591
0.0858254583859307
0.0683854432256839
0.0545472267328528
0.059660231485553
0.0596054228983246
0.0806459249262698
0.061571737816909
0.0554522217033736
0.0611925758648709
0.052180199425608
0.0582273328432121
0.0558106228904474
0.0582988902763641
0.0575400418538989
0.0607280937969365
0.0519939501750938
0.0573033161202863
0.0527106295483568
0.0587237492055752
0.061075018134984
0.0697360978474964
0.0680667589446842
0.0567494454468793
0.0571318515307005
0.064529501917192
0.0531442855040681
0.0583989173938733
0.0544752631279855
0.0633172958723016
0.0668956994634574
0.0758757141818495
0.0641624862778522
0.0723240396424745
0.0700557036162263
0.0579081295684253
0.0623003927992541
0.0736069064304969
0.0602531156406476
0.0621154455917512
0.0565733864652714
0.0994569182493638
0.0765736934418926
0.0838451115345004
0.0630670058145328
0.0600567416779847
0.0624451084863599
0.0602029581722505
0.0641999582131413
0.0768234190251358
0.0724554527225047
0.0550124149930084
0.0657509434392524
0.0667216709191964
0.0803437722688597
0.0628549325055232
0.0694126055264466
0.0613509107462308
0.0700237636163677
0.0717227690353787
0.072877091257009
0.0588029216982473
0.0865640083828161
0.101218093769018
0.0835079842900261
0.0772389863753067
0.0622364035402046
0.0962231126287264
0.0821675572807136
0.0651671782304269
0.0699915747624158
0.0647050740278658
0.069445029994788
0.0691525254982338
0.0964293810253128
0.0802487482757377
0.0642986183157053
0.0759320181511734
0.067174512429609
0.0892237536728517
0.0878196158662132
0.0667863762037605
0.0740620217442572
0.0750474539348508
0.077237764224784
0.0962897232463796
0.106859917694067
0.078043170350507
0.111877091558892
0.092247836938458
0.0932899190201924
0.0865305211439476
0.0879022374298362
0.0934483409069007
0.104322987886887
0.0860036332922369
0.0802648473745875
0.0928574695398188
0.111692226858767
0.0900332644656718
0.0874592028948423
0.0887040889448331
0.07982658254537
0.124945150229859
0.147007741478285
0.119175596774267
0.0992942378153775
0.097146143808614
0.114468781296697
0.103636492592523
0.0921182555170381
0.0947175735397524
0.0921715699659381
0.0923173486462626
0.0958209603206681
0.107452320503457
0.103177340999398
0.101488840281558
0.103456651530848
0.101675007994094
0.129802020659836
0.14718830252862
0.145291988524552
0.122988100370383
0.13612618838555
0.143596918302936
0.116861541285041
0.115342996990597
0.106619764176916
0.125049891305719
0.117928354052034
0.115728306066963
0.119810540499875
0.137967863922146
0.14553504729445
0.134023802371712
0.148222307374594
0.13124811850199
0.135012158986483
0.136955072478651
0.229683365056995
0.18957436296255
0.142363848099911
0.171451076579178
0.137686557115508
0.225841350151564
0.176170918793953
0.166104106089339
0.168072575281302
0.176569394953081
0.177287394231442
0.190988320295477
0.197510239778926
0.210159019648404
0.202585357119921
0.208605551464978
0.208812069119212
0.309198974680016
0.276940452998041
0.255197540238377
0.229511699559408
0.258210344827401
0.252703021949845
0.254726564069832
0.250043168626918
0.263724318614324
0.25817231202037
0.33080121025657
0.288027639450871
0.289727376674069
0.299312141013825
0.324985380327175
0.311547639720002
0.336145800577029
0.359313623101272
0.325268354519809
0.331828334949565
0.33081850938848
0.346921804464713
0.344212659633253
0.370267287424115
0.380889487166694
0.360799385053065
0.371748701188062
0.369259642489845
0.380099059709038
0.382806336125279
0.396592211885381
0.392789310456272
0.431184041937407
0.442758751848273
0.501051867437956
0.444608982642737
0.410745636512041
0.408949033497736
0.414979609673306
0.439609186582921
0.44405352045884
0.43813200807361
0.449842829384128
0.415808458955614
0.422722840547537
0.404439056415335
0.413276642540165
0.417625385908779
0.414465980987405
0.419789994319044
0.426680480601827
0.430590554585346
0.451303860751439
0.474084021765989
0.417999498795886
0.410788014397799
0.417649321544641
0.410918269934753
0.411220444275848
0.404592666586548
0.417769300971826
0.424629799015356
0.408664652323316
0.398197058178465
0.392320470573626
0.403904856891846
0.423675385633281
0.371820633564971
0.376008299500868
0.375354783334332
0.371159979821935
0.36599068479824
0.376750588605271
0.407884853050656
0.374934740524255
0.349381646569208
0.359497596196776
0.34712106003355
0.346233743580645
0.342740441156177
0.352847753762545
0.339208216750576
0.344624515164811
0.338279502550649
0.333138774615803
0.328667172710111
0.341522264790871
0.331642946213885
0.333677059626321
0.331295573182337
0.331734778881578
0.326029776976978
0.32819461494572
0.325621799961007
0.332812538791831
0.329080876318821
0.332347049159881
0.333371119089393
0.32947471841346
0.327943076429272
0.331163970099406
0.322265870147554
0.331924414916974
0.321892991837149
0.325050936118213
0.324176886534973
0.329971077300641
0.318385001035865
0.3245147301728
0.321749893062219
0.325017045535499
0.319633097510305
0.325683590273812
0.313627782705312
0.318868976168699
0.312867072583938
0.361544014005565
0.349768718894617
0.318669608757043
0.313790825802824
0.317670063547834
0.312191054303471
0.312721118381956
0.347928770292224
0.344764173465261
0.309127428640169
0.303098986983271
0.300825839436899
0.32117856374911
0.307167058767134
0.299105589185935
0.299704184956503
0.300519554654967
0.311535640307961
0.360659048994085
0.364503820426942
0.373269054983235
0.318131958015532
0.29916568243904
0.301251099662903
0.327865429630998
0.294883013462217
0.287561212980053
0.282050259490485
0.318382639763248
0.302251116804893
0.290229908636672
0.284718557634523
0.283629473414083
0.309223172521773
0.31943156138019
0.301110635492694
0.300462783164929
0.318432608345206
0.311487089600243
0.324698080936657
0.351316960590596
0.300664366044217
0.269801564819571
0.26720288811134
0.26564278604902
0.266632708572278
0.313453374795454
0.273973461092818
0.273270787205009
0.252042640335813
0.248722523930434
0.252200647158132
0.269591094884585
0.258381068849153
0.26628528867926
0.282069596432079
0.245492785644488
0.25612407715037
0.270800085013952
0.273509786272102
0.295607628208783
0.247998816095373
0.237216685544472
0.276504086483851
0.281766811092883
0.249977897398034
0.248519410251743
0.221353869958986
0.233222545418049
0.233828985210681
0.22566048643565
0.233954680884166
0.249200315786088
0.244355597561533
0.273102269105861
0.294321588263966
0.277340558525498
0.230727790412396
0.209891616639995
0.204091547031394
0.209720383420519
0.208066907391773
0.203250684688613
0.233448488122321
0.219433388682352
0.20174694428184
0.247618569899062
0.220132943145845
0.209516267613928
0.208651835334063
0.208013862621487
0.210464923330645
0.241658245196939
0.257435710186352
0.237197365081922
0.23423647344413
0.249125439808522
0.226776862458632
0.229163681188173
0.22797472811524
0.229783903798103
0.241684794455133
0.251972412425301
0.239314657112966
0.252012522655351
0.251142673346072
0.255544452664051
0.280373639449804
0.301134846130997
0.272975335761754
0.316637537077558
0.304264432544244
0.347410264953723
0.314186524354978
0.31005483785775
0.304126748914221
0.31029899562916
0.315682079671887
0.320536329585749
0.330056758087182
0.361207506008155
0.332090381637065
0.339153207919668
0.33060662800212
0.345754951116747
0.346498578154036
0.382054412689584
0.375544187496433
0.412217491065331
0.413116798854349
0.394190073461836
0.374945789903588
0.368232038329736
0.377549862068029
0.376366785108129
0.370738079595565
0.368542199298188
0.369974323894312
0.399124927678208
0.381131717446759
0.37908799299254
0.380548040862787
0.388391787914277
0.381758090936906
0.384555478152878
0.384918678006293
0.390862547616838
0.394103220875912
0.400680246959486
0.389904700303517
0.479152844283135
0.424911249234405
0.418982547450431
0.411508338084861
0.422698143461817
0.418849708865945
0.427637481782533
0.441170908864605
0.440829761347512
0.431459252862955
0.431123068053953
0.428985128732851
0.439760425479561
0.446331971739575
0.471547654198766
0.441188912148782
0.458830827158898
0.438432548180275
0.484934378280012
0.492003594144619
0.486746941889494
0.482347498747723
0.468225190257219
0.468952672069185
0.467950776232044
0.463165990367689
0.469931288672696
0.467076707518053
0.474132731635859
0.471667313328502
0.470203167171346
0.469769559212569
0.472062177395579
0.475933249121345
0.493734145942024
0.471245580081784
0.474326666233599
0.469854566905946
0.472833575420772
0.461072373982546
0.485073849620381
0.484410451314675
0.471330652604596
0.471313402411318
0.479764543412089
0.487054445846437
0.483276504343375
0.46521431246659
0.470345519208049
0.460102517787675
0.472146384073565
0.464652304469967
0.488363136904979
0.499867620302614
0.477842959656735
0.478258342213787
0.474351431159937
0.47869376926165
0.485656662965502
0.484843948664324
0.482424693205558
0.48180253542332
0.492181385465064
0.491204517533967
0.491353169372678
0.486935633684558
0.5032226076903
0.512162139083383
0.512822984845715
0.492295667258704
0.490153085685409
0.480664749574511
0.485258321683484
0.481132432053854
0.482443182235063
0.468879376739669
0.477217187928323
0.465984736815231
0.4730654229583
0.490555878384012
0.465477159081698
0.474898652999937
0.454788659068817
0.444348499275046
0.446790724321371
0.442758825452505
0.441629823103649
0.435224218859941
0.440826005896284
0.433797948474371
0.42930626805938
0.425913163034858
0.424983094048754
0.421376366724723
0.427005923635314
0.420199219796125
0.419311867322391
0.417412060434403
0.42537888214645
0.416375488471138
0.421306372301632
0.419493021753825
0.418266052441387
0.430213873346283
0.439242747341899
0.437166668542712
0.422792473714249
0.423944203925364
0.423626546740344
0.413756310731803
0.419890392697263
0.411002974494183
0.415606242707617
0.413167535143419
0.416153032364949
0.411485863347661
0.416262635494774
0.41081443538418
0.415098718510018
0.411433666189231
0.412663335225749
0.410259952687473
0.417466788991775
0.415158861673195
0.418345695452616
0.413754929470608
0.420705110812853
0.416529830244163
0.418335685698437
0.415659799809319
0.41682166539479
0.412491859966064
0.415030222129942
0.419154182314585
0.415410961422046
0.413478204959217
0.40833226854353
0.415707750395577
0.412572623128765
0.406828080736807
0.408231762807999
0.407496947413161
0.406267604488659
0.402538228402796
0.40402645281565
0.399297615131648
0.399857448081381
0.394460936739053
0.39578024392478
0.387208748093241
0.386471472013016
0.38155166059194
0.379668288321451
0.3792513104462
0.38009267987373
0.369380316863531
0.370482656776158
0.365492886698371
0.365644927054265
0.363048667956644
0.3610203379859
0.357440524268825
0.358530241920848
0.357757250890432
0.353414530031646
0.355245199304827
0.356701297894041
0.353823281274951
0.358695579940605
0.355846133256995
0.356548214161459
0.358177448131929
0.356794054665746
0.355581144191298
0.358998578172151
0.359768632918899
0.360464581160885
0.360227788460379
0.362565866543464
0.361454749078821
0.366557212445154
0.367839230299546
0.369053190596455
0.375452391136611
0.373439104203568
0.3713986317411
0.371786854051922
0.373977095583382
0.376169222313403
0.378521689969218
0.37958634068487
0.379268400844235
0.378224368942089
0.380477273283106
0.380141635751021
0.378426004596029
0.382603604509492
0.376320279172025
0.378560250012667
0.373898277872278
0.37614160152005
0.370203551951746
0.373659182955719
0.368982869053789
0.375187568135543
0.370602201801673
0.370591152765718
0.366681353831437
0.369428887876839
0.363428670796969
0.366511512352264
0.362155941987344
0.367393478880854
0.359236806569801
0.363270028790658
0.361319436980075
0.360772654829504
0.353510211734947
0.357182956347036
0.352424002252717
0.353312770784483
0.352676066696912
0.351949243476325
0.348512994640166
0.35065458036917
0.349039377887304
0.348323986914907
0.348585916605778
0.347546993924076
0.344493488775097
0.344604034711144
0.342538209163605
0.339124862545415
0.335157194224307
0.33827123242556
0.331583197357631
0.335253204878539
0.330909509227837
0.328103745519274
0.324166891219868
0.324621360203101
0.320904546365243
0.315042492809038
0.317261801533784
0.314066900368839
0.31230937462787
0.30963352422725
0.306910696303251
0.308899128807198
0.305180040442686
0.306297883817146
0.3051278205853
0.307223729494695
0.302528164541679
0.305321305292499
0.301738784352401
0.301744313718506
0.299609391465695
0.29688059295683
0.293426553867236
0.2931447934847
0.289044403140149
0.285465722950139
0.280404791364698
0.279751855154847
0.275990178306053
0.27578383742704
0.271499457825424
0.269883318378034
0.270972082565372
0.272165010543966
0.270892725712031
0.275139975223192
0.279273135200101
0.287898708007421
0.293412896251739
0.303797403763692
0.310441876402096
0.324244348839679
0.332898526590865
0.34717371675737
0.357860594124312
0.371958022247086
0.388400219293388
0.401817586000994
0.408557448674633
0.424382010785528
0.441318746680468
0.455202078332247
0.468847294557764
0.482159251384872
0.49587586585209
0.50645410208277
0.520829814121169
0.526100881277551
0.537340373522753
0.549372253559902
0.558840235394708
0.572643822650739
0.577778805773202
0.587097165187647
0.590215495481791
0.601138643476987
0.600264662234616
0.611128475497329
0.614345559797373
0.620793215689507
0.620174500625999
0.626888298659781
0.621036017615517
0.624592628955722
0.628992107002706
0.631036495623843
0.631521783583791
0.627383049007748
0.629981933203074
0.633694616219689
0.634185875709222
0.631905260236993
0.642233131835128
0.638068261255265
0.643121893635017
0.649911950613944
0.6515891547496
0.659335631364564
0.656778486140314
0.664783032207269
0.667711161739041
0.676793065957762
0.677228131284982
0.689706883726065
0.693944216798547
0.698132991221556
0.710952261745502
0.733827626906636
0.728497942708345
0.738274720770647
0.756321278387015
0.77596214153457
0.775900241776997
0.779402568885216
0.788255684847802
0.79127546015767
0.79620812343739
0.804720489038195
0.803611109219524
0.79586357671741
0.805935467306143
0.805873906850158
0.796784245743373
0.792128459259695
0.797242029197694
0.795976140348952
0.790531598879785
0.794057505594781
0.792922222395879
0.797204613438419
0.808289563254393
0.81518474301774
0.822537225393978
0.833703567268681
0.842451838763545
0.852420538882849
0.87267265282229
0.894309901288732
0.901990427819603
0.91915727919479
0.942176096929748
0.95529545523652
0.954208199154211
0.97660618971127
0.982369683390397
0.98192877765925
1.00101112161227
1.02888232895579
1.03021636778343
1.0448472440594
1.07507983477946
1.09232520291526
1.11429196172757
1.13127491187051
1.14202919482141
1.16115246375728
1.17569413855073
1.1951592816554
1.22239216527787
1.23240255287981
1.26498376801616
1.27212935976717
1.29749707390461
1.29686430854459
1.29759332160786
1.30503334626273
1.2919369609652
1.33872062253516
1.37751396560814
1.33775331261559
1.32133015734823
1.35924695602285
1.35949992450799
1.32992291176285
1.37410663332682
1.32003862176963
1.29872333981736
1.30685612569791
1.30091813604494
1.31894844838933
1.32347909967703
1.31400597228947
1.3160944296536
1.31601119823732
1.34312216659506
1.32680514952743
1.36420215970753
1.39513931089228
1.36727728551761
1.35822468523618
1.42534261397077
1.41081220114087
1.41713381560555
1.44891610064261
1.48789362865146
1.45505657908459
1.43384954470492
1.43458265966039
1.4238405636553
1.50342339814096
1.46652664512186
1.46924306740155
1.46371028300952
1.53541116197289
1.47747968829354
1.48771447577365
1.54013725196163
1.51390116324091
1.5637171808295
1.50807648530413
1.49282926348524
1.48453563541816
1.50159722079765
1.47987231866961
1.46528096569146
1.45780687658466
1.4661398014984
1.49091558387073
1.50964171118628
1.49709902108973
1.46744792799969
1.46124882772225
1.47010194246669
1.42370267292239
1.45328887475467
1.41322949714105
1.40879380331188
1.31298124854039
1.32062561595274
1.25319786980055
1.25207605391987
1.19283957866503
1.16783890558329
1.13749273890876
1.11015618020117
1.07490936048856
1.04989643310551
0.985543258408799
0.987766135186318
0.969388868424122
0.955897239006787
0.941578627805152
0.924824973969178
0.923991024489683
0.9163300765181
0.902428638605813
0.908934101104218
0.903402098365323
0.909332691150316
0.880966359345116
0.875307504404518
0.885372642904715
0.876195513177374
0.831780233930668
0.838526745772341
0.81657011972555
0.810119368082914
0.773971994505293
0.775051323533019
0.744200381106436
0.740554941439827
0.710662928182932
0.697361679033673
0.670021794928961
0.664769412838533
0.638746296959557
0.60314495124155
0.586178869768739
0.571586764393318
0.532870263037126
0.517692398415065
0.499621099499573
0.475177231244232
0.456106124176621
0.438800326548672
0.427020998433907
0.408229953413552
0.399628658203797
0.389969292886328
0.370897181278368
0.364237943207145
0.35480737103954
0.349137464675137
0.341077234094061
0.338878826504857
0.329369318709301
0.336427512342793
0.333853410118169
0.324714622302936
0.325918488729815
0.325612902005318
0.32007958473006
0.326733381209039
0.318959534292996
0.331979918461963
0.326512786290613
0.32913512722722
0.331396334134394
0.333620305510997
0.330051767190989
0.329788232384811
0.323405429721241
0.330796463713341
0.322887435917123
0.322728789978204
0.319364300948756
0.317037961911535
0.313028881956396
0.313886493920639
0.30631795049712
0.307946757716404
0.308390975741644
0.312936236723552
0.304817498944457
0.310291415135368
0.304371318503445
0.308260331978516
0.308077977507408
0.313914186091346
0.30587367955852
0.31136875648677
0.316051112807394
0.31994225741157
0.318243631864827
0.328604145652975
0.316897812776644
0.325173364490653
0.3270952236473
0.334664769016559
0.324970769937624
0.33285544564056
0.339859705300235
0.336304849513784
0.330674725418946
0.333126333693921
0.336781749710406
0.339228648560468
0.335722619738797
0.33857254422256
0.341331837641039
0.334079747761136
0.342461137934259
0.350524835867492
0.348410946276128
0.346982472039288
0.353965192392267
0.369113215051816
0.368107365687231
0.387412160580477
0.391506470667241
0.401881767166712
0.408742959934959
0.420732135416436
0.423817672495641
0.430055967651605
0.441318800942417
0.449858923774879
0.449810485931038
0.450168568535745
0.434596520752367
0.434956634648273
0.428234481548776
0.424738446437363
0.413574898535869
0.413732376318799
0.406241457206299
0.397793822996778
0.402903009679474
0.39286831076932
0.395420891197212
0.399212945499608
0.393865664105761
0.398241822283949
0.406495741878602
0.394731364100197
0.401928284601425
0.396556837393125
0.392769427308636
0.394128937214921
0.382980140753004
0.385923550312201
0.374351533026089
0.373645543966214
0.368270391579199
0.371792791670642
0.36435500381826
0.367181254031307
0.368322667929704
0.357499673189403
0.355400830347123
0.364212016493912
0.365710675049265
0.359333090536735
0.343956599432244
0.344454795327495
0.349139786582104
0.352139382291074
0.340304375113828
0.333062514789013
0.333549500122297
0.341577863017329
0.334820833758956
0.338735819061743
0.334531503913176
0.335040725215231
0.328497942941681
0.330516336954749
0.321673230207203
0.331420860367565
0.33297674253211
0.335377004133061
0.315946590078749
0.316087335776055
0.311305006424887
0.308875578821424
0.314294941964079
0.324862701884733
0.302352925727325
0.300211342200589
0.301247231016316
0.307230407698352
0.304643977134036
0.306442449601744
0.309614169992971
0.313312569571376
0.314901862511113
0.31391054168675
0.287205623440615
0.299835222203927
0.3112247633024
0.315867600957276
0.303388226346641
0.304543882359824
0.299660584088216
0.312520613818091
0.310908092333246
0.311487881398171
0.31879913950818
0.319575464176259
0.318900802074339
0.334767130178422
0.328168008655638
0.323312657486043
0.318834648604955
0.333802503156431
0.328095708361303
0.335592882163021
0.328422353563815
0.323511007231509
0.342862196205362
0.352009825601109
0.351806308079673
0.355926897265922
0.35740453192317
0.374017280173205
0.370917270988931
0.372170084735058
0.376440236718594
0.373752208282086
0.400880082300439
0.425282210677397
0.408818572028024
0.429824380032224
0.447058763205083
0.445849248000096
0.458501478418623
0.489450445028893
0.487582771704413
0.497399509520731
0.516865673774215
0.515166398137865
0.515633320024358
0.539960307692026
0.52402100867884
0.545571634247227
0.539752945414462
0.536498586050054
0.550649848535624
0.508820446684268
0.51622581161845
0.554631431026389
0.520222242701155
0.519680975636006
0.521239862175955
0.543669339131838
0.506025159964202
0.518079012735264
0.527195100888867
0.524293570081942
0.476077445135118
0.524237111027922
0.534043927860546
0.515564676606236
0.481024294081234
0.498297020126657
0.495311831702679
0.489222400260938
0.469585866506076
0.467399034639522
0.476397806908425
0.496423699846851
0.491755464172343
0.484584979576673
0.472682292688908
0.468916271921514
0.491514404573067
0.481907925330658
0.465930141505916
0.469841640163617
0.462195285952397
0.47250996782387
0.458101038231602
0.508099065181062
0.477934045578268
0.461906609895549
0.467154690751619
0.483043408580524
0.451774207659362
0.462151007410471
0.478698037823547
0.509332763661929
0.47020429044877
0.49042718489068
0.485216173759721
0.489631294248452
0.521882054565248
0.474029815699467
0.478893007903628
0.4863761539318
0.49223758431183
0.489970386023398
0.478725760879112
0.527173912578279
0.518111749535947
0.504608770643544
0.464665555005629
0.483932391265521
0.477197294969801
0.546173441223347
0.465551669073416
0.513827805773974
0.489896645318907
0.545175695954301
0.496443353949221
0.538215579556722
0.588969495225245
0.620063171083015
0.555004216135095
0.568543354238252
0.553499287658223
0.617464244755008
0.661156213915238
0.626027341074743
0.559777301840965
0.608807518250135
0.574090871586898
0.631907596466916
0.710170129414588
0.710273701874138
0.588578193194437
0.585554221258524
0.636932899112373
0.648897061531864
0.67922473605437
0.657997115780259
0.610483628586511
0.712702817062174
0.596728260380955
0.592587456647818
0.658002559105697
0.690789066366075
0.5905262841182
0.65328993182732
0.606494978196402
0.649900754335962
0.607518930492071
0.676608558573627
0.528238838804976
0.592658485108968
0.722733304229038
0.697661076251825
0.68704777880069
0.685233970846761
0.601003616993901
0.524074367010606
0.439325279047175
0.561017919656141
0.529789602691332
0.706508424425472
0.689146532481669
0.601476156094439
0.696873718389045
0.78931293817245
0.55994638244605
0.593517716605016
0.7031865297743
0.722131458557336
0.699699125697538
0.55409114590896
0.881527328400036
0.898841410621798
0.583739401949656
0.650839054097802
0.643437811864327
0.700690309232876
0.583552352189456
0.668791839723001
0.758813815074392
0.707292316144291
0.899930808184827
0.63515061014978
0.544898238271354
0.797225963883723
0.763727433511211
0.523105221589695
0.911298721209862
1.52811495107146
0.878108192691959
