3596
4000.36533379555
650.420452594757
1
2
2
0.0999524070097808
0.0991881525474739
0.0955586795789134
0.10793754227216
0.0985595352639944
0.113321554965775
0.101223713235702
0.094851507915094
0.0924868476429908
0.100354211313607
0.0967905487981141
0.107623975130811
0.100784908165572
0.105173406004212
0.102539669309509
0.101303954047648
0.0904147192236118
0.0963186008147463
0.0909352537714381
0.0960604745473345
0.0958724306764433
0.0942482778852793
0.0932395673121413
0.109278876158793
0.089811005405779
0.102918187512964
0.0926099628262055
0.0997193533394029
0.0973195207025831
0.0998417371132407
0.102231807385706
0.102056681405195
0.0928399794154221
0.0971455518473247
0.0900321395379993
0.101539102269228
0.102178260954178
0.105708236349209
0.0914790353731755
0.10428521581909
0.0955808229466018
0.0949072424049379
0.0898596333883291
0.101633888248859
0.0956628585708506
0.105944277084057
0.0898316353637506
0.105283980843935
0.102298295775135
0.100200069102741
0.0912645858753735
0.0927717588365719
0.105738330311916
0.109261661497546
0.114245856496742
0.121907774055235
0.0987517981451229
0.0997223745142671
0.0999653312023339
0.0980744265485382
0.12050881093907
0.110473564927253
0.0911223118178805
0.0911823571986356
0.0890428809334905
0.101174695526578
0.0921722255979393
0.0927570103776615
0.0914186557802036
0.0949388642298114
0.0822130766027712
0.118953643273904
0.109349883334571
0.105693346486925
0.11025050503999
0.108870638307256
0.085292378699281
0.0907229615483716
0.0869944853503787
0.118776551822941
0.11667247839902
0.103985842994936
0.0930113110596795
0.0892000182174321
0.0989279839138561
0.112692054054525
0.0869523114472472
0.106971000086165
0.103296907148355
0.110917759975331
0.0885451665724844
0.0939459999766747
0.0895432234897868
0.0974708554097617
0.0839897800085879
0.0914606775823637
0.0874949451165228
0.105081800844438
0.0831258769310604
0.120834686166015
0.0839813255873106
0.133973705704576
0.110319213676556
0.0951052524367737
0.141385357235064
0.101282895035032
0.106458971625995
0.135423951937979
0.106190975923212
0.0898591913983784
0.0857889958017298
0.0898021266308441
0.0854210203009784
0.0959638690698668
0.0806340446645668
0.129340252954657
0.116723686558783
0.104420422212401
0.0913502040849642
0.100435471205513
0.064141549334968
0.1517211780888
0.120646984096257
0.107413291576916
0.0966793056207845
0.0912625253746151
0.0767317989730986
0.149408051167598
0.112163896171783
0.098590314912547
0.0763024207230957
0.0966803194334792
0.0693667635417918
0.118591716754756
0.121561772456276
0.105791286067228
0.0865650579828512
0.0903626988559872
0.136259904937352
0.143944999255376
0.103111985727433
0.096676491460056
0.0716723144294841
0.110319092912851
0.105510133740428
0.0969598366123802
0.0868033658118064
0.120318696883349
0.0887826176674931
0.101882936435413
0.0836081612471189
0.0888436957926387
0.101493496837997
0.105820186461506
0.0539709796463577
0.210268805044386
0.114723080505234
0.157118863049466
0.109300431636801
0.0998924080183351
0.0908206356142651
0.0931962719533327
0.0878906671051715
0.0866463858004645
0.088655812293407
0.0866128654664155
0.107853092352392
0.103656868696458
0.0906423158145249
0.10763394115207
0.13620419661028
0.10534380496074
0.0959726085540105
0.178985654494048
0.0872285287579628
0.0940684125654445
0.110239405919741
0.103400163693118
0.0634678313895676
0.120882259330215
0.0962547694773121
0.0999833929979606
0.0830230882964463
0.0874179298403476
0.0952003211719487
0.116312900604636
0.0862595296087005
0.105368347012855
0.0816722425673356
0.0899252141701598
0.0949003256687047
0.169103020916555
0.109688671634839
0.101938744961949
0.0857801538889958
0.0775164774820336
0.122432860356688
0.123705206220953
0.0948001738423537
0.0892763546820091
0.0766314780253036
0.0882025854872035
0.073947932379634
0.108007285031995
0.0625949314738786
0.0878034929364895
0.129032497418727
0.109345489807824
0.0848731571384519
0.0885956873540614
0.0939430585585505
0.0855179551532108
0.15749076242891
0.109038409620128
0.0991571597504947
0.0911935283138196
0.0783582142498055
0.119186626899511
0.102770362246056
0.0903194173278345
0.0876404543832848
0.091596899553325
0.08274979800712
0.0839291542780993
0.0831859875313367
0.0923733044015723
0.0858351098970871
0.09141931218396
0.082242688320771
0.0954405094789932
0.101900875729304
0.0895361615341613
0.0900709484891112
0.0999161379142793
0.0784458669720727
0.111168908921752
0.100249929769722
0.104822523011103
0.0829855742562142
0.095398212075964
0.0792613487638
0.0895300529053485
0.0760980625892687
0.098249177738842
0.0725483761915555
0.097138962632795
0.117943836945876
0.102567493290865
0.0966192665314584
0.0769241732985279
0.125970239679564
0.0894663746545314
0.0905122277028202
0.0847486441046845
0.0920576343495432
0.0713888900554158
0.0931808223632305
0.119178396479023
0.103532147234251
0.0912949254657447
0.113828900750811
0.0903066260077827
0.0987684131554697
0.0843512473587606
0.105283397843555
0.176703425761083
0.0844688349587294
0.123989744889925
0.146469134323039
0.105163419763746
0.119135065353054
0.0809692219737221
0.0799569452423941
0.24390524765545
0.139235820969118
0.094743853254744
0.101069087185508
0.12456302935441
0.0787247247058398
0.11205954786947
0.0886941673494113
0.129538501663401
0.102720908183404
0.185179329203163
0.134196118328225
0.0842241438179298
0.152950662011612
0.110207346507559
0.0995929884101825
0.0903484849037741
0.090866665330222
0.0943242107787169
0.113227303119921
0.11077287476115
0.124374074030677
0.0885806598276875
0.110165169657823
0.130534567629118
0.104882712515063
0.09441039802215
0.121972703457173
0.107556017393542
0.0884040590734864
0.10101636192056
0.0925789464473007
0.122050199929091
0.0801310003597003
0.1059091945813
0.150319682783066
0.104108730409797
0.120030882344519
0.132081207661045
0.108560618957577
0.103104775368737
0.0897373014505194
0.098557544469685
0.095817007807461
0.0917898761689212
0.0884134652938092
0.131355087543204
0.102962708546701
0.108896612535335
0.0902654483096588
0.102244426187013
0.101621153750098
0.112288819699282
0.0940580755301425
0.112832462685142
0.0968402576281327
0.0961289731010294
0.139423618910278
0.146352549605229
0.0830803876443872
0.181256900881695
0.116155823819448
0.120322682234091
0.092263507419361
0.11753971411788
0.107744965468442
0.109635993323297
0.106325065229271
0.118873016078227
0.11266627356532
0.136256024605783
0.121184697591576
0.122833925384108
0.111983855017583
0.202642999464399
0.17298864584757
0.137193016348409
0.114200319976916
0.101247664887717
0.169687708975835
0.127127768893059
0.16975749083708
0.146509090638537
0.120199857904521
0.135254885317152
0.117358529050078
0.136936124489024
0.122103245970036
0.140978174779726
0.123741583439263
0.136484626952851
0.123434147783288
0.145949479896237
0.107757611377467
0.166831374821076
0.170602211120269
0.140563355399304
0.136089093978897
0.144091488252066
0.119213255791252
0.193746200292194
0.162061980613669
0.240788298842986
0.161397253669129
0.222198025918064
0.190196503386537
0.166999179765152
0.158992458758757
0.156120527424467
0.161157195156491
0.171789351559211
0.160439474788985
0.177146751782585
0.161892455326598
0.181791624370416
0.168664360325529
0.184585834132874
0.16854735203962
0.174152751827658
0.202653768778905
0.179327685823203
0.192962321120786
0.183498609296704
0.202331463640265
0.253471753622195
0.246243318495561
0.206404000717037
0.219613115728042
0.197907209236942
0.199784078321817
0.211034536421081
0.20633747109067
0.217590535901793
0.219354342155283
0.271162845912973
0.21375729912245
0.25659279622909
0.221623010686852
0.225809380844314
0.242733181220323
0.228393052708805
0.250353182889657
0.275111578214805
0.234859092872881
0.235108896214209
0.294155500548257
0.269057637056128
0.262391091839148
0.264914104894233
0.237032432909463
0.269059830781384
0.253098866415769
0.276452040417967
0.244395069508994
0.290661834113186
0.27086412973857
0.285957820515343
0.286528589318089
0.282093889007518
0.283023971079758
0.325125014428575
0.28546667616222
0.318373434981078
0.288020289540475
0.293280626279618
0.302888487727341
0.286682033279022
0.335854858702073
0.330962706266029
0.333763028926527
0.326202959602673
0.309009210633014
0.319423292664321
0.318261169833248
0.332611183059365
0.316808669592064
0.340694784464109
0.353391301629628
0.342333041197271
0.321770458480747
0.371291125814007
0.346276822690026
0.369043323099727
0.350108297522293
0.36511410194697
0.356711877880631
0.378970626701777
0.368378714846421
0.370480554330162
0.411518971003622
0.42441976509481
0.42328757555577
0.432393625116516
0.369025868701657
0.39607207260486
0.380801146661516
0.397746974322513
0.376780509369542
0.440305560338284
0.40431716012871
0.434816270357821
0.415234670136815
0.458838287251492
0.419218145906195
0.457915624839869
0.423878766615511
0.454510627080619
0.444016917302062
0.46183992901544
0.427200396796701
0.473003154735535
0.428325085172084
0.495840533242022
0.461694738222423
0.519877579623378
0.472078756591869
0.508632079789492
0.471380142801281
0.498726820194839
0.476041631964237
0.521930305223361
0.471707175963058
0.494745737402746
0.498979715329731
0.544465664756303
0.513552339083569
0.536623078178949
0.496353971982629
0.527467542375482
0.535218102348642
0.550629250534691
0.535780907405735
0.581423139378535
0.516279098631899
0.569470376091126
0.54192529891696
0.563711852861285
0.539532183270364
0.60120471658989
0.589186256267285
0.601624068496368
0.58529164832805
0.613450006641071
0.588155916872871
0.609967543977604
0.557058909504093
0.593976611938318
0.555010539899785
0.638619110325885
0.59044888726825
0.625311644488987
0.591092719622848
0.650802208997335
0.620537845706465
0.644562649982708
0.620758042943891
0.654143271187853
0.633455450115007
0.655080539422198
0.653529712058668
0.67036010617332
0.674889679291651
0.699120661681316
0.639094046291202
0.717284482992774
0.660894700628701
0.716111682451628
0.699927342879017
0.709916795022374
0.656881947177066
0.718411466594016
0.6610672762774
0.74606483494987
0.713117437570729
0.75851209673747
0.6619318473648
0.794008035473513
0.688205614623343
0.755631204158613
0.69833219730449
0.751480694039334
0.769951582846075
0.831746477337265
0.697587513380237
0.815798056761474
0.754396684777007
0.810606866556413
0.734429081173369
0.788278723999356
0.738711522307101
0.792969027851982
0.800816131038905
0.865458822267112
0.774438105906215
0.822553026152556
0.71892517831944
0.815211281821773
0.778447580711285
0.823953847113907
0.827585944676923
0.854953952581861
0.809336189053451
0.860096633546011
0.823770871926954
0.849858540311262
0.845992789135404
0.874984614278714
0.825833482451835
0.94815247478917
0.837228647196081
0.945238204767089
0.847495732003993
0.92382487121384
0.845372021314603
0.853996906672214
0.826986834103921
0.929229235132876
0.879889138232199
0.929703561623288
0.914129550409168
0.977433277597155
0.909025391772117
0.907430598923885
0.885462677046615
0.964572519875201
0.927175619550268
0.941278383346715
0.88962640583701
0.92953894177317
0.909451647365783
0.88478401261217
0.938179815236707
0.937108903195807
0.934586940202169
0.967181325692739
0.935455900286449
1.0157962708163
0.871905254370335
1.03670097806063
0.902772553014868
0.98277389355457
0.969294202745237
1.0257875745774
1.0313768014413
0.953685419091079
0.957405470017226
1.08620838129642
1.00772136480345
1.06408691113575
1.01938861690893
0.974578409678015
1.09834350235433
1.10032820467459
0.978562074875507
0.983258626569087
0.989573274044573
1.07033278657504
0.973845036565091
1.10340174636188
0.977885263354119
1.02101208594839
1.00275830621598
1.09242736258697
1.02625388350255
1.09830040339753
1.0498667063954
1.0979301232622
0.962318255795106
1.06483167314751
1.08960494196476
1.0591374202008
1.01227495258599
1.18053131813236
1.05398119921848
1.06451354690771
1.12101109640302
1.21515911852779
1.09265241177191
1.24667607910051
1.04241236166366
1.15346322522049
1.12029553884027
1.19129627615002
1.12864473804289
1.17865310919118
1.05736354646025
1.24723568040988
1.06884445314939
1.13981220607335
1.15889998094629
1.17755593626072
1.08803783926104
1.15889764694861
1.12045879270857
1.22737475937867
1.0643549649771
1.21904427038529
1.10714773528044
1.14423030109021
1.11795842615247
1.19998202863132
1.14247752240462
1.13709769456492
1.19858395923751
1.24355933546779
1.12461490373586
1.20608815736882
1.2440221404797
1.24206010672663
1.20684660131134
1.39676627305865
1.15350022681339
1.23010120998638
1.19341576125221
1.27270309344125
1.15749368045115
1.25462163092043
1.13153730549683
1.28890702936093
1.18576373965102
1.18310390152851
1.15118517683791
1.27097435560535
1.15708819037499
1.2533333699457
1.25210397266754
1.21851923125668
1.14295546197379
1.23430814955221
1.15077414386671
1.21059174490495
1.17476551125125
1.2234103706332
1.21847338065725
1.25781227671511
1.20819187450672
1.27012248100807
1.19713929253667
1.24428206617417
1.23277741619818
1.27381904824518
1.26524529357076
1.30670637152141
1.13988002052652
1.34588634528835
1.2163284479803
1.24041022135713
1.16631684024139
1.29484725378252
1.25686670219541
1.26556650024484
1.2904123758615
1.29145591430863
1.19726103017492
1.18908896015122
1.13262373141568
1.20867068326539
1.16806310547845
1.21151369944015
1.3010128220492
1.22007252725743
1.18460029488951
1.21075493886765
1.25971823539078
1.31541416641805
1.23192333989885
1.26037608476604
1.23165256240622
1.37731986092394
1.25730156234362
1.20046475609737
1.17157887391819
1.25813532245593
1.22189262274417
1.33459840440425
1.296001173222
1.24898831540142
1.22893436528301
1.34939567681277
1.17151291585327
1.21980730700888
1.20156182403508
1.25744576738467
1.27925657048923
1.24075502283091
1.1227496572873
1.27233892089433
1.17241879986781
1.29297227042351
1.18490857935905
1.37032519991159
1.23039971694994
1.23101497702067
1.2076692043038
1.30671051438859
1.27052598294383
1.26240317470318
1.16883986352724
1.26891337360824
1.16247443180361
1.24319602144983
1.18768187391739
1.29674638493562
1.28666083097133
1.27642892816234
1.27834836319243
1.32557805289246
1.20554800794346
1.21755261957528
1.15181879496576
1.1763888619351
1.19028753553571
1.23604892965333
1.19093181144948
1.28052852324684
1.20709622281323
1.28885285229785
1.21409081157876
1.2752637110251
1.2569925154126
1.21604179756852
1.19058086440414
1.21704117234366
1.26023869835527
1.24972726944251
1.25286954881405
1.23147985830585
1.21922027602516
1.21306639837206
1.19661509869783
1.35277018839349
1.25031128532374
1.21960807125543
1.1951820649022
1.27755423342228
1.2127230496504
1.16323117548903
1.25250749314578
1.23442293625961
1.18089973213693
1.23803250726405
1.21017949172158
1.20469257176219
1.16733038489189
1.17774321034564
1.14390698935903
1.21981054218056
1.18598794720879
1.25844899969806
1.19722631888361
1.21252371328291
1.16299196019248
1.24802872206869
1.21240558423263
1.24085666262475
1.19162514032041
1.12382804293511
1.14613394892283
1.17739130217547
1.14338929868352
1.16843264835649
1.16944893948197
1.22092499989309
1.11616810458518
1.12816515831402
1.14455750254089
1.14744573435432
1.06031822739719
1.10607523037767
1.10888743712535
1.17246781248036
1.11828741808805
1.14668660901385
1.12191620046357
1.12475550679494
1.12294139547852
1.11357837171977
1.12025501335908
1.14356879051221
1.10752641331611
1.13295377646024
1.09633437447043
1.12805435949695
1.06134807710191
1.08244144282575
1.10937462326379
1.09190776851764
1.06533316877162
1.11046291223021
1.06443733413431
1.05488619693688
1.0594730171953
1.04347729491915
1.08556593613773
1.08494088078073
1.03860182220451
1.07834585091173
1.04604684308963
1.06373058495811
1.02706693999552
1.04695260702753
0.999139745317324
1.01104986194015
0.994646268698402
1.02919451529021
1.0572222049449
1.03159937438363
0.986836082996086
0.976642104951619
1.01229881625626
1.03751584116038
0.977875423245904
1.0070207327431
1.01300753868495
1.01590541722296
0.975634185349654
0.992490808515317
0.976185871002914
0.959164077051656
0.962169465468438
0.958257998918888
0.948182713909777
0.980705814427741
0.927652679072151
0.947938726699734
0.93841531596076
0.910085635915088
0.92590540817009
0.932677149009238
0.921032985640735
0.976413549482861
0.932703590765849
0.925096436725671
0.926382966448604
0.91115324050412
0.874200831908087
0.898531064255326
0.869885567226774
0.892369049779198
0.896153720866179
0.881264044880507
0.894856872530386
0.912616831966243
0.881862285306361
0.882708444231329
0.902621903342323
0.873073291808579
0.856749059895268
0.872013203916253
0.82704810099694
0.857658503788426
0.824852748696353
0.82698780052474
0.826464178927191
0.814599634253209
0.815842565858644
0.831381055535931
0.816373727876256
0.82141470172198
0.833462348756607
0.797498128641251
0.784188937945868
0.803471535866488
0.828866152260747
0.796136338450206
0.789964611389043
0.780614040609481
0.780975757747146
0.799683984394891
0.753997496416909
0.753989919906786
0.763518847113345
0.779699328213473
0.758569199256346
0.757731834105617
0.755007256367649
0.774724189235744
0.764466481843276
0.757457239485182
0.755486970450321
0.7513570195851
0.749545550710364
0.735684897781363
0.719101186180579
0.735097969180603
0.717402619653096
0.719282724694744
0.712414697950436
0.720399005271198
0.693889598812751
0.712409188759206
0.705860355682649
0.703047119711171
0.699280158000113
0.699091290933998
0.698318926829922
0.703723383782213
0.685588175476996
0.686112946200099
0.676748300727919
0.678524570379658
0.674722062213629
0.67273317026985
0.661912535363981
0.654917491544291
0.651486164543186
0.658855985265614
0.649803474384619
0.663947341412631
0.64464539437419
0.656588470850869
0.653625854295548
0.651313935798067
0.632955108340548
0.632746306412923
0.618753287390592
0.613292864367206
0.623855878328741
0.617782133923547
0.621439005343779
0.630406283763292
0.616511891043663
0.61686854301991
0.60546716185779
0.608433524450415
0.612358121257303
0.604479428443668
0.600541954968615
0.603589593863373
0.584167623367499
0.591837846393522
0.593246653105502
0.585887872080409
0.580504854997539
0.57495749156519
0.568004628246314
0.574599602758806
0.564783439078332
0.572320591489871
0.560976935880138
0.558440365166018
0.553918692768137
0.555953362217909
0.562548156652534
0.551108685815991
0.543394134033543
0.551695416065668
0.535269816906277
0.542568221062909
0.540465929571267
0.537208493760214
0.536743371507566
0.531019572382503
0.52510288519831
0.525476029441927
0.517619346964615
0.517544687872415
0.515621961430749
0.519995813646687
0.514501478887254
0.511030210970584
0.501978685926098
0.500028309460723
0.508858711716057
0.500217532409657
0.494667470041684
0.501558855084648
0.492118492531039
0.493980803598326
0.48678224054872
0.489238106028751
0.486945870006591
0.488134545429418
0.480965328588442
0.477893169908432
0.483690685632519
0.484608712056911
0.473032035262157
0.480760589216111
0.472623964760188
0.469118177419524
0.468882298390962
0.45536088740101
0.460469763871123
0.464619471854415
0.454081356890737
0.461084450155627
0.462420504345819
0.461596761764222
0.458004359305734
0.455234613377387
0.449515504953735
0.455131893437871
0.452052490145897
0.455288884317063
0.452025130462689
0.459659539571507
0.45848346305191
0.448987403459428
0.445135748251566
0.450023597061752
0.445247446468168
0.440846690852511
0.43994645080742
0.442912306694648
0.43827199294592
0.444714579898653
0.446052245384315
0.446950157492945
0.437986555209448
0.437197239067473
0.441586552864741
0.439073024686243
0.433585572528554
0.447388216737879
0.445000501429297
0.436312174189687
0.443571490389454
0.454548315095819
0.447237189839911
0.445590553905606
0.45207604158022
0.449430495567415
0.44843610172694
0.450927291838404
0.452308856309079
0.459017741462554
0.456280419601126
0.464191304500607
0.464143584997862
0.462333972051345
0.462458951234498
0.456483210427821
0.465203412419264
0.465407511938838
0.46353465993558
0.480441958830478
0.485798616829335
0.479533378504679
0.470921439135767
0.476550473806472
0.480152373974538
0.482627436172473
0.482558910772824
0.478629136938874
0.485041467545142
0.486773510171781
0.488396582513692
0.491839492206079
0.489109665914856
0.492007540414731
0.50035719890832
0.491900230403932
0.493020628075048
0.507761033990969
0.511787735911046
0.511745072720775
0.515566131058291
0.515989320858228
0.522007644216178
0.517320192822481
0.532952340054678
0.541801144183598
0.529098175033102
0.543500887971122
0.550782465239047
0.543395161833151
0.550742942907229
0.541923537070814
0.544431043706215
0.556039585974446
0.557707711497296
0.55206371967797
0.558510901456535
0.557240961171335
0.548938372747636
0.555991743009606
0.552991184734063
0.554332594387521
0.573870490248443
0.564665227103745
0.560094041725763
0.561906803755786
0.559778543767013
0.56623055589207
0.564289888952168
0.561456270419528
0.558197805771031
0.569198933270254
0.573786046356169
0.548343361660596
0.559438893931748
0.557123128821647
0.554067851301708
0.561449288350524
0.549612332362426
0.556363248904977
0.553033226897166
0.553766964166501
0.555670068290492
0.55516788988287
0.553386697586047
0.548137418382185
0.556447925843185
0.552474735259056
0.555738255940451
0.555156877930076
0.553281769275209
0.558072763813584
0.557234988390236
0.553747337195036
0.557676532339934
0.560034954692234
0.558358750795907
0.556822649809031
0.561318111082496
0.551485128197091
0.556119984581444
0.553960380753437
0.566439735394018
0.558800104381024
0.547950595028439
0.551191995573183
0.553014659349073
0.555639311824524
0.55235358020171
0.546718466147365
0.550774242925024
0.561033048742308
0.56051517187518
0.543912453965368
0.55800004385848
0.54287597596397
0.547012407109419
0.541642704051897
0.540605006196323
0.542580092079049
0.534431454858586
0.536693378099319
0.533589249971752
0.532776809970383
0.532915413500054
0.526238843101769
0.532325965604156
0.519540102553595
0.512390300749198
0.507323441228925
0.515765468608891
0.507852657976254
0.517548971840514
0.50385579906516
0.502255978975877
0.498193388818645
0.493234706290924
0.499654991537954
0.488847703233284
0.475045349342918
0.478943776510458
0.481397342630637
0.472207800447968
0.462173034726062
0.460012341268559
0.464486859411328
0.45819649709762
0.460972909867564
0.457453572646416
0.453303495343693
0.451957033582584
0.446061661211663
0.446350126259317
0.441000114329893
0.437507474810647
0.434751090866178
0.432314774986243
0.426544494635895
0.435644287980832
0.438106407211285
0.419230957744913
0.421813104127091
0.424579425572415
0.429478126692569
0.425202079535736
0.412969459570993
0.409266926583193
0.410342774206212
0.412556668879797
0.406884631165152
0.404513977781374
0.40203166993352
0.409682482164906
0.402476170276987
0.398983467714905
0.399004426596656
0.401526220816981
0.396154358613456
0.397409344366078
0.388386075448074
0.398427006693126
0.393898932133731
0.385528247592124
0.383310193192997
0.387557262627789
0.387236700428143
0.385093421518945
0.382476540848302
0.381303486659763
0.379967771473462
0.377261952947473
0.370951451515075
0.374723816185317
0.37369521230885
0.376100312644829
0.373905723170411
0.375035148085701
0.366082605279315
0.370042618365437
0.370622517891653
0.365706633782244
0.358593108761658
0.361509884998977
0.363499916017832
0.358860388153523
0.356082872096503
0.357656308510808
0.359792291549197
0.35690547177302
0.352545165534249
0.359999856433032
0.355836338961513
0.358887691551322
0.358162563743079
0.350954209704498
0.353705677325526
0.348042476223389
0.346887911607744
0.349361510992722
0.349719500616042
0.351382241801147
0.346444389153896
0.344480097464298
0.342212081027293
0.335126584497389
0.341073324321693
0.344773742765024
0.340196409144275
0.342537966392226
0.334469500394201
0.337673621119124
0.335682863177824
0.342061723387612
0.338242646261688
0.334421462735539
0.341497555933549
0.341736077799614
0.335454002851134
0.336209242380565
0.331438255760604
0.331888946205818
0.327148975685122
0.333705296048072
0.332660683490002
0.328076492835416
0.325367913229168
0.327905689635374
0.325482977871394
0.321744340225151
0.322741879710408
0.320813385396316
0.325858523104302
0.324263078967208
0.326512955433163
0.320746185018858
0.318928369293279
0.322194456728389
0.321716432485762
0.320401089398786
0.319688539649102
0.322104147066255
0.318872586626922
0.316656745253884
0.315161356563777
0.322879578497392
0.318686641461719
0.32158521645541
0.317517314395588
0.31958396530125
0.315368960810421
0.316032757500958
0.315923725406871
0.328655932902042
0.319158013585119
0.320794858679938
0.317245069465833
0.314600259867057
0.315572915850936
0.311809651943765
0.314418911911243
0.316945592250511
0.310750699191914
0.31153060478199
0.309443413318253
0.311890557725093
0.311456439194596
0.311263209280855
0.307674427005268
0.311553369722207
0.312336613438499
0.309187068752533
0.304569255366388
0.306763084523831
0.303456899155843
0.305407396622109
0.296403216642272
0.308932122950195
0.300714093748155
0.303168968066161
0.305258734289565
0.307539138795162
0.303106467308594
0.305505918029321
0.306112309305794
0.304267045286335
0.293566412411
0.307748402208982
0.30171932722876
0.299250361204127
0.292978077848228
0.296902449718624
0.293396716422234
0.294659519460211
0.293967351263489
0.294597805652274
0.292063091407227
0.29643276606113
0.290099737545028
0.293248265864629
0.288909713386102
0.292020402581696
0.293404414182911
0.288177262322861
0.287696602898755
0.293053121432805
0.287686690258469
0.289940681089454
0.287498755088756
0.291031130997191
0.286843171651627
0.28456943945076
0.283817941060401
0.278065543471052
0.28481450208888
0.282454864683839
0.285992997620669
0.287068297843271
0.284079108895447
0.28193502277971
0.279851614223637
0.282275864298761
0.282417298659153
0.280189492884924
0.276506810731716
0.279078049361704
0.277743697602714
0.279200144836844
0.27565031335638
0.273901693680655
0.269044835074458
0.274333941760108
0.269635970641164
0.275582899434649
0.270134153720468
0.271124493708412
0.267504668431171
0.271979576293352
0.268605584530503
0.265068895016629
0.27009359661292
0.262597244282286
0.267389683757844
0.262852172490236
0.258567820482942
0.262865456215941
0.264852108356509
0.264283879089954
0.260724870964123
0.259138080597261
0.2537410862981
0.257053244286033
0.259336261765832
0.256603668575712
0.255411952733142
0.253674530199176
0.252049999762442
0.251580047363085
0.250383349291902
0.257053971023618
0.250187275137212
0.24737643102495
0.247245338929152
0.25096396300929
0.248101254947662
0.252009808048133
0.247537844769596
0.250611720134102
0.249659657100557
0.248556078006729
0.243699821940733
0.250532021895937
0.247411128420362
0.244885198614474
0.243256069752438
0.24247734256857
0.245913487034711
0.242469952076429
0.244213405428284
0.244003402757457
0.239315086355088
0.239726761962389
0.239957743484269
0.237404737691291
0.235268470380578
0.233661409901007
0.234721122373217
0.237359216280718
0.238958650175952
0.235731241722976
0.235820105248214
0.233020118565809
0.235480810949892
0.237407927524566
0.233308287139808
0.23086118739428
0.230935954689334
0.23153321070288
0.234450931748613
0.230960958525149
0.229955776032787
0.230234324428275
0.226351599390404
0.229332203080369
0.231462139967812
0.225411794854897
0.230587255236782
0.227543516418411
0.224518399137034
0.230672808707948
0.225515559677774
0.224251156862139
0.223288661685538
0.225139573098448
0.223171594931326
0.230080336425617
0.227459969572102
0.226613823031934
0.2254173746959
0.227194081190364
0.21990026424671
0.223657553039732
0.221666215442942
0.222255260899247
0.219808927657711
0.21908437098445
0.222932320577718
0.2194731495624
0.217797399909221
0.219838121404795
0.215519480942505
0.220077926576184
0.215067186028914
0.22117471389387
0.215729288131223
0.214081455948098
0.218979833099104
0.216095505770233
0.216377288136901
0.21980721165061
0.212384329850433
0.215714724883632
0.218443149496969
0.215696978431304
0.217719909050269
0.214443955590836
0.214024471794168
0.219769591115878
0.214519629091478
0.216215013776307
0.213818397851175
0.215747559344346
0.217954098591007
0.213848194727822
0.210426927343047
0.21476559924479
0.210432070938257
0.213421943442307
0.212133392209416
0.211107759195882
0.214681066568431
0.212762628190036
0.211573388740742
0.211346057441742
0.211743636479581
0.21258950617838
0.208072098690239
0.204067579480558
0.205882577993333
0.204766941192471
0.205286714353148
0.208249564621372
0.209150602119283
0.205178605714081
0.206536816279005
0.203761867130377
0.202205343972302
0.206459422762607
0.206358883085826
0.20368414750707
0.201058677944621
0.202491234019123
0.200403602269727
0.202969726200966
0.202474949260838
0.202422688302223
0.202044695139242
0.202990192123408
0.201041409667757
0.204616007617119
0.201885078653541
0.2022852011112
0.201321480386092
0.199221390508424
0.194986814654627
0.199071452842073
0.201944797931309
0.199099455071783
0.20206029994465
0.199194199969077
0.204012171802635
0.200213979339838
0.198186258125569
0.200135758728168
0.200406764628873
0.196697605451879
0.194296186391079
0.196729202858112
0.195844469290255
0.196318849491982
0.196708806469196
0.199365866313567
0.193748394429498
0.196856291245511
0.194116564697153
0.195747087080982
0.192517120884697
0.191248704808349
0.192017699650317
0.196218637078452
0.19219953030045
0.194000967010592
0.193264328052854
0.18982659469887
0.187840499688902
0.193636383952644
0.186178641342222
0.186612002039
0.191559531865693
0.187834769047822
0.190243526096306
0.189640524072528
0.188771518106042
0.185096494998749
0.184468365610055
0.185671380555229
0.185246172274599
0.185230332546658
0.183108166802205
0.182910994354815
0.182172317689538
0.184621099032677
0.183389850344437
0.178079368111182
0.181001956575251
0.18496932121399
0.184683720311173
0.177329181738245
0.180145689554797
0.177017487679034
0.175607972453207
0.179443239764356
0.179375785423384
0.17690464162026
0.177208457436986
0.177190095778849
0.179712202589459
0.176315729539907
0.174151945247893
0.171660927411739
0.175628216176957
0.172810575019093
0.175213355915697
0.174470751416153
0.176449787897255
0.172435196233842
0.175042336547072
0.173223674963941
0.177924980644536
0.174120063817707
0.170015968350715
0.168594020962568
0.169148295924764
0.17000804157403
0.176620279527923
0.168620817662638
0.167885675458114
0.16897778502025
0.166565604338545
0.167030693574759
0.167332547842477
0.167091527537518
0.170106365289557
0.17121487372826
0.165164667440449
0.162371229343303
0.163605917600177
0.166512311551792
0.166808824831804
0.161356268657419
0.163944566378513
0.163188138361247
0.164407458347309
0.159948609659037
0.16424578645973
0.164490548894549
0.161230772658269
0.158705037077392
0.159791361126162
0.156880028343293
0.160702733756972
0.159449405890387
0.159652913291907
0.157114888667595
0.158960131406173
0.157459880415167
0.153338861094171
0.15307279039833
0.158532323678596
0.159387282006909
0.154956409444512
0.154714083380216
0.15723044978808
0.153751006723204
0.158772382695031
0.155979722624563
0.161050333877896
0.154451806967427
0.156441569607144
0.15302447830717
0.153050695858701
0.149674659479575
0.153606913265067
0.152738386600243
0.15489742024233
0.154214855373508
0.155614075032549
0.155553393501279
0.157785979118262
0.15445630538011
0.161860833878072
0.157897461524081
0.159570734126763
0.160467487825707
0.157952579920938
0.159461950490298
0.16079615196894
0.155946991274088
0.160969392046586
0.156739934099671
0.1577036726137
0.149750195002434
0.156452399229636
0.149379924889407
0.15523616068562
0.150048471921886
0.156646505782973
0.150695047989117
0.157735572249055
0.146405429614138
0.156750868485247
0.141889680014111
0.157202211670176
0.147854823306926
0.149772966391698
0.139499634017283
0.159732410136123
0.151220058629518
0.159699206333504
0.145438013082918
0.157752425512479
0.148434303682777
0.155244079964664
0.135732243380525
0.159448898080892
0.137523429672418
0.155319551065315
0.133146472008863
0.159411402288525
0.127881595529892
0.159855707211728
0.128559717695124
0.167772622997166
0.127386763699848
0.162604589806269
0.123816814986367
0.167873604819826
0.123914702485507
0.162010467069636
0.118352976768786
0.171248665375028
0.121159207250196
0.178118874502765
0.121059916480494
0.173666736419929
0.120518750458092
0.168908400971699
0.122161108808192
0.173966781975249
0.127776724200498
0.159824559076633
0.134719951969657
0.157425118095995
0.145537245050223
0.133528873980881
0.156002870492666
0.135662644919155
0.164037475263794
0.116795982872224
0.177834433737015
0.114471787452864
0.173822634925186
0.121700668845531
0.167416891203583
0.125411743016448
0.162766028801014
0.130494607213342
0.146127083131264
0.141696891398802
0.14046875606067
0.141495668203189
0.136960321619002
0.137986760991109
0.143492677125033
0.133770648622822
0.144209879288633
0.132243763872123
0.146123070025827
0.131569996648696
0.142039810313766
0.135521143197354
0.139361259643797
0.132542756368837
0.136891847827503
0.132197698386723
0.137784164865161
0.130879272075496
0.139770742064637
0.132984328303874
0.139221723291811
0.12757406218833
0.137061608182652
0.134143729565656
0.134848739213181
0.132452243797173
0.138086385743971
0.13095894791656
0.135628201684978
0.130914118491488
0.136173464036089
0.132511081780301
0.137966577760756
0.132129011006461
0.137856022961422
0.133594687209425
0.13541220082224
0.131862731739473
0.134810660896136
0.133110958366973
0.14018708757526
0.131034126883797
0.136943236096305
0.132669203501719
0.136519303909301
0.134877125489104
0.135291933835233
0.131814523046873
0.137573943364002
0.1289372125613
0.134648483473765
0.132701584431584
0.137759965098978
0.131548376504796
0.135968661415218
0.131761412143458
0.13388286754448
0.132226612973826
0.136398692967077
0.131975522578287
0.133929481589934
0.129878885655838
0.131734873847573
0.131165769639721
0.132317273552423
0.132473743687695
0.135587865357374
0.133804263106846
0.133632945243182
0.130491575119224
0.133915158371895
0.129406820269639
0.13480791109805
0.133008817930799
0.135325062158935
0.131254540967574
0.135716108458679
0.130202871985868
0.134132025777015
0.133351532051034
0.133452453810895
0.133028104438045
0.13612575390388
0.1297235980111
0.134125384110323
0.134609017344305
0.132417515970554
0.131643826131018
0.134939812961293
0.132501787920521
0.137073837672191
0.130105133412091
0.135618311210314
0.134083858955773
0.134714484943541
0.131807290973514
0.134207397307164
0.130679263372507
0.134076912874438
0.132236121376788
0.133971105971763
0.135788842018764
0.136561539922751
0.13352492540507
0.134436679976158
0.13097542246852
0.134626230694096
0.136373319617684
0.138472891984345
0.134796431736508
0.139832913996501
0.134260084549434
0.138486733012049
0.133124112231553
0.134481728260998
0.134718384454319
0.137200252439563
0.135012747502745
0.138129389989503
0.133533630746595
0.135950143986434
0.133958701700856
0.134544587864427
0.134792684599674
0.137982999387738
0.13371519629048
0.135332097479221
0.135001742684182
0.13594972965831
0.135957155844414
0.135583245854315
0.135326504250439
0.13626650941872
0.132779883862938
0.135899229422883
0.133585506941564
0.135567838835129
0.135786219312476
0.134217759916
0.136996000407891
0.135755872765198
0.136853748595886
0.13689197228262
0.135824530621221
0.135776570718935
0.137112580441708
0.140577891135946
0.136657712227455
0.138696356566632
0.135290347629178
0.13483215715057
0.137252575036659
0.138766922245039
0.137385695792219
0.140944206551569
0.140622406544444
0.140284443395325
0.136423045632864
0.138293223391246
0.134607377401496
0.140241563844991
0.138392886282535
0.137807498959773
0.137700065162425
0.140630632849254
0.138106967930569
0.135486235265945
0.13714589243032
0.139591453757632
0.138911015226491
0.138141967033791
0.138505845628797
0.139120144925802
0.137570586712659
0.138479429770901
0.136054262216466
0.137684797724802
0.134010629927695
0.137876742476868
0.134770330718904
0.137969058119242
0.138694983327453
0.136700204283534
0.135334311818037
0.135926694040711
0.134246912959207
0.134476542253749
0.135225053332792
0.136453163076062
0.134193878578559
0.135261711270315
0.132150171954526
0.13327537563531
0.131925210546392
0.132804892891897
0.135438584874044
0.134278524895554
0.133500362287886
0.13617203888235
0.132776404930883
0.133663404774597
0.13338306474661
0.134939713821319
0.133621482306645
0.132319020753832
0.132677054767925
0.133297245903076
0.132568369565246
0.13269878566145
0.132905223287418
0.131796663428773
0.130288461140582
0.134482324222321
0.135179861248931
0.132862501164345
0.130054413137615
0.133882377893099
0.130971669398445
0.129763335350358
0.131439708234292
0.129996764268499
0.13131246951871
0.13164342886091
0.131206788876271
0.130067570559285
0.129845211428537
0.131538145976738
0.130430688458316
0.126700491220887
0.128601022199166
0.129527272879635
0.132437465298946
0.133179931722804
0.130070431684773
0.131933926266299
0.127256958100133
0.127040900266444
0.128396711318494
0.127167816357562
0.12665117557405
0.129500871414914
0.125685203006978
0.126860608826153
0.128467162947698
0.12976435202856
0.130319791353364
0.127350937507787
0.124708344940525
0.127253935914921
0.127866316142407
0.125511903664401
0.12716196649425
0.127065963162758
0.124112913560369
0.124555578691923
0.126139155641835
0.125488935696899
0.123147507090251
0.125352978821029
0.129444280186427
0.124623633155701
0.12580731667954
0.126882754451895
0.124236901845573
0.125772504711599
0.126204191380615
0.125128533577099
0.125224297855123
0.125428089167001
0.121035218078745
0.121789881005153
0.125475307703308
0.122879573353051
0.12281579561893
0.123000571513121
0.121875223747727
0.12343140651205
0.121887085460896
0.123006104776526
0.124808886595431
0.120250864253768
0.11972095058087
0.119409918383161
0.120716273944282
0.12448785312028
0.12297468430049
0.119550017408544
0.12188937659893
0.121995405998748
0.121546359677448
0.119852016442742
0.119371062546186
0.119559062409689
0.11708374371462
0.118923790293905
0.120015059947529
0.118265627107555
0.12012681940579
0.120963932967722
0.116420555527864
0.117736039131447
0.117246595284149
0.117528242017115
0.114814196497725
0.117830188680385
0.116627804841935
0.113593750619991
0.112785445469652
0.117955150126871
0.115920665859267
0.122219665419794
0.117210948432253
0.113351595437609
0.115248012086466
0.108233293719483
0.110442534959373
0.109224490468843
0.111003669424541
0.112511621068369
0.113443136794183
0.108826255473188
0.109727797717081
0.109991273577076
0.109593471399868
0.108578675019789
0.107214716411258
0.107140362832472
0.110752983875081
0.106725392987888
0.108778729926554
0.108667466267943
0.107124865509087
0.104172033801237
0.105828502439788
0.107208319859003
0.105168516968909
0.107808493934952
0.121316518848425
0.107225298030348
0.104987600190967
0.107249466589578
0.109486475812713
0.106890151283193
0.108223825006069
0.105039941501065
0.10630683965011
0.10422484920273
0.106805520905373
0.101184572277371
0.103378868584258
0.104361482232061
0.10387657885629
0.103995764020668
0.105719849216843
0.102226334841782
0.104602270770474
0.102739613003759
0.10082614332798
0.100930582932287
0.102738969772652
0.101290824006692
0.103459914977269
0.102529481956383
0.109378542361032
0.104047678333284
0.10238713546692
0.101679854034609
0.100446868981462
0.0996374183560864
0.100155544072131
0.10360037588643
0.0988552821965791
0.101605994785428
0.0998739514008198
0.0964214678887452
0.0980134866569492
0.0991500403081581
0.101706259348404
0.0992241238311472
0.096717683611996
0.0969262385403133
0.0976756956891311
0.0972895043900961
0.097631784887272
0.0950765981655041
0.0949466715647942
0.0975715728324487
0.0957257856344813
0.0999371756572197
0.0988253124426016
0.119528777384249
0.0980123751418995
0.0975855805678135
0.0975082526441454
0.0946570502348826
0.0957367990565291
0.094180909492172
0.0952734588228771
0.0952343586668727
0.0962561393319643
0.0944772780372364
0.0932330414067855
0.0951193800406385
0.0945720237310444
0.0947891026634375
0.0944437584972536
0.0936928820322605
0.0947752338426492
0.0952606594584646
0.0931247730925768
0.0968479858741143
0.106331677270097
0.0996180306895777
0.0903480462433448
0.0980688612436711
0.0943190139962761
0.106356851198939
0.106478686015207
0.0870547899768989
0.0969564464440174
0.0882388625235443
0.0959009529270258
0.08942363516343
0.0973120376485686
0.0919366776155865
0.103642572572163
0.0912614647653732
0.098945112652872
0.0927952485950022
0.0932795122552447
0.0905034897587932
0.0945925086095674
0.0904215886464942
0.0913678328679059
0.0928127616091879
0.0931512889560195
0.0894594718374312
0.0902034403109126
0.089027143726226
0.0920500148057071
0.0896514578137923
0.102110095732735
0.0880484617138861
0.0925616549493429
0.0895496604351179
0.0932417173593747
0.0907482851736495
0.111456171864852
0.0921755823429967
0.0898810205306329
0.0879791337517658
0.0910981401646217
0.0914353172818389
0.090372294050842
0.091848768002867
0.0917704944938151
0.0894355415850376
0.0906164033875669
0.0880750271886485
0.0883064819629728
0.0891951444968095
0.0905890910001122
0.0881138453794114
0.0872423410714093
0.0916827130556477
0.0897226789486539
0.0902156161915812
0.0921927791638548
0.0998103231005852
0.120196846032718
0.0974397566056743
0.103041275462479
0.0919873554969434
0.0941624958304792
0.0849213346896334
0.0918884542215
0.0851422695798272
0.0920759472878831
0.085021477844126
0.0914520318141732
0.0882832345206961
0.0914156920166326
0.0861839299009731
0.0903343192884855
0.0856226593841248
0.0906665548022398
0.08698410112789
0.0899160214590922
0.0878758663954375
0.090528037395191
0.0894641650936351
0.0994571480197257
0.0974082856098727
0.0916371669929444
0.0941346092698677
0.106815409323284
0.126438352696254
0.0865751383892433
0.0984951479356422
0.0885591106987821
0.0906762712067965
0.0872790858883938
0.0895040833328672
0.0962860383863537
0.0906098382724193
0.0868673065179039
0.0900703622532754
0.0892466266620596
0.0926228032082836
0.0884683183350102
0.100697007935353
0.123142456163312
0.103988677290575
0.0919166446181359
0.0948626287538768
0.0976708185023008
0.118393908016382
0.0947258408190001
0.0893381929363516
0.0943563399979021
0.0857072234669629
0.0927763195791934
0.0893923844985062
0.0902617012735117
0.0928902760308074
0.0947616843673062
0.086237256577648
0.0912054461370583
0.086570422860424
0.0955487300854819
0.0953785723213072
0.102995755529726
0.105479171001208
0.0942008748976347
0.0907928598187034
0.0994673118630761
0.0898458565024575
0.0947304772288622
0.0900862790663652
0.0950916054435958
0.100062299297224
0.111463600016057
0.0995832977752721
0.109060288795805
0.104530439221967
0.092992164406689
0.0982409545802157
0.108628907527225
0.0964647698448851
0.101049808066371
0.0930867334918581
0.135841739217268
0.113532153645372
0.119938019148346
0.0971242270648346
0.0967755421586424
0.0972237229189086
0.0962223036192135
0.101462805274182
0.110623081656889
0.10586766896358
0.0884683219303011
0.101577954317067
0.102306277960012
0.117199556896963
0.10159566750538
0.103815452867635
0.0963665020276552
0.106351897915389
0.105856563155344
0.108285216529022
0.0965630254734113
0.130416573767837
0.14032590589877
0.118338547042023
0.112995393523033
0.0984463242690482
0.134557098296838
0.118066712746832
0.0995893902334923
0.104270657084728
0.100804575063938
0.105392390464137
0.105002460091609
0.133175331013135
0.115947597242676
0.100080879192744
0.11132713249122
0.107772279544141
0.125011000089232
0.122003274946286
0.105072887330429
0.11084675270024
0.110723692559292
0.117515380650461
0.139153591146374
0.144672681592718
0.115739246173043
0.152762517151443
0.130067096041182
0.13300580123654
0.124836766997235
0.124822676671919
0.130957485716544
0.146009284292581
0.123585141744628
0.120438183649942
0.136884718054585
0.152897629222787
0.129035284505904
0.129881718732174
0.129310275367585
0.124733739752042
0.175329710083139
0.191556814383184
0.157250994447345
0.137107080576718
0.140548992866391
0.161346194775765
0.146875247632072
0.133755920489161
0.13743237542597
0.136298965079582
0.139582494703866
0.141879823805842
0.151072160832397
0.150355324639738
0.145956647933761
0.147604051352375
0.149363974053982
0.181104923764097
0.197126340539439
0.193667484786954
0.173851466469912
0.187966983543657
0.196912909007124
0.167319570255773
0.168307831548265
0.162990138787069
0.177585519098322
0.169183162333464
0.167698568707725
0.171353262260425
0.189178237185404
0.199906516235472
0.188803748978568
0.205729687159831
0.189361506417053
0.188997649457409
0.201383242569558
0.295739227730721
0.246621739977254
0.202528666947579
0.236772881700974
0.207081417271444
0.296277627126917
0.244145753717564
0.23064260829697
0.229580776622428
0.243155212688179
0.24918060477077
0.261460518762937
0.262647444616711
0.278968650903053
0.273468983149378
0.27979085295707
0.279362798462014
0.393183993499297
0.35276418005239
0.327913378802428
0.309041504771856
0.334817513439126
0.333690976163407
0.335513903530406
0.330230426573694
0.348186032929938
0.349692225762862
0.421615060403395
0.375980654672131
0.377306594415306
0.391447535301542
0.414445111289036
0.401432472953103
0.436591628405331
0.452757401345225
0.418602397574975
0.430808890798251
0.428711358491538
0.447441837177359
0.448235748819456
0.476073574668545
0.495989864689516
0.471393236550119
0.47690295505136
0.481944970390466
0.492472036559979
0.496548863791145
0.51960367169951
0.515476015362113
0.560150934751824
0.609988523305653
0.698132470566586
0.566657962933496
0.517786726488496
0.534015375989507
0.535833530474025
0.564340188570224
0.581707498505353
0.59646782613355
0.591623949759594
0.535877906247748
0.546005008118199
0.546562325852872
0.551424062234148
0.552168593741943
0.562729590945522
0.550961759216068
0.566065448491337
0.575206897392941
0.600418612357512
0.634330944662402
0.559965943878292
0.542677069354524
0.559615589490727
0.549832202046531
0.545890504253204
0.546571544817529
0.563912907389764
0.572245273147596
0.547740182919206
0.537078912227372
0.529873527489285
0.553918130712913
0.55104237537874
0.503651761801933
0.520598451815168
0.504442750592488
0.506763557032115
0.495032475032191
0.516420230768834
0.544823068424575
0.498077003594459
0.473275097513558
0.473657900212577
0.468921597362961
0.464893087484494
0.467666397291482
0.475652886868718
0.459897042099677
0.461782989075287
0.459158181212649
0.45669480110432
0.44762409860728
0.449941874756692
0.436562790019182
0.44963499652345
0.446210453954667
0.439371507611116
0.432351625386096
0.439413590981193
0.432590717295123
0.438023781646392
0.437609807845682
0.443820391285048
0.438240335800815
0.433322138652662
0.430462980535781
0.43867453729799
0.43365886335815
0.444642621071849
0.434331971882236
0.434287353107631
0.436318487065058
0.436986441292861
0.431646599467656
0.438167587564542
0.433073672957321
0.432860548918491
0.429306468367104
0.42787009625258
0.421698925947823
0.432908259392377
0.423383508284441
0.473419665962439
0.461803007879331
0.415889371474903
0.41856131457911
0.421088253739302
0.416391427283471
0.412778768691009
0.462730871552642
0.459807984986814
0.423699215545472
0.419635311603832
0.405418385712231
0.428165258494244
0.415457162931834
0.406175405758774
0.40325358955398
0.401227851322805
0.429014838067791
0.498818870854269
0.465577421509294
0.488083111297121
0.418285743013253
0.39254088924912
0.404068699822039
0.431279165388504
0.399584111648929
0.391062665717128
0.384000280484334
0.432437151368874
0.405468621737389
0.386767502249034
0.381464416580052
0.383059976906373
0.409965084553697
0.420218824062057
0.397566555194377
0.403026842135083
0.416978746382603
0.4040629411647
0.429932635361599
0.446162561491645
0.398134727407703
0.367687950782519
0.357065580749838
0.35729513003974
0.366476533692091
0.406666123230256
0.370512561382086
0.363616803606253
0.34433584637858
0.339566739221616
0.341371022399297
0.363958547145499
0.348875486652407
0.352244374631456
0.370491455206202
0.336636804568947
0.34139435383753
0.365423264007839
0.374828627226846
0.400336549144191
0.338115526005306
0.318822298911408
0.357681766086006
0.370674384544895
0.334232399055657
0.337407018356995
0.307233675009203
0.320756772741975
0.321342577025268
0.308182011835134
0.318833170574669
0.331713090919692
0.329935123954769
0.373102006345347
0.385944604567017
0.356565652728471
0.308454930189062
0.285506192422737
0.28713201917674
0.294594319132744
0.284209832223346
0.277980307420128
0.314273403035855
0.301420158070649
0.283922627971914
0.331832005266374
0.298787251056997
0.285548492213112
0.283357605646901
0.28524476395601
0.289271094501824
0.322323301267809
0.337672366870563
0.316095350076158
0.317196563593619
0.332386917145649
0.311383786706235
0.310970001993063
0.312924515592121
0.314908063263231
0.323084660414031
0.339460435454386
0.329906846046101
0.340618413476183
0.335321900397564
0.343201330730967
0.376481641111841
0.388798723129371
0.36158259605829
0.402109655658716
0.392393409654126
0.444513508865672
0.410258779001801
0.404403590694818
0.396357115681371
0.409898632411914
0.414497420053485
0.420285867942196
0.434778970059175
0.459152992113375
0.42717489670249
0.441817161367205
0.438861544112957
0.44793579195872
0.454354628922538
0.488200110565046
0.473215291337731
0.542352424928633
0.517141495339566
0.499848360191267
0.480455210486885
0.471899892135981
0.481556184494857
0.484250627402514
0.479698828150532
0.480064702981406
0.487644188849055
0.517085456139786
0.492226749051141
0.500441095797313
0.488363619131001
0.498662438898032
0.488281010865633
0.499815049818938
0.493288300798901
0.504837358288865
0.514432081025256
0.514997539757762
0.518197066706888
0.605957431791537
0.535591813300566
0.526622311346034
0.529345607112473
0.54132160363133
0.534453989492816
0.543687906451142
0.559504758892601
0.555880119289637
0.550551146842188
0.556563486908983
0.550052417958862
0.571562080131055
0.576404646748511
0.596520411976349
0.563740031099122
0.579277975987128
0.567613013156666
0.63473654268709
0.62716457975932
0.601322803524356
0.60198103947868
0.598183415269341
0.592170189120199
0.595734166848445
0.590120087699209
0.600566164778141
0.605852919651408
0.610850148718784
0.602186195732799
0.608132658948219
0.600897325602047
0.595173747649912
0.597016756955856
0.628673270270113
0.604313123317405
0.609735295775144
0.613033976835607
0.597253167837449
0.591196578556789
0.643257829750258
0.620411277606275
0.607576595166983
0.60324969418124
0.624201331667485
0.639876474068366
0.612141744908916
0.60350839923434
0.599159135464978
0.595887782802642
0.608526582620378
0.602450990041544
0.622986628035878
0.642876429728399
0.628621206527078
0.61526184637654
0.620617163091029
0.622043673528584
0.623996113151738
0.618879548711507
0.628430989608487
0.627971478266614
0.633508905516083
0.64004460964305
0.639690418400472
0.641825791719675
0.648480209569833
0.671855625329724
0.66434133135889
0.634291931421615
0.632634802122961
0.631113152347401
0.634611398333111
0.640012715381351
0.632849934731973
0.622212331999924
0.627834363100584
0.609258343617079
0.622593061807393
0.637099193552119
0.615201648651906
0.621854381601751
0.600672324629638
0.59054930793265
0.597684317861957
0.581450905171817
0.586210443821201
0.576469207806726
0.58221030380441
0.572795832565339
0.574631691461112
0.56498131760366
0.57399690908163
0.566828673054185
0.566072998924153
0.56115744337322
0.566584295240554
0.561953738759265
0.569574998477566
0.566347849964589
0.562654051851132
0.56388128296527
0.560931576250969
0.573029594746593
0.58691294358632
0.578056118822625
0.566234280736175
0.567532857537004
0.57013153928816
0.552046242188954
0.563668726230004
0.550230303549466
0.562081618592257
0.554829899577077
0.556846318559256
0.55853131923833
0.560068286647066
0.555154598446029
0.561769169589964
0.551917474307299
0.559747693919521
0.551652738443191
0.554538822308491
0.551423411132201
0.559856048819307
0.559096437255198
0.56512497562869
0.558487388379036
0.56194098560377
0.552666042740168
0.560578171224353
0.55656280194622
0.55729325923149
0.560275723771972
0.555393522333089
0.54810577341226
0.547258190851838
0.554190338129936
0.553756841391624
0.551859237853341
0.555063014645144
0.543401596262151
0.551932306610086
0.543515840581592
0.540382265976247
0.537009405719005
0.542247004415995
0.531927944649106
0.529137222604398
0.521895246153626
0.521461804385541
0.51719305531382
0.52078593707068
0.510666859639901
0.508296902460881
0.498799182480502
0.502115516788347
0.496573758532028
0.500661311556278
0.4893037789985
0.491880497770794
0.487367710850401
0.489947570024605
0.482476434437731
0.484348528122185
0.483244351244766
0.482133512931715
0.478991764327861
0.487403213249122
0.476450212910393
0.484516795752411
0.479175343441254
0.485447947727069
0.483618417210504
0.485145216954397
0.490349017082494
0.486088823329192
0.488460432251434
0.488361434112176
0.49441347655574
0.493771407243785
0.491311197607819
0.501423373145835
0.501603142847595
0.498847252968645
0.498900642807289
0.510299498802928
0.510514361289366
0.508124787988459
0.512597973316883
0.508633853563942
0.504854115335672
0.513194789528943
0.510727008741682
0.5115648035725
0.509824274806059
0.503759746786389
0.505488036250826
0.506670766271239
0.507928755062215
0.503099239037431
0.505867586867891
0.504424303494134
0.499514262004837
0.503617765796323
0.503310986435487
0.497895591311767
0.50404175826454
0.496980022510843
0.492897131424382
0.493167132934674
0.490395581601572
0.490414784069396
0.484419001450063
0.490217197270244
0.486934388743968
0.486757657750508
0.482166178599456
0.481967783763678
0.476635854222355
0.47677834271895
0.47492825969713
0.475054637456808
0.471426818279276
0.473304249976427
0.471150721515508
0.472128601845619
0.470051511341821
0.464760124101582
0.464866099856277
0.465405117061586
0.461010306767976
0.460185720162538
0.454426464843823
0.46073322364084
0.452419756612591
0.453822272709237
0.445266920739739
0.450402091279872
0.440931937587348
0.443402631630344
0.433532365818571
0.432726450969754
0.430137922647262
0.4234987603075
0.420686964597003
0.420250512389213
0.413864035752592
0.418594560085133
0.415694953142432
0.411929312310409
0.414162849686267
0.414244731368722
0.406253374994855
0.413208430231699
0.406090610335893
0.406507115491191
0.404820181716429
0.400525200121946
0.400727603586676
0.392184524572377
0.389494402898376
0.383867029366118
0.377259226906919
0.375398885955509
0.368769295213876
0.367938431245915
0.363236667018404
0.361244357999247
0.362756715976079
0.361762214813611
0.359607822047039
0.363430214663816
0.369423678121473
0.374975866550841
0.381880415179585
0.393383334134371
0.401422007872037
0.414853013480346
0.424666024757979
0.443979594683845
0.456086697036186
0.472383418033568
0.488124580983264
0.50222650344326
0.515721882580154
0.533404998934376
0.54921604161849
0.565541322349337
0.58055689339341
0.59707044794322
0.608132449144408
0.628632985126971
0.641082066023779
0.656230370247679
0.664517398397545
0.682273126691851
0.68993637992132
0.706197248070271
0.721164962197397
0.725186866795201
0.737437707568331
0.747245596757537
0.748278634408872
0.758295728266401
0.758220279185554
0.77199096642717
0.761251030868578
0.773311985236672
0.77164860184424
0.777910942347763
0.765683629547857
0.7795782545525
0.778355737851362
0.780646142486322
0.782093108222171
0.773654822427647
0.777679300749953
0.777679203956252
0.781327802440878
0.790942049340781
0.797891248425943
0.794253215692903
0.802319439295206
0.806564625429962
0.81291258043532
0.828713205614311
0.815546694591222
0.834135867233388
0.834028237936321
0.850707255470858
0.849421416593267
0.863762712916399
0.867651128417367
0.882217139792099
0.889290108655763
0.90684260700841
0.914028856655624
0.927594113596653
0.943477863276037
0.947899474204734
0.963871908644782
0.962357703648844
0.981445356356085
0.977540555352357
0.987534281305506
0.991018536961728
0.980025860353885
0.982524090579386
0.992512233540206
0.97233340203721
0.962406890400422
0.98060335690787
0.975367560308343
0.957930681037037
0.972383857666565
0.961298857918009
0.973362598691489
0.972055007611536
0.990115737791389
0.996382181496133
1.0153588031481
1.04126678085074
1.05433986694808
1.0557597333144
1.06500155518111
1.0898774131405
1.09416461558599
1.10408754852193
1.11769858673373
1.16143028393204
1.17676357281002
1.20448465317934
1.19148105394391
1.20811800206131
1.22275876395867
1.24049936869215
1.2655209187737
1.2748188142314
1.31341674551573
1.30661809142298
1.35792930690704
1.37857382918375
1.41474129126609
1.43463554074237
1.4758784911986
1.46870460447971
1.46214175217579
1.53623024639317
1.50869346580847
1.52147969159462
1.54366159220246
1.55016174606103
1.61266046351849
1.56252193110438
1.57160245897958
1.63343617609723
1.61866000916414
1.62719191492409
1.64801666164069
1.65916679840507
1.75642764920898
1.58134965409722
1.60209646641123
1.6293846334799
1.68394140085929
1.61549898593787
1.61033111913953
1.59976338062212
1.61319282289879
1.57713631350731
1.63172250289066
1.56232450072111
1.80957539652782
1.73873224455942
1.66644954547497
1.72141578309473
1.75739765064564
1.67404498497365
1.7079437799777
1.72212087592394
1.83612586427489
1.80876179323948
1.86646633219132
1.79690297203689
1.96641865977668
2.0192068606668
1.77019253791873
1.92555525860356
1.85317551312158
1.85234632574723
1.88172943723804
1.90926905831815
1.87739212337676
2.08121851734723
2.02872071413885
1.91912676576003
1.87958215819718
1.95349263173648
2.15210387159003
1.92776324248411
2.03742561314873
1.92334178442983
1.9921827773126
1.8195606126429
1.93491683983661
2.08226446088857
1.88714313672109
2.0223900167337
1.98685820567566
2.11950207220403
2.17362622233486
1.88880561318087
2.0585930469178
2.05344861943364
1.92797909743588
1.91445134258691
1.84908505302535
2.00761108916482
1.76639010876653
1.74111201992336
1.69643000467589
1.64662186985708
1.65180863659061
1.61232778917964
1.5184763877843
1.52797092150609
1.52735724914415
1.47134279942887
1.49201223268502
1.46107369719417
1.47122939349178
1.48116516374555
1.44308612321706
1.4250813965694
1.45942989635373
1.41516867373723
1.39604364977721
1.3998545975178
1.39160736997565
1.36636554133691
1.40609061379984
1.34593704585795
1.37084763640817
1.32997841181636
1.28719953814636
1.26842014390622
1.23754367809703
1.21965715148423
1.22408503133774
1.18431263094556
1.15873089987485
1.12609493098573
1.09320857067235
1.05849029390009
1.02557410151099
0.997269993482559
0.948923078087597
0.909375672613906
0.883791072921457
0.844877350645228
0.822250783448919
0.793895035185099
0.772715344566913
0.745427695951751
0.725276892518359
0.689436877283431
0.67836718699939
0.654076547996548
0.646034266086684
0.625888610082481
0.611179246725505
0.604586731677517
0.608293806990694
0.591427196108776
0.589484255107445
0.583786254566326
0.585627338812621
0.586923818717953
0.583674902826554
0.578926744558069
0.571323176128253
0.572325425176702
0.581016494396915
0.584205863202937
0.582810007481886
0.577073032392929
0.585742167226322
0.566041280851555
0.572127167321247
0.569196378550771
0.571994984099057
0.554991089572844
0.564958258718808
0.55162942714209
0.556220118440878
0.549064841018151
0.542228426793801
0.535697489760976
0.542411364271663
0.531107703723512
0.531729218164457
0.533959202656717
0.533992986191335
0.53374007356192
0.541169512873276
0.530280841669552
0.544326404613468
0.548677641636073
0.549000979591311
0.553037551959675
0.557102992123222
0.546069275656414
0.544036474738938
0.559280029237648
0.554638640684069
0.55599340849359
0.561851729293461
0.56216349098068
0.572717631299667
0.562841588774752
0.570083477368873
0.557027068364996
0.574000678974619
0.56419001303532
0.570829460908566
0.563944685728568
0.574453960336601
0.574161102712394
0.579098108845487
0.575018806159181
0.586209327641823
0.59154566381985
0.609003052872195
0.607654763280586
0.627444014610406
0.633523178410952
0.647176284519017
0.668211384051439
0.683937046809437
0.691842624874372
0.699061198725359
0.719263722985166
0.716031993339441
0.715120326961766
0.717388098363768
0.705286628827475
0.706836778121863
0.704704499839404
0.69417395299586
0.686352186777523
0.67337426246448
0.672444161143961
0.669929769508273
0.663326407909495
0.681540417374054
0.654972465108533
0.660290863648429
0.670460796263081
0.678133532262536
0.670904648028721
0.691346716770346
0.663055787991917
0.668215220433184
0.672613875570233
0.67456012299343
0.657448074733101
0.653100207066443
0.636567296449308
0.651745675055937
0.606864212951595
0.6216741158615
0.618438711016114
0.638398271229331
0.608799945379026
0.617361812776277
0.604260957112049
0.61109126376492
0.613681217962888
0.625629539166785
0.611140361076201
0.606246313591102
0.59609550800957
0.598021220547457
0.592751915696106
0.608369105120968
0.596231650524274
0.599145266338054
0.583029147881884
0.590645434193362
0.581543038854895
0.579144740042904
0.59048604204794
0.589018967677651
0.570029476115797
0.574841570973432
0.569340469435383
0.576820743383521
0.57289381431663
0.573355190272455
0.544982693811715
0.546432413057125
0.565869998987715
0.571598309430723
0.556951120860951
0.550309851966211
0.554144847326315
0.5364151276044
0.537584329263531
0.546434314937522
0.543604324186864
0.547888352086487
0.564177863311282
0.548114968582059
0.549887545818953
0.549788930911396
0.544066660203969
0.541291627652813
0.541304296277423
0.576508417181398
0.545689251104741
0.534498149855478
0.554459652517997
0.566021635374144
0.556614882805836
0.564057942139729
0.585589323274819
0.569106459000382
0.545827752261863
0.58629888734582
0.564025506186329
0.58198352182981
0.577009384573876
0.564438578426928
0.555107204497602
0.569480654957977
0.587929078714695
0.611402896619795
0.599494437745963
0.617026325775032
0.630069008911527
0.609595499966296
0.606487670805001
0.646822351046461
0.634841617082359
0.635100055017152
0.646573848257701
0.673724223528125
0.665173765893104
0.709125172033013
0.708487432330803
0.772700970167071
0.792080043729336
0.770579289119156
0.784997339291381
0.810218611119846
0.790361163230555
0.798383265026266
0.836370539647634
0.874092434552219
0.820990863087938
0.908244600056041
0.847583729028286
0.874346780085751
0.855459846300424
0.903911967538236
0.878690865307676
0.899230254481545
0.844374415151537
0.844237425760983
0.838112268547517
0.891572405644069
0.794367271039725
0.884632713877059
0.882743047999024
0.89854205628202
0.809798667948651
0.811667291628662
0.849906957950616
0.906475404998655
0.849111448312893
0.822820104030172
0.813032662949806
0.851214598712073
0.848789438398449
0.851686735437002
0.856019799603467
0.832995041490064
0.806472807955789
0.838372570896977
0.858008095491284
0.874840418830131
0.796272915716554
0.776554991339932
0.763906251239913
0.830789959680805
0.77503196897261
0.808212225512286
0.763252501390044
0.856139523894607
0.81186983582775
0.829364970332525
0.874567995816262
0.872402729452622
0.80999466108084
0.806493162655636
0.880452308167159
0.831196534119348
0.792710614705682
0.861548853652657
0.76073541347511
0.744340422131199
0.836321593713414
0.931990696942004
0.818925540097337
0.766032507214694
0.82139092904566
0.871221502144241
0.768413731141861
0.837101027128148
0.849711018335979
0.831599578000566
0.779893757018369
0.899223343006173
0.860689365634356
0.834314613279328
0.777448194119932
0.965147663346149
0.887222879600989
0.910714649556653
0.882707823398585
0.875980016347557
0.91393337534356
1.05083540576728
0.830946710701562
1.03360903250062
0.987898718231427
0.963374884535914
0.971876786885575
1.13813771812354
0.960469072400016
1.04157031290107
1.14828512881868
0.951759788874742
0.940869876426159
1.02266021682676
0.996078846413488
0.985340787820729
0.9570400011676
1.12615798501276
1.0654221765431
1.04479598518121
0.931817633625967
0.975583383378951
1.01368422448138
1.21262325496027
1.06869804568814
1.46192616030677
1.01270266835068
0.812935801220406
1.09856350977552
1.3810483570992
1.20185981876908
1.09690026637257
0.96941935394052
1.0642463607092
0.979694457846612
1.7371049891975
1.24571877871453
0.92603951087391
0.797706195359617
1.17463604154211
1.06900360580024
1.21259315036086
1.18121388625522
0.963894035912923
1.17377441973925
1.21384312208219
0.786125092060733
0.942623576799561
1.40815504490961
2.4452258906252
5
5
0.923191064594754
0.94430463218924
1.1014726638824
0.944663382402197
5
2.37243672848425
1.53080016502963
0.918650651819456
1.09726519548373
1.5609722957167
5
2.43710767405678
0.866760607188933
1.37084464562117
0.81005809169153
1.59291042560874
5
1.36793713134768
1.14204185463642
0.782780825779027
5
