3596
4000.36533379555
650.420452594757
1
2
2
0.109324188853076
0.11551651523148
0.110673492259047
0.113847510158893
0.107731129316635
0.121649311481236
0.106927216734056
0.106896066450741
0.118650941249946
0.119904442511098
0.107312245974444
0.116420216541293
0.108755744438567
0.113306270339271
0.107132688426973
0.0964135803174814
0.0998889701172249
0.110328734988491
0.104348477960602
0.10575915145158
0.109683562636108
0.113492128880036
0.111424300363629
0.112951541294005
0.10997995305487
0.116111116890536
0.102008342901993
0.114217100093608
0.110357392348883
0.109729955218449
0.109963723473247
0.111303353633895
0.108887835009099
0.113920656524939
0.102069396200627
0.116344605554248
0.116591950373395
0.116759390329454
0.10554546879319
0.115126808894525
0.114317045561165
0.114336024843132
0.105232302900355
0.115424752645625
0.103091917079354
0.118229814927261
0.107432321819
0.109954118149364
0.102793567629315
0.114048696810122
0.103070888688847
0.108184076728674
0.114866574352788
0.124506876650722
0.114104603083891
0.126817079798437
0.110555538827294
0.11139262554169
0.112702758154273
0.117567940244637
0.134551627943067
0.119200016336558
0.103589910963409
0.10014613748018
0.0974047170273246
0.111651971856923
0.107173376909168
0.0988360909706624
0.10340635130888
0.109736356163277
0.0975004164261513
0.128767899896688
0.112096684089199
0.118042935662646
0.11868301577642
0.115869833949307
0.0904458401927588
0.0984658329352763
0.0962469255312853
0.126832934786981
0.116068442853885
0.119211412594609
0.106586449909676
0.0955427554390065
0.11494938590012
0.12046678496532
0.0934603147233583
0.116347875301105
0.106971802739821
0.118651206432313
0.10310781128067
0.104963333635459
0.0977197114791697
0.103210085957604
0.0999311130897764
0.114939210022649
0.0969187191814776
0.108447170615387
0.0897379638807273
0.125742038298689
0.0940524757984711
0.147887220417295
0.121859308340193
0.117331319248008
0.163574029779903
0.114072960472624
0.117034964177324
0.13440942672702
0.123509507295429
0.101678266496371
0.10038169304634
0.099425294446507
0.101311018807373
0.11323193164533
0.101697168905514
0.14197216768818
0.120025961772868
0.111505780810248
0.101720917054566
0.108896142471948
0.0784321902231058
0.153470605220773
0.135076381308821
0.120660650129677
0.107936762642628
0.106040445256482
0.0854257477125205
0.158579544603836
0.119076189539582
0.111171389992007
0.0797331687657459
0.106337069435489
0.080164540555473
0.13225750406243
0.131571408874927
0.108886678736832
0.0913833423727515
0.101317113939307
0.137958920989221
0.148752739976542
0.108580442024203
0.105087694662613
0.0826634278013437
0.125497018120243
0.129919102443638
0.111491596539009
0.0941911489808189
0.1250205340153
0.0926794264796725
0.106289383796929
0.0929230565541554
0.10502800846122
0.120185808562296
0.107799162309037
0.0737377725770739
0.22590730171935
0.124207098168572
0.176344123841528
0.125921760347135
0.111777879528753
0.0981729913899665
0.104878237022505
0.0919476180593446
0.0922078476984264
0.101653541857654
0.0952586754024327
0.114935581195985
0.116210957108638
0.0943138966369339
0.11793951798009
0.146953948559435
0.108706084879923
0.109936314598584
0.173035710132323
0.097402914514937
0.112663917507563
0.123585131620996
0.112807894083764
0.0784374480742161
0.13879152904486
0.100072479972228
0.109015359717634
0.0933470258592667
0.0977916830130734
0.101249596170308
0.128629195939489
0.0898823746792857
0.107454584059748
0.0886836193370924
0.0972349450591802
0.099542993110548
0.176321838213126
0.122177056567216
0.12002679195732
0.0963118307563964
0.0957535366311737
0.137078919019129
0.131682985365955
0.0970798369101961
0.0984281828183257
0.0823169863096212
0.102010845887255
0.0862719717074256
0.106026044190057
0.0753057476646429
0.105380842629029
0.144617346364646
0.124774810268695
0.0977614129631486
0.103328239323968
0.0978177311962806
0.0961430802447575
0.1694013847619
0.131858880588325
0.105853647398902
0.102752914715169
0.0927150146156064
0.129943642844345
0.108476191624183
0.0993401479365216
0.0896945346717664
0.104330362993604
0.0914989995263659
0.0961193035874014
0.0940189145440042
0.102382266671044
0.094205126137193
0.100466106820081
0.0940852013606685
0.107816389014854
0.109093734410588
0.103324501719224
0.0950629924466909
0.105772181539675
0.0947227164543056
0.119123928619734
0.113498431227121
0.115297771026551
0.0918144570241754
0.105059094588998
0.0886321242974573
0.104140804491055
0.0903446625723829
0.106534361827252
0.0797746421300167
0.117189103191728
0.122542755361766
0.108429885393803
0.0945352548182918
0.0953286949654269
0.1328520376086
0.109620452210351
0.0988219375841332
0.0950718355319017
0.101411002385883
0.0852646607180803
0.111775754347095
0.132057467434917
0.109929407239679
0.103438695495301
0.119467630287892
0.102710111705631
0.106806054931447
0.0925025778864667
0.122896175039956
0.181866652078758
0.0952492482125952
0.124859345206557
0.160120580311374
0.112771084591496
0.124763519006859
0.0969275953273346
0.104626587538105
0.264365462366311
0.147602083322545
0.105637563640889
0.116349555753202
0.127682761186449
0.0986210688360898
0.11467900612871
0.0960363115369627
0.145737060302082
0.121242752303822
0.188801939442038
0.142383056691408
0.0976505153448834
0.145139157089583
0.122372686077155
0.110537503915385
0.108497117284515
0.101700655058337
0.10230909953091
0.133107662581593
0.117772128242014
0.137973772329403
0.0983304878977876
0.118325269730281
0.141729042364665
0.113557000163961
0.103290483414479
0.130192335510886
0.116242076439006
0.106546083267153
0.112382478250168
0.111068837999497
0.125795697501736
0.0938038978556949
0.13127302292057
0.174050305408758
0.118900965567846
0.130309156787414
0.147710490201378
0.107805359218715
0.11357136410595
0.111444452941627
0.11237767308158
0.108247690797141
0.107157618835942
0.113033581262744
0.148500498338185
0.109967835607677
0.122619627070726
0.107734849707072
0.104446263528519
0.11654089348998
0.120951817413153
0.11200803399955
0.119960408161646
0.109482761017097
0.109882565349302
0.151970409845665
0.146396814572053
0.102982161256116
0.185572800505533
0.133132113199878
0.140110155623627
0.111713431935362
0.127972765136037
0.112823367696956
0.117816981956445
0.119641312137075
0.126662398526667
0.127028274937666
0.157912814866207
0.126076628988946
0.140769781086064
0.143245464156892
0.22658118357523
0.190420424431463
0.15744166263771
0.136803593514475
0.123737872795067
0.192801236893202
0.143767222863432
0.178599220005124
0.163305379078533
0.144835814388588
0.138168908637902
0.136509327402825
0.154392707572554
0.145855694918404
0.156101628301422
0.139425875552888
0.152897626681209
0.147414780059889
0.175149790240968
0.139879521028141
0.191319638262953
0.202642931055424
0.172904550965617
0.162068913684754
0.165641714606741
0.159349220403359
0.221264931295093
0.183508656247243
0.284497392326326
0.177421500143233
0.24942241731564
0.217614791164375
0.193864281841802
0.185174970695212
0.190698798718803
0.198315394369835
0.20503013317728
0.198060416550677
0.20196930573432
0.193282347643113
0.21771381202402
0.204928947293809
0.224095631542415
0.198093247712504
0.220425793135739
0.224490217849132
0.228301161801879
0.228027931906789
0.225256170448682
0.25875459843255
0.297500896978556
0.283877690181446
0.246147678271641
0.249010446312185
0.239948507616852
0.251439742977997
0.25565407722992
0.26302936198893
0.264813217104367
0.267187965811287
0.320241678710461
0.268702208001385
0.308502546802002
0.274741127193575
0.279219125521373
0.313070567551792
0.284483885939664
0.292710383233566
0.336696064595378
0.287750833036929
0.291267082394681
0.343234185552504
0.329444443483205
0.311320568388685
0.341406798026204
0.298594371116407
0.343487502249731
0.306038620613375
0.342884217969588
0.309171510579326
0.370111264460693
0.341996442220091
0.374092072173332
0.345308596607907
0.363925089965838
0.342754843059701
0.396607528552005
0.34418703239316
0.376081038623046
0.366664254184771
0.369785067728302
0.374404300806606
0.390717917536564
0.408887372074945
0.411847872820579
0.418349167351602
0.432818808443926
0.382968412850971
0.420247508602043
0.401173796737708
0.431697686206026
0.404641542618095
0.449978967943777
0.447274209265963
0.434343732356174
0.421239204418177
0.436529917834409
0.435058645043398
0.491686481024527
0.439746269345095
0.485723665545948
0.447569383470851
0.467218881380628
0.445381290926184
0.472069260241609
0.517013074527153
0.52457767924651
0.507079674370006
0.514137747696461
0.474832151167462
0.53517505365979
0.486673281207918
0.505832337789088
0.499828487819411
0.582578162690593
0.513169710136498
0.546373179254082
0.542048376528309
0.587635934692022
0.519332018491291
0.601903089587129
0.548007075658307
0.591262069233983
0.584799260060214
0.625369967550717
0.538771359768868
0.605247624450752
0.568802320033679
0.619769209198111
0.556789765114538
0.612701402944357
0.618602637884603
0.639175249194065
0.630638256552575
0.636777202456345
0.605600111652398
0.672732715552316
0.634342775736115
0.624438999845515
0.641986935195982
0.716896707828162
0.631548442253321
0.693702256868269
0.649284250696175
0.662007671150859
0.639573280408491
0.728013736494949
0.699706997543893
0.803670807290456
0.678589496166494
0.722981073779131
0.717515354126233
0.744119799436609
0.70558974580692
0.766657776035427
0.723229736724627
0.768716297815424
0.727526410673665
0.790835579057832
0.747077568466548
0.745956122267369
0.755847528898892
0.816254672735826
0.729967520494737
0.837871220360079
0.793072731255846
0.836117165887637
0.775952840931541
0.85810124433182
0.870986197924093
0.866336991614071
0.767174811548254
0.842063989026076
0.838493757774625
0.84806516620244
0.827129062769547
0.905722669960676
0.872167752905456
0.883222732930683
0.857666900612479
0.918423348757262
0.806704140253632
0.87624207263402
0.842113444955361
0.944384020669876
0.964410291993436
0.944809336510223
0.845426906712771
0.999380785997717
0.905723406941201
0.950916410395831
0.900051019628425
1.02346412392009
0.94061207910638
0.996071093417264
0.912186316120312
0.97649651554546
0.941965301124908
1.05856359682991
0.937399575969834
1.00098122500905
0.85962675277776
1.06839699947739
0.978924980563633
1.03256677830177
0.967510627894494
1.01370355804224
0.960026384710464
1.06886050226177
0.981236924934254
1.04038082637795
0.983792199491863
1.07087345745324
0.968842960252184
1.18848764781026
1.07220073896417
1.21852614472135
1.02266194056675
1.17215771865996
1.0271529040624
1.3045385880141
1.104584069661
1.16533631569971
1.04933676782588
1.10280580940957
1.05643881953723
1.17114410255563
1.06593458742356
1.23789677738826
1.15672150503427
1.11529479027311
1.05348992118655
1.17594025288715
1.09393249527581
1.14542044771539
1.27363237522739
1.26183012641759
1.27327261691026
1.23353160363123
1.12014177719473
1.30870166206269
1.1522578295106
1.29456951155893
1.13754710293915
1.25203090815727
1.11177956592222
1.30380734717263
1.18020844183586
1.2965763894256
1.17735442571296
1.27190850173702
1.14148340072077
1.35700374575748
1.13579695486676
1.26673472621248
1.16175865917906
1.41892007312384
1.37106111119868
1.2333385706263
1.26893201852945
1.29009482259178
1.20175142994137
1.3910196452889
1.32298180083554
1.44918051654245
1.33003727169228
1.46376369962335
1.33715624443087
1.28706986998882
1.35620502148767
1.40143910678652
1.42638638616492
1.42911014504923
1.32323796114689
1.39495958100188
1.21638336666036
1.39725078449459
1.33735470423848
1.47853322788412
1.41223870394149
1.40798338933704
1.23912562748531
1.38364207094515
1.38642947412494
1.35854626146658
1.27510457800792
1.52002586930931
1.43594333585586
1.33632025791105
1.31363558811982
1.56037691807581
1.34558491475719
1.4219796998589
1.4054001242592
1.50090947478096
1.41747958811459
1.61462390923246
1.36494089791481
1.50876364172232
1.39962411559374
1.48317717363055
1.28405926516586
1.58491883391239
1.42308541695286
1.5218654266327
1.38610332027538
1.58998372197419
1.45291669638424
1.57137146357539
1.31404834812873
1.75827072268897
1.44644194403006
1.72022235853783
1.43514712868257
2.65297154543415
1.49227921773727
1.55337832821451
1.4537108723855
1.48563501984138
1.37853233358106
1.58789252826933
1.51210849796767
1.54445567059733
1.59403468578821
1.7762921220124
1.53361585891871
1.69065229593147
1.61521880999869
1.79796424306649
1.50838674650767
1.5047470469914
1.5635000283427
2.58783689260936
1.70647617265539
1.61440565618731
1.83207790463561
1.7008705571697
1.63487743254744
1.47729824802136
1.46497709745401
1.60441509801037
1.47380001580391
1.534927752995
1.46594234850566
1.70834894353545
1.39256779789736
1.70283097441946
1.49414402175193
1.61355326907797
1.68210635747058
1.79456135742284
1.57132756299993
1.91371183799079
1.60459269524244
1.85235883532979
1.53094413055476
1.72324549449636
1.56956171154659
1.73662225007277
1.61326848217502
1.73010975969836
1.46515229883609
1.82836730913805
1.53914699188108
1.73167979952465
1.49380926217933
1.81385116162682
1.60760893090981
1.6097303290851
1.55505993617389
1.59663249621435
1.47952140648832
1.72076022523672
1.50175611201683
1.57393982496233
1.66827060487502
1.63237223409708
1.79249076439275
2.58032555344251
1.49404664152999
1.67895334982672
1.58004562261662
1.76720210444506
1.54891833671053
1.70476507932438
1.4747640050634
1.8000716814531
1.73451733896832
1.77151445619042
1.62852795319487
1.64633336704644
1.49808641790803
1.84800490238062
1.51892846305039
1.45088530346743
1.39765445672832
1.5614677263888
1.69519808282154
2.02145439511845
1.4402180667051
1.61485499507163
1.70134507769167
1.91601369706873
1.6694422333384
1.67137950570066
1.66113289389828
1.71650381202555
1.72238940887277
1.62388929170714
1.51851656672188
1.75080533345
1.66091804468997
1.93100293818619
1.88912471052481
1.88828996823554
1.53644092310448
1.66408955489346
1.66815197960256
1.62401880237169
1.54800130316972
1.69473154029923
1.45532093647319
1.6778961933265
1.68615087509352
1.83831496106732
1.68969839057032
1.63236186043286
1.6930241641583
1.59574550829734
1.62950922651496
1.95740579378857
1.59622023023683
1.61396850283539
1.59164542351142
1.72532153608667
1.64668925658026
1.73465646337848
1.57574397094997
1.52533562015855
1.50376701982524
1.60569472646533
1.57094055885775
1.58564804971676
1.49937971612367
1.66921269653023
1.64377597802014
1.67853288653275
1.59023684192757
1.612523414526
1.64151098159658
1.67371472082071
1.52579184752008
1.49983270615272
1.48172099199923
1.67877570741394
1.46890985063486
1.60546650524498
1.5754117241955
1.55684915162023
1.55536063967172
1.55081442631078
1.49534083896107
1.58803107735687
1.59588862177572
1.67630431097736
1.47741684512177
1.59192734876941
1.56214291055381
1.71376623410228
1.5257353915528
1.62531800060518
1.4748255659047
1.50582413424209
1.51110841788337
1.42539156569392
1.50791949043148
1.49256575128778
1.58784107038738
1.68671024716181
1.48640916667446
1.49316207862716
1.53102662905874
1.54236958397918
1.48954922628568
1.53716103860003
1.44039603908031
1.67822489510308
1.52858008843872
1.4055798559982
1.48955933860061
1.54993520675359
1.37844994988359
1.51566534575533
1.45876867483726
1.51747462091893
1.39772652438321
1.54802693944622
1.48588419166008
1.44995984172061
1.45049199844452
1.47845884298734
1.3962741823616
1.45624866673501
1.35484916863544
1.43274850974497
1.39541095975586
1.43340977660527
1.39072252968977
1.41165110829798
1.40129513633664
1.38387041164121
1.36592281922054
1.38451158069758
1.42131994872827
1.33113937332417
1.2893448530662
1.4053987488714
1.36932449401079
1.34948224977461
1.40085120513208
1.34523724690283
1.360123081224
1.38340231358594
1.31363692408098
1.34954699515525
1.28208190871525
1.38924793460216
1.23721195778278
1.28202492833495
1.31028241329281
1.29379297139946
1.30759395326173
1.32552739802406
1.27187302681867
1.33687082230686
1.35713794526778
1.29536512878081
1.1934447034097
1.32495257555049
1.28429525476849
1.27109422307513
1.25299348738329
1.23401781296927
1.17744465653464
1.17453412204996
1.25711489092806
1.27787811402804
1.2441710867268
1.22542141305544
1.19629209764472
1.19373771764917
1.14297278131803
1.15899214430304
1.19122716383179
1.2037075120557
1.12226540238521
1.16081975160239
1.17625217183574
1.14317219880304
1.17755256053704
1.18270489571657
1.07147766393687
1.15132013564369
1.15567776686573
1.0985974622959
1.09577029375683
1.11366484397511
1.10216062546095
1.13458363351304
1.07714363486411
1.08843058110007
1.08627195216746
1.08293226333621
1.08886352440246
1.08208314651729
1.0414787732958
1.07207474957357
1.04398786947404
1.04901233081623
1.06212466419812
1.039152003342
1.04307942499625
1.05956609363343
1.01080845498966
1.04742614226607
0.987842901764686
0.982501030949676
0.998305959339621
1.00508473567917
0.970923389109626
1.00783483972498
0.994562282960213
0.978831021382135
0.966859629110627
0.966668314359196
0.949031321271535
0.956364865459009
0.970749011555591
0.948675258665792
0.946656051916222
0.958457190581792
0.934454250564171
0.958294550553531
0.929544867493819
0.938081322488498
0.916913236976346
0.910330758522455
0.915450148960147
0.926394486453811
0.880124063158687
0.901346914860739
0.884355056503686
0.889111200607111
0.881958787000516
0.895421062669961
0.866615454042076
0.88118717173605
0.866738704366247
0.865696425841204
0.868525407528785
0.86503276928025
0.877478402808627
0.854374345393766
0.819892912803309
0.850238707226809
0.840015242289866
0.836976078674225
0.856270762603041
0.821870175581699
0.820548822389275
0.824274228606769
0.798125720521505
0.825259126406147
0.827496801127944
0.800389027348481
0.786764063748459
0.806717201413991
0.794219427013522
0.777752636681399
0.781415295144445
0.779503227439541
0.782350256405036
0.793428125327484
0.752461790449584
0.786651847634198
0.760818529384214
0.753569286086261
0.760389408410883
0.760171882651999
0.754336307925828
0.741680782133587
0.742757405750645
0.73401340018277
0.727940922470611
0.721623221264515
0.708650195348924
0.71070071247599
0.709968347301604
0.716633873251429
0.705453421561412
0.7019020589403
0.696614511546422
0.696443217089023
0.693908763694688
0.690968161311668
0.680569285813958
0.688302282473932
0.665989278094565
0.683358555669465
0.687564724278577
0.675546088126752
0.662171905453807
0.67916019432908
0.667351139805408
0.658408679284413
0.668626322171256
0.65819625893703
0.644089800809782
0.654609695095971
0.644881521896298
0.649212137893848
0.652638624633808
0.636716199510472
0.626807820755274
0.626478414758251
0.6176479196133
0.625208895363195
0.617420113513516
0.614565285765547
0.609168485964218
0.61258382555572
0.61676024779941
0.609751588260518
0.597307025422851
0.596678966109108
0.587167668056694
0.591299605703398
0.595919121589546
0.602301110312002
0.590182196474859
0.589465217852126
0.577395163278438
0.588013374194868
0.578113751645252
0.568527144785099
0.573020307801413
0.571396170747268
0.565359817011763
0.572345896471603
0.577185288352246
0.580678651554116
0.564655150275803
0.563669326124752
0.564710949597289
0.573621669037178
0.56271406952339
0.54854823999624
0.551458784958668
0.560075043743589
0.555408061424755
0.564849989875783
0.558997606437553
0.559438437600741
0.548857824242651
0.55152342598813
0.554401941264786
0.54989162955794
0.553052468139165
0.549119645140955
0.548035603366705
0.555508569583972
0.551862385088978
0.555284702611392
0.554488767161295
0.567318033132847
0.570346317964613
0.567264707551214
0.562464299003224
0.573478025903238
0.57600536652739
0.578991209557339
0.576965701687949
0.573393162080634
0.593087903753663
0.60874881743788
0.580112050122432
0.581250335168817
0.58577708080974
0.592873439065759
0.593996242149994
0.586567144689351
0.598247905573517
0.598889829349086
0.599655089142181
0.610477709546014
0.616044243959096
0.611777514155031
0.605850050114152
0.612085431971305
0.615233269989068
0.621908471094818
0.621057142741676
0.615204307702458
0.629516411169672
0.631981474244064
0.622146810876833
0.631024113893969
0.637593617172531
0.63493091811292
0.644565673427979
0.65088495016258
0.655546565098535
0.657285152256928
0.658409081045698
0.65838524674654
0.6560179616161
0.676343582822467
0.686321200920275
0.685570983924293
0.684400451815709
0.678101909307223
0.697874495335751
0.703680940047718
0.700331567691976
0.709835471817923
0.7064277699153
0.697268381332948
0.705993877200688
0.709333501414172
0.705211297832617
0.726716803199261
0.722889810517559
0.719363137357069
0.726446141586639
0.726933897609683
0.736134096024078
0.738593215297958
0.738207924218942
0.727220989386574
0.709194802059522
0.72288269894797
0.721370843485941
0.705082633927865
0.706374066291727
0.702800749092619
0.712675001011247
0.717542669240994
0.716760746006254
0.707861476927314
0.702424572508041
0.714011339278947
0.700591604730648
0.69368544697605
0.699508902858181
0.718836809145385
0.712107597216742
0.704106344955817
0.707935162438296
0.704332969587151
0.703648240143939
0.699778055259667
0.72362949454928
0.704490380553321
0.694183749579408
0.703981599268679
0.713481146205676
0.709069330793531
0.696601140214516
0.699217227435788
0.713954542320444
0.724170314068098
0.725987455330282
0.724419355082241
0.705475700181684
0.70848724971087
0.716358957761253
0.698959061494525
0.706978523775174
0.70885270545759
0.715090056813695
0.697309057480559
0.711867971670734
0.711858526744644
0.708234033038836
0.698332717974133
0.703625839676358
0.713841046363348
0.706204260681828
0.693535225647846
0.70215050893307
0.688557495958643
0.677317362437774
0.691531335027905
0.680106640749545
0.690594485911076
0.677132507545874
0.6701609381076
0.689980333235671
0.68755272179727
0.664887441278323
0.653024667648933
0.65268167291208
0.65374920598815
0.665487595535447
0.652161887937949
0.647428550439587
0.638454408236329
0.632288047921507
0.626199089529037
0.627756645593743
0.622967793054806
0.619614358368174
0.613529242192409
0.617924773183041
0.603828697452483
0.590348320852538
0.59247424351943
0.589470577183762
0.5857674528141
0.574057155835486
0.57179850197529
0.584979288727986
0.569465594312715
0.561576561240028
0.57102154743594
0.563743040524459
0.540579313996356
0.552241836468157
0.547243275324425
0.532745027198553
0.540014812636787
0.548069221325765
0.541936860717087
0.530268490143561
0.527645781604711
0.530837335910896
0.525432335020786
0.530634858301711
0.521587764267581
0.519640691754136
0.513156920733665
0.508704699322489
0.510900708979214
0.509900737208324
0.506876988215044
0.509159161127046
0.497996525778493
0.504808155137298
0.497940645871605
0.490252755022073
0.486964423771468
0.486441895021159
0.484727308237443
0.484277966905195
0.484853708763335
0.477021860523436
0.479228474780843
0.480648078389885
0.475768849857839
0.474543160020792
0.470715773073353
0.473493044960429
0.463040738394956
0.467814851576892
0.465499285418527
0.461784451088616
0.45818121961129
0.462353179481024
0.459300857180897
0.459409178537554
0.458745470329679
0.456050495933003
0.451480634247995
0.44941317770065
0.442129846860065
0.443247792096409
0.455396485729949
0.444693161604699
0.43594658018026
0.454542496405758
0.439712452906502
0.440411727053196
0.442059103451325
0.438335529289562
0.434640290076283
0.43700153301999
0.430786270003453
0.430981099287726
0.432295810133522
0.429807192366
0.424292268123523
0.431933526078173
0.422078986626019
0.421490650914288
0.431927831601964
0.426422337136535
0.428514729585228
0.420605537802418
0.414856454984541
0.422266495569264
0.420780204431355
0.418722473212287
0.411911948021945
0.413831831684287
0.408480756307626
0.409080017110338
0.404668862626203
0.409083827543954
0.419576332502435
0.419623995164627
0.407708949585132
0.40760069973399
0.40753668902654
0.406440391987229
0.398624327845771
0.405773643549087
0.401366378165791
0.405173121995635
0.401666786194884
0.397961533950425
0.402020965606112
0.399600650030885
0.395650079598832
0.394342356379693
0.398242029444092
0.396601630769136
0.393377046695122
0.39056111740564
0.390236858336481
0.391870642262105
0.388604136055791
0.39000022580734
0.390939545368248
0.390787449591393
0.387124653325058
0.387531656384599
0.38830059423644
0.388726420638263
0.387244227157508
0.38928644898157
0.377956123058084
0.388013949191686
0.383954060785053
0.387950713429458
0.386932335173287
0.386818989800718
0.379764935762644
0.381430739094886
0.381504170484659
0.382749960961446
0.387010318656375
0.385115856037299
0.383578606930516
0.380029562519579
0.375997466092997
0.382661642641441
0.378361054675297
0.384187782211593
0.375078558914389
0.377324448041953
0.373289098481288
0.371516397683554
0.37659539232604
0.372975391129954
0.372534821355024
0.382159873314933
0.374787491121423
0.368063927277117
0.37032947417527
0.373962403620491
0.363321512742227
0.367054341890331
0.369812676823241
0.36107554244394
0.364376933640357
0.368710475852793
0.360547785352314
0.364140887191295
0.362062106612445
0.365786492588996
0.36481838348786
0.360124415420243
0.354403280246174
0.366475274538179
0.353758888760143
0.359135793187856
0.359356328180852
0.355532210606247
0.355422304382644
0.354699776470288
0.35918840203352
0.352863385380473
0.347300209791967
0.34900798172898
0.350164749282113
0.347610076406807
0.348326112378572
0.348623838151038
0.344835458258645
0.345738612065948
0.346583905295682
0.345745458116621
0.342483240853226
0.350469509386995
0.343186721014368
0.33601277503926
0.335697639652737
0.339389943660966
0.339914681371938
0.338816864353506
0.334582224841337
0.337414393491196
0.33369488349171
0.339834284033929
0.337823377456793
0.336504794600454
0.333812841305949
0.332283233153277
0.32891148476463
0.334175608222097
0.327837639811781
0.329409380816059
0.324437180358596
0.331312728477549
0.326727802297612
0.32372789259752
0.324307304617298
0.318860770798771
0.316877478683581
0.327793282289021
0.31294008507121
0.31966457477369
0.314890374801289
0.313265052681667
0.317855009652353
0.319414525995449
0.311418805935674
0.30857230511316
0.306818365746439
0.310080161160765
0.303794908596272
0.308120857475083
0.307043602650515
0.302858877648101
0.305484479644591
0.298037162221002
0.297614447004885
0.301679907267469
0.300951708314732
0.298824926852799
0.298891865107579
0.302451391923243
0.297447100729029
0.299003193000981
0.289341024255869
0.28984018449131
0.29534348290156
0.295472365239776
0.295005743810345
0.290881227776335
0.293698493520486
0.29245263014914
0.29182988974492
0.291130280742613
0.287977463791137
0.286451906628055
0.286569951758074
0.282946715604945
0.285146988053647
0.278197488782559
0.284327853978157
0.281137345375774
0.280103192418307
0.283067425484748
0.284217921309887
0.283817542501678
0.279414775151216
0.278713057871924
0.281314911832619
0.272981602911764
0.27696595578739
0.276925032182152
0.27286183208999
0.274235939917314
0.274742681043889
0.274118139210239
0.271677037639861
0.272216900434534
0.273041570624463
0.27405404872018
0.271935731470127
0.271382495418915
0.271281888459354
0.275429038768626
0.266514299661623
0.271032181449091
0.271768444753555
0.263543683439115
0.260019541908919
0.262137992449019
0.265911720140593
0.268088058474244
0.259687106191547
0.261841298832202
0.26199354171121
0.260042658659429
0.260621359321647
0.258524108969523
0.261026050702673
0.262821631025256
0.259983741977942
0.261598853551505
0.257535474738892
0.262215319678776
0.256439121644935
0.256932537055306
0.258851030233993
0.256992750903049
0.252458191562649
0.260165124737936
0.255416919028383
0.256901461249603
0.250794023216208
0.254936308769391
0.254360097289499
0.255506664993815
0.25385861116039
0.253771470242368
0.250488323101254
0.25684677417508
0.255280219448481
0.255290561762984
0.250680360075742
0.252966452225972
0.251024442826105
0.254086012425725
0.252206530097515
0.247777165699707
0.245222817898017
0.253098117325529
0.246393317008103
0.24800241637255
0.246431496742688
0.245826317403912
0.250347083005278
0.246237725029372
0.250646315278702
0.24347387340087
0.243446721024576
0.246019641568636
0.243898841250023
0.244761238312027
0.241404099850955
0.243456832174867
0.240630673412749
0.244906099699928
0.243249350534709
0.242070373355974
0.242098399438744
0.240124179031544
0.241240320631456
0.24280676233713
0.238257178398819
0.240378825627974
0.237300590785782
0.23370876909182
0.242202024171095
0.239015896666212
0.231269842962816
0.232989100038162
0.236913072121678
0.237514451522786
0.231103444994275
0.232125803037413
0.232447598347118
0.236293728556113
0.2333376198797
0.230804018370701
0.232813537152191
0.231206132108554
0.233845238872663
0.233038756842922
0.229516826490019
0.230225535724953
0.230658526405887
0.230806492611392
0.229088101794263
0.231128948540598
0.228744762362172
0.23420192517898
0.228272016619712
0.229503991021319
0.230379840746374
0.226623936475313
0.227425877314658
0.229322793190929
0.227142577521349
0.223350541852637
0.230315671180624
0.226348452485981
0.226807218125824
0.225906945306185
0.222167165430098
0.227863155039498
0.223127656856191
0.221023594081878
0.223356218839148
0.223298812884474
0.222845375520438
0.221384333905857
0.220768396584191
0.217173701209178
0.218504784649434
0.21737143056786
0.220151927832608
0.221465672504444
0.219386650634702
0.216766460604055
0.217293184257063
0.21947401764672
0.21416612042142
0.21550291905261
0.215113081404388
0.213385154165545
0.214766599371427
0.210792919541805
0.213934355090179
0.210621929843823
0.211802784285014
0.207543355424006
0.210478292861555
0.207852920976403
0.203933436750752
0.210151510733102
0.206421446253764
0.206048737351347
0.206663528276584
0.209655215029191
0.202689513863165
0.203783192207277
0.204511392722628
0.206214356247941
0.201107208748114
0.204649105479462
0.202987489327637
0.199369518703619
0.201330152995702
0.199004667558502
0.201964096600061
0.203192881972112
0.198301778743802
0.199210258627898
0.199694727227795
0.198541717013098
0.199952285879688
0.196801472306116
0.198796919858364
0.196469976859513
0.192591863393287
0.19410950512651
0.19668582278129
0.19519224496347
0.191981533598886
0.192074584136981
0.196909495332363
0.191999979319268
0.194261323458507
0.19116445200114
0.191890315533059
0.192957550063907
0.191234122822711
0.188725441076114
0.190630022719898
0.18831749927711
0.189912845287405
0.185746793941344
0.188606089723374
0.190315937065052
0.183522082691874
0.181318027063573
0.188320494204603
0.183163767989751
0.18517147011149
0.186319495712545
0.179536772541542
0.181257432985927
0.182845319775315
0.183043467312287
0.182588131388322
0.179092945294267
0.180347834432487
0.17853651541554
0.181424579762126
0.177373071562337
0.180111642255844
0.177297374257632
0.178045491628918
0.176324506646375
0.17995753970641
0.176129743263546
0.176245847234346
0.178840978074686
0.174825840247295
0.176248389613753
0.176094714400873
0.174035718571743
0.178580932215864
0.171681883977715
0.176596541776603
0.170696333271622
0.177154911429482
0.172108993555816
0.171208763573147
0.175060216535978
0.178597985004668
0.175546388493691
0.175877555542611
0.172313332272465
0.174831993690648
0.178612079292075
0.176719232938447
0.175053740721284
0.179513370465032
0.179921872381238
0.180115054645667
0.174367285682514
0.175203032213039
0.174654933653681
0.179512664545929
0.175545543818853
0.182692731796106
0.173014898731541
0.178287696947756
0.170920774414749
0.178151231586435
0.170971970235011
0.180404279729547
0.1695532675146
0.176312264113561
0.164013111460301
0.171560374232903
0.167307638369582
0.175858459772051
0.1720613662428
0.178024457869811
0.165609486677459
0.173460172984731
0.167999633652698
0.174797257927459
0.16610647867397
0.184457161007619
0.159642428090304
0.176479930811434
0.164655771651206
0.175207247416098
0.153278356706562
0.180686539201962
0.1569027779886
0.17394391441792
0.15372214755237
0.173635081327554
0.149675677066755
0.176280219187546
0.144016876519008
0.182659372685081
0.151332373189377
0.1800118930167
0.145316984496976
0.1838932286892
0.140358259607052
0.186809152149573
0.139751307848092
0.187905004849311
0.137008396207615
0.196780167943019
0.140041720059709
0.193410940923728
0.144820401682696
0.189788014463618
0.140799665397227
0.194280310230518
0.146087548301542
0.182461102479224
0.154404785086981
0.177119789559502
0.161231841672235
0.162325442609167
0.171689187339532
0.156347752681306
0.181995855827026
0.138361465014374
0.19466221310797
0.135921406083838
0.194376485734615
0.138139408109551
0.18949906724906
0.146675910306714
0.180386330966719
0.152141618771842
0.16765459566593
0.16060067549884
0.161727616479229
0.159134105697679
0.159114043375602
0.158382765633165
0.160433207872828
0.153114474861797
0.162469173546115
0.14851360894693
0.162073915995033
0.149478328594033
0.161136164781092
0.15399081140739
0.161810620631817
0.154131153244859
0.155053147060605
0.152232374501628
0.155465830223864
0.152729617920105
0.154570372155428
0.152624709366108
0.157857410721217
0.151446891180206
0.155467909081602
0.149201592873051
0.154744812977216
0.155635469394089
0.159651059364661
0.153544554772929
0.153481010721751
0.153917436143424
0.156306849325312
0.153569126880835
0.153617878799247
0.152404092548646
0.157958096376865
0.14973986586767
0.156124525543007
0.15227985957675
0.157596085662619
0.153482281009383
0.15812290367704
0.15358664190687
0.157227804876603
0.153216360515887
0.155087056728787
0.15268024457502
0.155622188377175
0.151010197135745
0.158136762205983
0.148719180704059
0.154800162491818
0.153687548956606
0.157024079599431
0.153062518926561
0.155544983321172
0.151106174857073
0.156745216074689
0.153942377111954
0.156023556548877
0.150742339561685
0.157720384991596
0.149325290903431
0.154343000210621
0.150279718616836
0.155470422646935
0.151662179400677
0.157022760430905
0.153147817158897
0.154269313508335
0.151290600289746
0.156142315808593
0.151127120059351
0.154543736777011
0.154455459770079
0.155885897199686
0.152889364338999
0.159618851342232
0.151854219522751
0.153696911211441
0.154275157481825
0.155707167576165
0.150006541455553
0.157034335333077
0.152975975154216
0.155147935953341
0.154906801445325
0.15557413930385
0.153165165842522
0.157678243522173
0.155125140930717
0.154280970876781
0.15366480367132
0.157423049222874
0.153502047169807
0.155956824881072
0.151840499741723
0.157787599962331
0.152369698083735
0.157404318661839
0.153570297682552
0.154077062206438
0.15416554947446
0.159121183505335
0.156142603172539
0.157427984197121
0.154952580596948
0.159044215088709
0.156620033838744
0.159968329124041
0.15258852535918
0.157553959920281
0.15718030808009
0.159460527788163
0.155355005881226
0.157473439845424
0.157133944336698
0.156216331836365
0.156178116105229
0.155668863765618
0.154961524387143
0.156492690608654
0.153021953623307
0.159323901755308
0.155727838490787
0.159246610487291
0.157211412107518
0.157633869955652
0.156600754690423
0.156517532289242
0.158606446627709
0.158433970350995
0.162981280034551
0.156820825349613
0.157081633469346
0.159434890929278
0.156132765361087
0.15863635486662
0.158659879723446
0.157558296667103
0.156697004961322
0.158261743038917
0.158065959273945
0.158921623909991
0.156600514259493
0.160246376506433
0.160223667199478
0.160325310087918
0.160527322978211
0.162174304743322
0.158992929796908
0.158999959562742
0.158488623370929
0.159717844922209
0.158753758151174
0.163391141038746
0.161451267502924
0.162474869646783
0.160511475789727
0.160490711999374
0.160652395556505
0.163154689171557
0.163162235452986
0.164710912348897
0.161133121533892
0.164763691035425
0.161423254456513
0.161372894458693
0.160053032553843
0.161767636372551
0.159928576856472
0.161890296270872
0.161049349967713
0.162709448248454
0.160384643475493
0.159501738624023
0.162155301407879
0.162784194659891
0.158993556278353
0.159624479151975
0.159880151997981
0.163479154611489
0.161267715025355
0.158894801367294
0.157349556063298
0.160114855586531
0.158502407982664
0.157027444614735
0.156575760458377
0.157535957127298
0.157779722521508
0.161351008290335
0.156202258922903
0.156775794109012
0.156407908831719
0.156449237400807
0.15577276063189
0.158728204359524
0.156556302079518
0.155764414683823
0.152746033878518
0.156192256175883
0.156318617835425
0.156294076866658
0.155475572934911
0.15641291299034
0.15678611782793
0.156086334523889
0.154851346910869
0.156224275865864
0.155089816585471
0.156433098626989
0.155626692023598
0.155678394881598
0.153206916434428
0.155839433059532
0.15542268931836
0.154717053610726
0.15355256304752
0.15156708941824
0.153792408850187
0.153692652031081
0.153097248039536
0.155528292906798
0.155680558579116
0.152705614410274
0.151479823972986
0.155641194210893
0.153747478901586
0.151229821890875
0.151474047284959
0.152957420635122
0.154755775459323
0.154508899484271
0.152505061682319
0.154294355267539
0.148352929243282
0.151968266261635
0.150758152507126
0.151509080477723
0.150204292868047
0.151109896377609
0.150474238349694
0.151303980759745
0.149866913320272
0.154311388280651
0.149836370616368
0.152719014373717
0.147952732482352
0.14994065455997
0.14959744892071
0.14651374630008
0.149948127975327
0.148907295549992
0.148589099413923
0.15058866300999
0.146559342704519
0.1468558199084
0.144775098776128
0.150287442838624
0.151077346149631
0.147354104026833
0.14849542512956
0.148578717048323
0.146389311695901
0.147972736945124
0.147747057704727
0.145874128396131
0.146139404637277
0.149948619613328
0.146998343632292
0.14634066329483
0.14812721532107
0.145720458864975
0.146500188967514
0.143132934334434
0.143497854779883
0.145726013311102
0.14565873927452
0.145690628236533
0.144802199130785
0.141842827899859
0.143737410429456
0.143169866367543
0.143766272068955
0.149752130927696
0.145624695412385
0.143098293066166
0.143736257593982
0.144547571934225
0.14126876894477
0.140083571547688
0.141306296454057
0.143547714323772
0.140568842365311
0.141147324923142
0.139889180889797
0.141930099721791
0.140719597605926
0.139717546240267
0.139273265928448
0.139972043943583
0.135986130894322
0.136205910579511
0.13657550211578
0.1365018731041
0.13594180532249
0.138602477152885
0.135462239774706
0.136197480006305
0.134598630936081
0.142402596468233
0.139114994919948
0.134479335179241
0.136749646007679
0.13157795622799
0.131430960448755
0.132792646302203
0.133451242909083
0.131088368916308
0.133765383406176
0.133226094106575
0.131977651478961
0.128325523143056
0.130349388776672
0.129295092862797
0.131588787726338
0.130463286545308
0.131599807116921
0.126655550280123
0.129262029997184
0.126424180102668
0.126961150833807
0.126755728300407
0.128347350408965
0.12675855455727
0.128302213366299
0.13192529006472
0.142179282831782
0.127618246867702
0.123460048199014
0.128445831886409
0.129642348663782
0.12393337424119
0.130262829353129
0.125236782643833
0.127075799523209
0.126521447023017
0.126276170852452
0.123713051628525
0.125370185355026
0.123302480221571
0.123903529833262
0.124553880144929
0.123982373185337
0.123202686209053
0.121685876599413
0.123006759794384
0.124000494495402
0.123607746576348
0.122193891001428
0.120716742708203
0.124074834221672
0.12294556688694
0.130955269929002
0.126299225739499
0.121582151369785
0.122329836600362
0.117693444575055
0.12073631254933
0.120569707333809
0.122779406854215
0.121563088685381
0.120188318207028
0.11851891057542
0.117237043421461
0.118152451060135
0.119749171368249
0.120220952433234
0.116020177471654
0.117605685218118
0.118667170650804
0.116685378385804
0.116176049062185
0.117959715408557
0.115218069935752
0.114550220564898
0.118739070890493
0.116122927147168
0.11770454536753
0.117958713363946
0.135983260877385
0.118620393189102
0.117529771200559
0.114354827214558
0.114204384603149
0.116428299816169
0.113678356971382
0.11353314054746
0.115256864726285
0.113875678324413
0.112504615032667
0.114546809112668
0.115904836251917
0.113533558529545
0.11408464550692
0.114737688313335
0.114061835816701
0.11409210982007
0.111962151023125
0.110743988396848
0.114933500052754
0.126260004537164
0.12100048399487
0.111841204102442
0.11731099671808
0.112236573057462
0.125639204835513
0.126208167697523
0.105758996384234
0.118986408172643
0.108783381229834
0.115208861060934
0.109540411581621
0.115756448698774
0.111627716920372
0.123459560211493
0.111234381043456
0.117817618868993
0.114195261278134
0.113315006884961
0.107843372268433
0.11343127348617
0.11124695167761
0.110734368985982
0.110054567959901
0.110223504849995
0.110900438820062
0.109636041662374
0.1089049563111
0.113924693210695
0.109128845062885
0.1184101651565
0.107900429111317
0.113971155807152
0.106534084930801
0.111272292393602
0.1100872671683
0.130384748601438
0.107824501482136
0.108972585669745
0.108130856155767
0.110047287188746
0.109576151957766
0.108123359040539
0.110623151475996
0.110268906060853
0.108791613199496
0.111601829032666
0.109670992885581
0.108385998689984
0.108835616329861
0.10932109072222
0.107825530002676
0.107242182695561
0.109709143089151
0.107138817993188
0.108847877583738
0.111517483266854
0.119269638964966
0.141471821916665
0.118885447035579
0.123071487751032
0.111827004741622
0.11271811856426
0.103667685253524
0.110276080205343
0.103812467323877
0.113747072653105
0.105750141378159
0.111760988903264
0.107275232016817
0.109507565500436
0.106582212054366
0.110043232630222
0.10341717187425
0.11233768742815
0.106988433232007
0.108621245453328
0.105957501711139
0.109451942542026
0.106826025709586
0.115013444389905
0.116878648492891
0.111020271268221
0.112890707544082
0.126201392320972
0.146370464050902
0.106381440803152
0.118459586114987
0.107332160376871
0.108648431190694
0.106413406432393
0.109435249996425
0.112129140820437
0.110688823843362
0.106443168159564
0.109175042328805
0.11028033119114
0.110453806011167
0.108382753453655
0.121282420461867
0.143635971430531
0.124729620049298
0.111249144814115
0.112784395951898
0.113836133813203
0.140804377040009
0.114383043348687
0.109068916239214
0.116476765060907
0.107799818161361
0.111753272275303
0.107253778827356
0.111244496270035
0.1146947716116
0.118034980010202
0.106023806138419
0.111545492988584
0.107572413651303
0.114828319763721
0.117008541614666
0.125000105566332
0.12391728871256
0.112984132818292
0.115344590351908
0.121607071800088
0.109077254073247
0.115384521535514
0.110967400555757
0.117372086428028
0.1235653216164
0.136466319031654
0.120325299562393
0.12907452016496
0.126454980883239
0.111451767439699
0.115588901314511
0.130254914286615
0.116816638775119
0.120669903145582
0.117187353001328
0.156931657539333
0.129188731594342
0.139056754375427
0.116715931836051
0.120331580864961
0.118365677450534
0.115893765499219
0.121287787580452
0.133074604326139
0.131018259559269
0.11229152653128
0.123326922310183
0.125166238435705
0.138508244918506
0.121401205201027
0.127051112704563
0.117082232567779
0.129589306430011
0.129665105302009
0.130862591756013
0.121301685861963
0.156690643230723
0.162798830507517
0.141684337152531
0.135526665671275
0.120007752498691
0.157426107592846
0.142331137945506
0.123434866868703
0.129321926816282
0.125595647650787
0.131832726518581
0.131560885089474
0.158045624238931
0.140157563831149
0.1252600101356
0.137704918160191
0.132113720596646
0.151442297380581
0.148533084627968
0.129909617816302
0.138595084131002
0.138170422908611
0.14591435010901
0.168177330211738
0.171845364745651
0.144082478526113
0.186190282490979
0.15892805558945
0.164182810274423
0.152057658813547
0.155101871309882
0.162576293765273
0.175376796859254
0.153435868543147
0.150244631663522
0.167161109944117
0.183750833624162
0.16092841607118
0.162816893616241
0.162838436868613
0.160982125911664
0.207183552038361
0.227130407467891
0.195618695073165
0.176301388537829
0.177025733922266
0.197633514679115
0.184513561175147
0.17151867279237
0.174728358087403
0.171892795381009
0.178036356158911
0.180554887460624
0.188800987010902
0.192166523460246
0.184660981558042
0.187768963688343
0.18902486773763
0.223522881151017
0.247843577751785
0.23825989896782
0.212495328217622
0.228948965683209
0.233110018384723
0.206513047142563
0.209464996586184
0.202043389905351
0.220777206961629
0.219587726840446
0.215239509423328
0.218504689503794
0.239664792447272
0.248699797854186
0.238966184989428
0.260945965375879
0.24372461305992
0.246486981444189
0.25120596819726
0.366112778991405
0.307554547907658
0.260276372511451
0.301944829163676
0.276162590331751
0.37167981269161
0.314995370164044
0.307728178259523
0.311477522823732
0.321298208593572
0.326653216662764
0.351288535262968
0.35085424834067
0.372990855826947
0.371424026588723
0.378941353400768
0.384439987309854
0.495094555227239
0.458964432168315
0.436116629061344
0.418604532526215
0.449717663000346
0.448928498360969
0.450250274320646
0.450263246262902
0.472427516832174
0.473885295537799
0.557756707903092
0.501253177869117
0.5082007559681
0.523581109223542
0.56341679549403
0.549661231266012
0.587323152715349
0.611688296945965
0.571781226832406
0.589819738646988
0.589071860247726
0.607717888225923
0.612122270596752
0.657113299749144
0.675285754528673
0.652530955166803
0.660854459885341
0.662248638130297
0.680622139118548
0.692854203309142
0.712009573368878
0.701511222433618
0.764547865394315
0.79769467346518
0.988958450522227
0.779285381160283
0.733950486345063
0.74839215031972
0.749142688671221
0.789703660181624
0.781079158568642
0.76941848658419
0.784600104929217
0.747130120102024
0.765273837791845
0.750364683170284
0.7546925946365
0.756868145771395
0.770725132180357
0.760026289176873
0.811478646883326
0.790755519682747
0.834256545829443
0.899019181357745
0.784093307543961
0.761116646025469
0.778186997803434
0.767200946524099
0.76785301245425
0.764899713333899
0.769558192001122
0.802260710888101
0.766929995432466
0.743171475726823
0.74115408130986
0.758991979125273
0.762810668418907
0.692881554726185
0.705324506513372
0.694682366599296
0.696845034525501
0.665184264704777
0.67483251750994
0.73501752817209
0.661798846824517
0.633456518893725
0.646429085843815
0.628435928935988
0.632250191073228
0.614622921497432
0.626293395816784
0.617457608773903
0.614792259750435
0.606940045923235
0.610374386872017
0.593558588986514
0.591054815347764
0.591548041979949
0.593193812505266
0.582859314186775
0.587162807064325
0.577553610436168
0.586797914533601
0.568866159106309
0.58094787302704
0.580404567491221
0.580194696397596
0.579268695639428
0.574225478452247
0.567938323155449
0.576081290012079
0.570747547148291
0.578711004222944
0.568760492093761
0.58238657084566
0.571117569517504
0.58090095111248
0.566701246417311
0.569590866367075
0.572575029680793
0.580698832328758
0.57709191225087
0.571572936857558
0.55861407554749
0.577435619619198
0.569534193755403
0.624556583875984
0.608466030164107
0.574344390354092
0.566512336301527
0.564010696427586
0.560503294879137
0.562864965229738
0.59650246141209
0.605689458113238
0.572994668653107
0.560462975122822
0.556162538350623
0.57972604072423
0.559986528768024
0.558341368520613
0.548427752355249
0.547907549380848
0.586863684913599
0.659810207884363
0.605021731345344
0.644363069545272
0.571810543076861
0.550870423547544
0.561902655309954
0.59868577228515
0.543723640682655
0.545640049207762
0.539439642778041
0.581918670001961
0.562328486900322
0.538490682916667
0.537291382943776
0.541388208197788
0.56903035571234
0.593326901968979
0.554063392318438
0.560772285657896
0.575948632681634
0.566145294855598
0.578829077660891
0.62415050111158
0.550192648638276
0.510856731247026
0.502207599274171
0.512981051512387
0.512112385949151
0.563984662958929
0.519899814759645
0.513603233029454
0.487592377084212
0.483974966346704
0.483318932762256
0.509045526577232
0.488707409916444
0.486005236539225
0.505443253529677
0.47084455965492
0.477181360981231
0.499529572402222
0.50450240766962
0.523238962703708
0.458951292564915
0.453580586015143
0.491761113449986
0.494471044539215
0.460168175282617
0.452380341617172
0.424445311575095
0.445496574924934
0.446127849639975
0.426668247077693
0.440659840395736
0.449915979614542
0.442735416999769
0.481179592054134
0.496501058942872
0.46735720168449
0.416196242275432
0.387241658030531
0.383694474420622
0.392280018137667
0.381489174492958
0.383777827007055
0.415527981264363
0.397956742525528
0.382647143806004
0.434976471498255
0.400045749972253
0.383799983149464
0.383908013229108
0.383820598775818
0.383795065016489
0.429882707777717
0.444041427676899
0.417792371149689
0.405264651639695
0.42785192536209
0.409503117786208
0.410252284494945
0.409344424069282
0.413486712126572
0.426275411402107
0.43885760502024
0.43276738079622
0.447596358126271
0.449076119723877
0.452641945590342
0.48013192525693
0.505319169068138
0.477331154961001
0.529681537526423
0.520852071481084
0.57091751290807
0.530417048984707
0.523155958568915
0.529007099313154
0.535038128741834
0.544475203900603
0.545920239542416
0.560456940503434
0.611999782951323
0.572407804305629
0.577967946342446
0.580599914002502
0.586983712269195
0.585812431886885
0.633241367224113
0.634261316519819
0.686667453035414
0.658571930612934
0.651205256207999
0.62569680686281
0.619328212321148
0.633153049247025
0.637578639466305
0.632047114133326
0.641084288859835
0.643038722373621
0.681351623101719
0.64474232195574
0.649467961130176
0.640517759919319
0.657800277850557
0.642878385560992
0.658715426131797
0.660498103704824
0.661867493680283
0.66942822759556
0.674987970634065
0.668368792396346
0.787115020092088
0.707112747367466
0.689362962783238
0.685046257211493
0.71220494504281
0.693856165394943
0.704077625442178
0.730927392755986
0.737482091676123
0.716082267169121
0.714594700825614
0.716717448204029
0.741395303371612
0.742537882349137
0.77132632124424
0.738230158288023
0.755938296424943
0.732447034962236
0.827267110198127
0.80724494816234
0.79051393868744
0.782546797739257
0.781699581868697
0.786889041187802
0.787302147190952
0.771022116266891
0.779075092506935
0.801890510876666
0.781834556249642
0.783015102429235
0.796231189166414
0.790392945446173
0.795004064697206
0.777857786599192
0.814329708255581
0.789654681920285
0.799510144637885
0.781182456757679
0.78806542848495
0.770272167803435
0.817695848337548
0.818507589151747
0.792371482482702
0.793216680880071
0.804926172045009
0.824092167241185
0.813748934473325
0.771964313661062
0.797061020232844
0.77984209532117
0.79886596316711
0.785989102565722
0.804387881837296
0.850485333786084
0.816455363382639
0.795345520350929
0.814211851102409
0.807467836678866
0.809822608511924
0.805467267516389
0.828424183045825
0.81465081492316
0.84159295772627
0.826906987225751
0.829204208292724
0.815731585201024
0.848854336001576
0.839352708371425
0.863921343758148
0.82945447695229
0.836445799977093
0.827427695482016
0.833928442667722
0.830206544464189
0.829127849851291
0.802145779474029
0.812112027225912
0.803676166617948
0.804538955446913
0.841583270982813
0.798482773318818
0.811815960480915
0.783378034578051
0.765916282095064
0.777790643699674
0.759445419606782
0.758831321483979
0.748906699067297
0.758555736063118
0.733682477700996
0.750334410972361
0.741852006585515
0.738799446866285
0.726855266853003
0.740388563750468
0.74368752127159
0.745641532948559
0.737931295279149
0.731497921911449
0.734387248590323
0.743285730095128
0.737500156579072
0.726570528165783
0.741601219733979
0.744245327611515
0.747202364524049
0.736321354133456
0.739258380674409
0.734172817664213
0.730804814928371
0.72691900954003
0.720805514015783
0.731538217192398
0.728536666331303
0.724923062620641
0.737946087654447
0.729495346354902
0.72144633896514
0.733291587073743
0.718187664679756
0.72781122228101
0.714335333948542
0.730194351134542
0.716381703142504
0.71871718343399
0.72203265148884
0.735188344263941
0.716481079728346
0.734832447028835
0.723656876808131
0.724373548528962
0.717976269530933
0.730323973274177
0.72757043894192
0.734721065142884
0.726500585435884
0.725789588661045
0.726552581797969
0.723574490649417
0.718720694893643
0.720702897252801
0.719981369104647
0.720836841997893
0.715813876266833
0.712412881888855
0.709383177589853
0.704913981166688
0.69235266492503
0.701535523121
0.683745563005335
0.68054901786061
0.683030525168679
0.67310450744706
0.660804615292986
0.664199963586765
0.663524055453079
0.657776317229848
0.643661722787118
0.646845444986387
0.63675431945041
0.649286626923558
0.639653831311431
0.640508637334761
0.635947011923801
0.635481272788084
0.629854881323077
0.636295671551848
0.632599571552872
0.630372468930066
0.62679080097909
0.633771513869415
0.628649597669068
0.631664530546726
0.625104981488499
0.639243154932818
0.632562945851137
0.637339275926714
0.644874379156554
0.640942768546691
0.647232967450628
0.650070738787944
0.657433625887413
0.651879697445227
0.654205445398265
0.655351716484633
0.657139387356994
0.660708881842144
0.6657054120066
0.665153738017463
0.668556919415165
0.66524594639647
0.667655753417246
0.672804160248737
0.666830247570796
0.671231602404867
0.668048461161097
0.666453856630681
0.669866502780748
0.671240577065236
0.667198374123549
0.662461192355914
0.661118101686653
0.655928604571992
0.655341532221696
0.662208112357939
0.655509526929909
0.657222040714485
0.655963308445134
0.651710541857105
0.649010369382101
0.648903233977902
0.642138265490198
0.648398981021731
0.634064925461036
0.645206091121951
0.635927316567695
0.635169488061277
0.629011607439886
0.63067654794685
0.629270044076632
0.623824503610937
0.619982052458005
0.630171144629081
0.625142519325653
0.625252403219478
0.61656191688739
0.618118305444865
0.610303058430309
0.612921148971626
0.613295147786955
0.613597177692378
0.607459121841485
0.606132132223901
0.600406679401607
0.603414031503312
0.589871516962028
0.597530082512068
0.587878390957921
0.590423720147942
0.580812667109298
0.576234641987063
0.573106635585274
0.561347026424548
0.561440337867345
0.561892869293477
0.552028506181171
0.552964957512221
0.546592743515353
0.544377412599894
0.54291495793825
0.541712065209489
0.540148536441268
0.542075327830063
0.538562239705293
0.538169726806489
0.533011604910045
0.532984630340942
0.525989654317716
0.525974522552654
0.517185199414506
0.518930952033222
0.507455475596481
0.500402276468764
0.493499352578434
0.490154956511283
0.484542860585476
0.479690661353311
0.479317100544229
0.475538688339061
0.474579274559142
0.472591914141376
0.476896336897239
0.476583460564153
0.487068758270003
0.496415903970804
0.504734322834405
0.51465517133083
0.532393179121747
0.544077813531878
0.557851468121785
0.57776585900844
0.599529122782579
0.614367993645813
0.641925432946324
0.662331526827684
0.676878349044034
0.695429084928686
0.721768319025724
0.739218442928253
0.761489740884408
0.772910385628358
0.795217253078479
0.823324168741661
0.83923053114652
0.859783503905695
0.866328503198517
0.885690842393466
0.890532798456449
0.925533458757733
0.91919334417185
0.938500253658147
0.956354787381185
0.957976943465636
0.972644902184314
0.986235338454405
0.992380702129522
0.989549790491212
0.99015222758469
1.00585832170391
1.01930706454007
1.00211155017737
1.00400839651562
1.00533189577303
1.00959795502667
1.01407407913128
1.017036001866
1.02247670603781
1.00419251059267
1.00217355701738
1.01098278665905
1.01420499187172
1.01780248256659
1.03315638030672
1.02880156055344
1.03651739501302
1.06293088572263
1.05206563275508
1.06596601181645
1.07352057263173
1.09061606601313
1.10255345613273
1.09339813624301
1.10815922812864
1.12907189347531
1.13284995801642
1.1495166943142
1.18839466165963
1.18260098034105
1.18002556628102
1.23015714337268
1.21214967536201
1.23077639540149
1.24772469616229
1.26811445581123
1.27242091547154
1.28246615053139
1.29260702947976
1.26465053926681
1.25531788591204
1.26624488838022
1.27168545130364
1.25040626462101
1.26001011586744
1.23767253171441
1.24117364355017
1.23714941276766
1.22537220233196
1.23795060805275
1.27606377760063
1.29957720803023
1.28017995377715
1.30904831822396
1.32968419197333
1.31502621620954
1.40358570564412
1.38513140742057
1.41733059915186
1.40069011194134
1.42227075570143
1.53565998557052
1.48644560313837
1.46389226543468
1.52834682535508
1.52317236311381
1.48029534897121
1.60682470529723
1.58115610006145
1.61438600374437
1.66453080307399
1.68205843415771
1.68519873487769
1.76678683595155
1.72181857537883
1.81505425217111
1.7739934259329
1.83841251442076
1.85754921569373
1.81553483166171
1.87599019454757
1.91327433343641
1.95398712485418
1.97848242358221
1.92013140317675
1.98777390873759
1.99788035254099
2.04793216385794
1.94640063664766
2.1220380733458
1.94170990617451
1.97957335476546
2.08010210536158
1.9020376795226
1.9647704953041
2.06381520319034
2.15340696663907
2.00743341049368
2.18556509134244
2.10342227751052
1.90136091223693
2.05478288171885
2.15245155427753
2.03056331930763
2.01742404858232
1.98182011270219
2.22078020808788
2.15924478620877
1.97193033151147
2.20419719441814
2.59065372864212
2.19654345026701
2.03534450847993
2.28380731680347
2.15131077928396
2.21783890962873
2.05810411270474
2.2557213542946
2.28513229372884
2.25109799311327
2.28447151302035
5
2.23113632117098
2.11335532490614
2.22833236139796
2.48459525635765
2.43669262711493
2.25987002296783
2.38984680375488
2.32726254949894
3.26412204966865
2.57841741230454
2.2932157634583
2.45242123031375
2.18038108575475
2.1259125283982
2.19418635279687
2.39487599792713
3.04039148286698
2.84039727258485
2.2905248759751
2.37404935819729
2.53517455493525
2.69957802389828
2.86728763636933
2.29426179156131
2.07918945221747
2.92532790939264
2.24993478642948
2.34915139389844
2.20790552849463
2.45344978951885
2.40163404297953
2.21467902847809
1.90036282925267
2.01112491737185
1.82903502302773
1.81325869118508
1.77996895497668
1.82300223262671
1.75408385140413
1.77359176307179
1.69964814414013
1.80446654491126
1.70351079234814
1.87277601023273
1.81985569627566
1.77211125468157
1.71068152110612
1.7402861325253
1.73953174759978
1.74324139108102
1.5778847058477
1.73850593256502
1.59623192063435
1.58720623413782
1.53824785673677
1.569599187123
1.46632109301011
1.56846594984924
1.41822223013748
1.42687728453251
1.39292995029087
1.39423618374095
1.3604269967794
1.33641284803584
1.2398912129429
1.21688635239602
1.1906123948402
1.14841383429675
1.09643756636018
1.09610038008641
1.01796433158449
1.008962495203
0.966288368931442
0.947574003218722
0.898923498264708
0.877309314250744
0.857081949181444
0.826247157554611
0.814991096402575
0.795919535474429
0.767665250939564
0.770450762336105
0.750210594825912
0.758048997150318
0.739597875141791
0.728846709535839
0.724929256016072
0.724814314698983
0.715285975893544
0.712852932954126
0.723543472685952
0.711714963168919
0.719012953142935
0.725204801371268
0.720564792666444
0.718256891773503
0.724861980062794
0.722009280819525
0.704941002607738
0.714627488233261
0.704900490016957
0.715739537684553
0.687275790431489
0.698249429415626
0.684588930514829
0.684256805734368
0.671411831871403
0.676928709856751
0.672659583611312
0.675583617065002
0.666017604524881
0.658546484446134
0.65386994401531
0.666382165419234
0.659285738887849
0.670632657554877
0.668573247235348
0.67563172033917
0.66824779371116
0.687731254923547
0.681009051354538
0.697832967348718
0.681509765156994
0.700014267592662
0.705206554175789
0.698284910302965
0.701796272221349
0.701266103068993
0.689724638741484
0.712644604574827
0.698623945784434
0.707751315926407
0.712236784547261
0.709186924915454
0.719399556673365
0.729204116178951
0.720626691296432
0.732697259308794
0.710631450123898
0.728511467927387
0.730312586848738
0.730608292655864
0.735023371023721
0.756791760349042
0.753607578426278
0.789246187011189
0.784673545738197
0.806111491095091
0.84783231814647
0.876394456249096
0.881107703652905
0.867341984324293
0.881228293377472
0.929610915937442
0.948975064058282
0.897830329561575
0.906446139963635
0.887651019248101
0.874245983545419
0.888421774498434
0.860018573658424
0.837300627982038
0.852305588492191
0.8435731449825
0.829040158185254
0.849772905448562
0.831355676461556
0.832092798063615
0.826456132982028
0.846884159474828
0.843351291734463
0.846412941755776
0.845158975153431
0.840373183899892
0.824102835534254
0.850524103757223
0.830527929365348
0.831516475704494
0.800823425098766
0.811054576633285
0.795528835051366
0.788536279457739
0.785976944779043
0.783087506202277
0.785690098727938
0.792666244103419
0.762222049728053
0.754379085618133
0.774529988145793
0.78794930480092
0.747031610524486
0.760388285418296
0.751107808224058
0.768522783474805
0.753877913205327
0.784087362180434
0.758980239772468
0.754394289935954
0.726197853174137
0.756822950520804
0.730266939703823
0.764904195639788
0.746100694922469
0.726608424986641
0.731067320468923
0.724710676195158
0.728006980670081
0.728268047534476
0.714553849543269
0.720671347306219
0.696094584505999
0.692203221364862
0.703662118147963
0.721298547148731
0.699280271963304
0.714868298506765
0.697765100780305
0.692775762898618
0.704882476826221
0.708563570103741
0.66396533308517
0.676393982257804
0.70004103739074
0.736452582442815
0.698823530996692
0.723714435130312
0.697277305726681
0.714179085127096
0.710041327696135
0.719043159002936
0.68967842718153
0.716080741283538
0.713184911084029
0.707892779043789
0.703991304550214
0.71373335456411
0.728208529717923
0.745262046596875
0.714785840652849
0.719031743525361
0.693392882288304
0.726148318239824
0.721391049959092
0.731612950878955
0.736066488912281
0.760960932804042
0.739121507644768
0.772660505477229
0.801040016350198
0.808781310814098
0.79004316135744
0.810052748109523
0.815649288811333
0.836868685434065
0.827787072760978
0.84406144220217
0.838373651198759
0.895115034957512
0.83404703767182
0.856883828618103
0.947619637339623
0.972277701782657
0.91291711918688
1.03129364313132
1.02916599782883
1.01366545605185
0.974083841372849
1.05711064680533
1.17042312578109
1.09824357665795
1.02197472877206
1.14106042715404
1.10577412237028
1.0972238977926
1.08692480673697
1.14107820038503
1.07750484241726
1.17278485691291
1.02647807248682
1.11411334090509
1.08981943371289
1.11889349961874
1.10772912708428
1.17363760730882
1.05699343252778
1.11136175230594
1.05517439570087
1.21319875664274
1.04497698739104
1.0171461453474
1.00910534307154
1.02523609653128
1.02626833846899
1.03458691470493
1.02195416861744
1.12870987865013
1.10820642748111
1.02940710129742
1.03549483050494
1.06228620420301
0.996571955225857
1.0385540475593
1.02291295943633
1.00591268867613
1.05991267221274
1.1166371904124
0.958160851194135
1.00369527043182
1.02166041107091
1.11992023198033
1.07324632131795
1.06095210025915
1.02911035839163
1.06941529658585
1.06673342640839
1.07828650239442
1.00848708009013
1.09209387701274
1.03472654852994
1.15926666566551
1.20707596193936
1.10685726683885
0.989230378644259
1.00496211648964
1.04832528669092
1.17977788998277
1.01949176701494
1.06291828481449
1.04770583427196
1.00021016397007
0.923339850180057
1.0165741219195
0.978486739618956
1.08879227348624
1.07840611927057
1.15801984343
1.03824223008059
1.03430213998848
1.08657886386932
1.3083788865194
1.11873677310174
1.27541377525807
1.15269218771671
1.22328034340899
1.09279122236207
1.23069807887782
0.993777339225236
1.35509681205694
1.26915125460177
1.58780798139018
1.38644034744489
1.36327332655687
1.24391075923538
1.89708368674869
1.47650647332451
1.17781848492011
1.08131281541269
1.68140962541199
1.75386197147085
1.22385129482057
1.12938317491797
1.31385232782733
1.39149719116568
1.4967199879652
1.14648977472834
1.33130698452176
1.2817809901674
1.52454984296357
1.10255104688117
1.11672895198749
1.29263561220857
1.55352855805565
1.22290158039339
1.16857503152283
1.14103453004564
5
1.13189577223926
1.26439429599348
1.04907288778857
1.17066965861016
1.11398242049758
1.5341381439591
5
0.857595686020677
1.30787086047971
5
1.19125779006581
1.24119958099072
1.27252894810694
2.83950499470833
1.1226596025721
5
5
1.33540189829139
1.25434729530849
1.29595464552245
1.44131682413582
5
1.03251229555875
5
2.54081145254584
1.69221534832031
1.0083820910969
1.11002615080543
1.05821284028038
0.846855448606511
1.00770090361493
0.718126404765587
1.21932680691452
5
1.70113289975396
5
1.98602330509957
5
1.08507802150389
