3596
4000.36533379555
650.420452594757
1
2
2
0.0698255912385796
0.0751902128091773
0.0582752212261051
0.0723877405701082
0.0695062169735043
0.0692720289705047
0.0671735560687377
0.0751317553575057
0.0643367111218857
0.0768522621981464
0.0635929007937272
0.0747124106324116
0.0681734389252853
0.079541128304495
0.0647639099246504
0.0669372221493083
0.0552882851760471
0.0763048157118395
0.0709763840125063
0.0723012808188813
0.0645877014528438
0.0767684276339314
0.059975017484343
0.0741804081897732
0.0610229339103556
0.0784871624285347
0.0613102204160142
0.0776038890705604
0.060625199851949
0.080560682696105
0.0681666391317115
0.0743166214929979
0.0643267614765524
0.0737316276892212
0.0588528985016378
0.0774702396885444
0.0675526086396188
0.0806430710874369
0.0635037590261851
0.0824554957757325
0.0740761906138662
0.0727337380382353
0.074426499839949
0.0741977085335049
0.0629957730834833
0.0844246561263446
0.0660386431393834
0.0803972759441394
0.0659864110262202
0.0726740633913121
0.0672046598672115
0.0690005362169332
0.075151986673841
0.0862605910482755
0.0716185262772912
0.0892830137229943
0.0721989114734245
0.0781971415892749
0.0693271618696645
0.0747194880321819
0.0879619483868942
0.0841431317942331
0.0628931085956792
0.0679533982522573
0.0554817990823812
0.069204544316209
0.059639487713256
0.0673947819975351
0.0591802794468923
0.0805738064220479
0.0525544007417229
0.0955283964438429
0.0775102867761865
0.0858144204447192
0.0765621866404721
0.0793185324740203
0.0633363123626961
0.0684896728782607
0.0548945371014953
0.0853245360500028
0.0822283335965684
0.0810558799333242
0.065043573053097
0.0676754531879159
0.0725001415336199
0.08771331059186
0.0484835509158749
0.0840832775060662
0.0802284462944794
0.0836290607646851
0.0570580043319303
0.0762154177753935
0.0594845897923006
0.0654379329781109
0.0532754694601938
0.0715953851966185
0.0548311135712634
0.0812220004040221
0.0503177549595356
0.0965791524832968
0.0556528097588555
0.0901280365602794
0.0978340751122981
0.0633380996788276
0.131569271131018
0.0715392269911557
0.06867987006481
0.117958140330202
0.0782102260003034
0.0805851579821985
0.0585745838403404
0.0746410158495571
0.0617007845223286
0.0789107136140222
0.0516691787045981
0.106361158784942
0.0825798943366609
0.0803895243236005
0.0559547791142499
0.0772825085543461
0.0310200577093231
0.118656098808451
0.0927741609684094
0.0795372855942286
0.0688204495973727
0.064128294753894
0.0437454557850512
0.122262869120256
0.0838403979239653
0.0713095226342521
0.0539430448474031
0.069055543349444
0.0552679438192501
0.0739952037707558
0.108011120119805
0.0655365769662514
0.0635706389855255
0.0619344598868674
0.0922165133666693
0.124161782136149
0.0754783923926579
0.0752723508156106
0.0470423662009096
0.081238109420915
0.0888150569153235
0.0825793703158292
0.0588683058937612
0.0867840641438744
0.0662694040240559
0.0772848735109579
0.0567944132595807
0.0635028137327194
0.0879353534588091
0.0810494569702
0.0164925509786278
0.160928723572219
0.0912749940781133
0.104408184944043
0.116890319441756
0.0720934212022222
0.0813606308498415
0.0680251750856684
0.0686344052808356
0.0466347763084986
0.0611175043372573
0.0528570576122001
0.0808628618397669
0.0856377531557219
0.0591670840775136
0.075460811755336
0.0937289129117092
0.0776081126349698
0.0526308603822032
0.150211025031114
0.0657999524474368
0.0709586066950633
0.0874200369763152
0.0831036728076696
0.0445882407494285
0.0839023995425605
0.078027075400523
0.0692319762874668
0.0673716260957656
0.0607687283411986
0.0579313286751898
0.0873546067907709
0.0614674918462759
0.0721689299202769
0.0593026233307461
0.0611192834716675
0.0778608841108234
0.130398095480955
0.0800410659780036
0.071882408688016
0.0728268733928036
0.0444215730570389
0.10810245463181
0.0924564483807312
0.0671718731731928
0.0676347464742033
0.0563318863304004
0.0700936123369014
0.0560259405667758
0.0693630284561906
0.0495666187278613
0.0422492099268751
0.111111023980724
0.0789926019942076
0.0659653841475795
0.0532795091065743
0.0622215970829482
0.052084336933894
0.124338452699137
0.0992313743065211
0.0659401025591878
0.0663080586642596
0.0562529307095088
0.0902454000078586
0.0811372475335125
0.0726467612662311
0.0654706076010354
0.0633802474439067
0.0686015545961462
0.0614955955654349
0.0623728747236571
0.0668779973349259
0.0590177995895151
0.0731553231737988
0.061228195434257
0.0686987069367809
0.0723682117950008
0.069742301849941
0.0568284581021073
0.07412053246509
0.0482341641349337
0.0813760333155095
0.0814687632833282
0.0704599984672056
0.0605816441233008
0.0677278033208112
0.0590621286224144
0.0599139577800891
0.0620536215308326
0.0636837819399024
0.0567869849303103
0.0627303753329765
0.106750413246887
0.0725592447804237
0.0681965777836482
0.044905443905282
0.0898995188463392
0.06967507906832
0.0626311322928709
0.0590002743577986
0.0691026261473578
0.056932548414627
0.062765103773502
0.102266481565014
0.0749788331692988
0.0663101907023504
0.0820421666504937
0.071862861700086
0.0712922925477178
0.058833263637147
0.0471933566354402
0.15047953216633
0.063285748731685
0.0753326222576138
0.138015361062942
0.0779313365931998
0.0845242132241002
0.0631088952063485
0.0440116205093471
0.212884254517457
0.095162398952703
0.0703817821680026
0.0751865795749908
0.097923469896381
0.0536110576321355
0.0868432925717008
0.0593795789095916
0.0783994088562072
0.0800047515894924
0.12938319932144
0.139575069775166
0.0470862207822427
0.113497270153288
0.0915358964923257
0.07144533912814
0.0670139754104899
0.0644133640587809
0.0641339004930234
0.089906411151367
0.0827989939485346
0.0951720270940581
0.0701834234041393
0.0679854915022893
0.11000756498775
0.0682009109097306
0.0717861268433694
0.0816623713513613
0.083280005555088
0.0590964091628562
0.075219524609254
0.0590172934154681
0.0863631678645265
0.0455424507466608
0.062129529810746
0.125091851433602
0.0842133798349918
0.0814181561381981
0.113309378939441
0.0755160250619557
0.0716212912064626
0.0655809487066374
0.0711834471663881
0.0619843086071539
0.0636938118704003
0.058785912456083
0.109748346379283
0.0697230856480732
0.0740839050275746
0.0598348445623697
0.0654836033362139
0.072071487418872
0.078380403484291
0.0647952908458203
0.07587186739428
0.0672387224709258
0.0595532614806087
0.0928667397874536
0.10504719189207
0.044964155910004
0.123321330610649
0.0967797543265651
0.0848367383524506
0.0754536027478465
0.072587482426048
0.0783466589619496
0.0722159780026701
0.0713129083077021
0.0704825801175812
0.0808525585436334
0.0972905327322112
0.0853721982272797
0.0759366304632248
0.0788869604168123
0.152376590579038
0.142322715066687
0.0948496674970523
0.0831083588526665
0.0573185847354699
0.117432161923365
0.108073764671225
0.101897433019397
0.113894959767116
0.0803591916373784
0.0963597283255313
0.0818610542551342
0.105646455405811
0.0814663158909172
0.096988054601164
0.0802844517347545
0.0922267328729782
0.0831579967224934
0.102105703015677
0.0787779014595241
0.103803751424703
0.1381871001295
0.105539125222807
0.0887932175371159
0.104268045394628
0.0677811145400158
0.133428401853194
0.119757491474899
0.171052317010363
0.132596304630758
0.13900593564181
0.151979537400854
0.115875268243829
0.11093166892074
0.102960892107333
0.118140922913293
0.127711882462205
0.119030683839695
0.121378272670198
0.118585225874064
0.123972820880523
0.129689756497082
0.122874797913907
0.118593932231661
0.120575075338722
0.156957168846914
0.135744997039072
0.142233184840399
0.131546408084113
0.149119353717268
0.177798401772231
0.189166674904536
0.146407574238019
0.150373496008129
0.14640799145692
0.141009024067672
0.158781688476596
0.147539672588734
0.15916434223716
0.154855718250555
0.200550751865981
0.175860363521611
0.184811490043362
0.177073367442449
0.152912626461003
0.185122970578354
0.174228774410102
0.174321897060621
0.19623144802956
0.187274558448543
0.17150456035827
0.211290623018204
0.202237879767212
0.187298589057848
0.212073491671226
0.177515172394898
0.202357552180494
0.188760956853692
0.206443661844597
0.199250795829591
0.213692697831737
0.208208583580588
0.212843953869747
0.215297192559663
0.223864732771692
0.202916565277513
0.246298105621139
0.232248535386937
0.231425023625987
0.222242986109461
0.227062773566012
0.232540935682545
0.211575318142502
0.244449042303499
0.259324571835454
0.248642083858906
0.272731641490329
0.234251336221082
0.248392117451941
0.243935861756205
0.264845000571194
0.244875985062067
0.271707242079996
0.267890202291349
0.275889160991837
0.24999361640045
0.276923463833618
0.281960411062736
0.289624750742928
0.268527448349297
0.275466756994924
0.280723777389582
0.296094916822998
0.284654673110644
0.291078702653348
0.322804530103021
0.348842095540262
0.319675708925325
0.343785947771132
0.308268361854323
0.330646892669679
0.319594857604701
0.327624809272171
0.32325534056721
0.349336824867657
0.317921214583234
0.345792689261551
0.32598989992485
0.341514559192511
0.342616478064634
0.348313682615037
0.353495560312569
0.37575808394572
0.356433050064127
0.37338580099857
0.368231976594415
0.376512710801787
0.359013687011736
0.401959568226304
0.394564141741448
0.404892250884851
0.408971390277612
0.39449376663583
0.389560200957766
0.407452939971631
0.389173653894933
0.404269773403424
0.401057258890883
0.442520812231305
0.416944632566165
0.425192529338595
0.427236900711886
0.454486564560289
0.43041300912887
0.423018001721358
0.417959090954559
0.452710356059081
0.463198630662279
0.491916935756715
0.479046339525355
0.475351654292104
0.446569585129447
0.475631216497179
0.486990829364555
0.528248200041804
0.49352249358033
0.502278681000522
0.494320633941231
0.502482838952131
0.509103501038776
0.535207772844429
0.524888398993901
0.50092738907657
0.509371569490626
0.520150290032102
0.52098342568805
0.564964197108943
0.51717247846296
0.571597013243265
0.563454460247465
0.562830971561794
0.555642964295058
0.558530324780723
0.555354412537312
0.603075540890885
0.549040985534539
0.592015579390263
0.600795548048878
0.624485771763047
0.594552324638681
0.585800736677711
0.585475467097539
0.622756769124326
0.6046212183342
0.631105275128112
0.608995333092146
0.608275306436163
0.606993540586306
0.620958839878288
0.612236252533534
0.673147014359519
0.660136174130883
0.652326085898535
0.628171869705238
0.675526085643815
0.673007336836668
0.696465776700937
0.704752201952782
0.702277343205758
0.67648947406909
0.683100369719479
0.717656972170092
0.734583430321991
0.696957285122254
0.708881741467685
0.68806753936018
0.703605595615791
0.710968105040734
0.717024990801995
0.719204923210487
0.753637330995625
0.684767551185955
0.722702397253401
0.712438225186232
0.755858836855332
0.753101752558692
0.790689582858838
0.815404929164215
0.782373343573022
0.7453223829056
0.798237803459251
0.786335606923028
0.808756508544688
0.839324295470063
0.829278335318029
0.779357284034179
0.832363849829535
0.828557953814405
0.810219879416093
0.816499720811395
0.857595047541431
0.840182391958449
0.81460175624008
0.818288895486282
0.844643588226916
0.851323953922986
0.867296780628291
0.876325375439522
0.888175417298246
0.842500845184578
0.8469318939716
0.873136335327887
0.889550076796565
0.844362679568875
0.862729579491911
0.852319466708099
0.865328735103968
0.869286821763388
0.909131929048672
0.893855723044352
0.889207815572759
0.887897304804931
0.901600731311663
0.884060344173899
0.925320606375201
0.926490753860558
0.954287572418817
0.937513815187112
0.969206652072853
0.864869470123604
0.894640546400756
0.958515929004678
0.93815075448514
0.896771850740431
0.971665725642519
0.979679721484102
0.972594641264357
0.936225042140925
1.00285934337518
1.03743536154407
1.00199277446152
0.948835898785681
1.00032445537679
0.984966347694744
0.958538250324858
0.937818890270272
1.00692659928328
1.03961043655681
1.03754589078457
1.01597364281105
1.00568997964665
0.944841280928654
0.984851964259536
0.986546333452591
0.975910991062655
0.995984803224062
1.06621100670268
1.05097971648118
1.08436534909811
1.02618258136225
1.00461782053087
1.07439589009626
1.07175418964031
0.995805211730996
1.04073674203798
0.988584224489541
1.09288262605955
1.07193483148429
1.07106276803969
1.15369699020986
1.07769609009472
1.06627362065426
1.1298133399381
1.06657728369917
1.04811018124342
1.03397707508493
1.06845843280498
1.0830207560749
1.07712949361024
1.03842267757099
1.04825714293984
1.08571785500327
1.13542783334993
1.08110219369738
1.09470002138445
1.10969281190254
1.07755446895394
1.0606398932146
1.13048245321454
1.12130079030024
1.1437464701332
1.07112517949867
1.1080037357755
1.16451084409202
1.16375795188881
1.12412924167027
1.11779231091049
1.0982939068673
1.12360835072142
1.10666312898641
1.14154957834737
1.21750631417802
1.1568168468065
1.15233102461305
1.21147857372583
1.13009205008991
1.12902824546635
1.12657737780315
1.12226876930271
1.12039265828695
1.10880579240369
1.14727294718809
1.159847204395
1.13499014161075
1.19123654048053
1.15900316059644
1.19789759755381
1.15891461395098
1.1530489648924
1.18406629759829
1.12257583674818
1.11092467239193
1.13648524479339
1.18989720253693
1.19193995119958
1.19016773611976
1.17665053661949
1.13770010071889
1.20990961249706
1.19663039280989
1.15435955003402
1.22110432478624
1.20173137590773
1.12030403967564
1.14432515876665
1.19532193590554
1.11912944660046
1.17257228710485
1.22700556988313
1.14741843412669
1.21582938879871
1.14601817131962
1.14814860341322
1.137217821502
1.14810251779506
1.21554425821194
1.15525402007264
1.13308524234586
1.26058951742371
1.23168324167416
1.15016559119702
1.16372368643904
1.21856976264248
1.1580259838734
1.12040749777305
1.19783505641066
1.20128360432131
1.14660340724013
1.20685024926946
1.20990030560899
1.13978092732365
1.16028336748639
1.16172856989841
1.16295709152782
1.14184288421623
1.1339187037076
1.14851263410032
1.14206893121254
1.17134211548036
1.1726702274491
1.14408924084963
1.14560312868308
1.12977966395987
1.15483831216805
1.14060298464556
1.18036738169133
1.1775201961068
1.11504901476628
1.14895567035434
1.19294200953689
1.17562232664944
1.18512478610824
1.13642307745053
1.15799475127198
1.15646128571586
1.15286791972779
1.13747703678546
1.10262641126099
1.1694484834846
1.12547397801905
1.13389314231216
1.16235637232636
1.14644293652077
1.12542189218889
1.1371432825017
1.13136184051782
1.09169542823599
1.10566034165484
1.12626074881353
1.12098792893509
1.09427229870845
1.10973109020332
1.11825205852111
1.11826923408059
1.10887132993557
1.11062410366431
1.08376676615741
1.13310374815203
1.10373754521445
1.09336588001732
1.11753674320564
1.12042440200937
1.16605748796133
1.09622340359347
1.10548738050249
1.13319786483357
1.08083861858861
1.08960381716289
1.06665704900511
1.05508766876851
1.09420583435716
1.08729306602782
1.07982171164006
1.10200694743002
1.05692299939676
1.05410415812523
1.04976060880709
1.04666660737426
1.04985774831808
1.03794513882826
1.07917939421912
1.08701472044079
1.05431706449224
1.08051712145265
1.07429061311912
1.08378798582185
1.04317087980175
1.00440295314799
1.05219780436487
1.07114016796228
1.04276890384155
1.03097539691757
1.03411757734765
1.06047690259768
1.01275602212897
1.04077885911296
1.02042033645443
0.987733464785235
0.996289655965348
1.01068778945697
0.997753025423746
1.00840243283493
1.00158982898462
1.01826926720965
1.03602202102108
1.00515015300951
0.977002781045388
0.987747275858066
0.991948264736798
0.993365890163043
0.949772274670376
0.946871744411331
0.959264325703627
0.965228169658956
0.97248690804089
0.967863806084025
0.967059069962032
0.954298839207171
0.953722701607163
0.961025544634702
0.948509867873756
0.996449796843994
0.946035854555831
0.926857401383234
0.943562196992942
0.963602634466096
0.927594203934756
0.932396375096671
0.93214378848514
0.907231181041736
0.888112107405287
0.8949450577348
0.882104557553179
0.900882012680096
0.879464359956189
0.870765557307202
0.902921061574304
0.902237923097943
0.877535734381312
0.900622477964368
0.870553617609287
0.852700558450861
0.88469625571006
0.883067698115173
0.871691464231391
0.877176359672048
0.856835540365018
0.836706807019888
0.832764601204165
0.862573619248196
0.853146944095725
0.86374905936812
0.83881153887273
0.816151901381095
0.819474860260024
0.834094297861247
0.818774920512691
0.833467888163006
0.825105068475421
0.794505838269359
0.780824393870122
0.794265400887665
0.807431677531531
0.79652255352834
0.774357120774928
0.789071033415935
0.77720462587534
0.771121766321505
0.787081381268082
0.777505001696061
0.75845822813199
0.775709939092993
0.743836246875567
0.757268279779743
0.762056648522906
0.787857531671254
0.74824336232514
0.737473938795954
0.736853206759463
0.737739846497788
0.731521945792274
0.696739946694677
0.710004844298941
0.73362531423982
0.695675037382075
0.707619055133456
0.703020164539424
0.70450307737927
0.693347444750022
0.70113305388881
0.694680831868779
0.694741485758512
0.691038798682553
0.694813089551937
0.682267065274603
0.67525082546122
0.670541454680175
0.690299838472289
0.671280561926261
0.659288130076078
0.658446173435323
0.668275862033868
0.652043278764544
0.655687553738019
0.636096887694751
0.638462736295134
0.626955429222274
0.636594437624624
0.630594373682364
0.629631149349155
0.633669841497166
0.634568930607718
0.62490807457647
0.625327087471744
0.620157826363301
0.623240492299796
0.601661131865738
0.595564381026671
0.594087721767052
0.597310500254101
0.590226087340837
0.58905280244927
0.597784651646149
0.587033377260892
0.595407215947195
0.589424229472274
0.586074355604717
0.580396004483674
0.580231617352619
0.584195158996055
0.566871182873454
0.555618708035157
0.568485760681966
0.568554600048162
0.543427021900608
0.557442229002542
0.553629485225431
0.53009064095218
0.543202766300489
0.537874018599287
0.547456400669866
0.544311365172462
0.541444495028591
0.547836596938613
0.522796785020968
0.513219443099896
0.517505112592408
0.528766751995109
0.516324916804453
0.517280604958273
0.502800836466592
0.522231357837985
0.50223297148819
0.509787404681683
0.506808788109098
0.503764063599808
0.500145909024543
0.48607556193652
0.480978547068151
0.486863249409342
0.481604158278885
0.489078654529174
0.481578617379312
0.481748309702187
0.475682035759466
0.475168303950058
0.470510613656235
0.464812981042656
0.458703156715817
0.467121013369513
0.446754380873953
0.456053379033887
0.457415555863121
0.449627734532663
0.455440717250066
0.448851901867215
0.439982319217213
0.449332330487164
0.434075842202559
0.432242016848325
0.436763929218386
0.436635379633669
0.435709981503692
0.433900062223096
0.417838299498061
0.430500315940758
0.426524817505847
0.420404687800735
0.413549568396948
0.418023576439017
0.415765987356709
0.416702754900131
0.408272821513033
0.408298366931836
0.398386300181858
0.403254962439414
0.40158591420918
0.398368877943787
0.388180233173723
0.385369519187328
0.391222497409159
0.39050088020354
0.381964837460573
0.385992982248113
0.382488854900585
0.381867132274484
0.378652076677554
0.375661487389518
0.37372302575894
0.372371008054867
0.371765288216628
0.37092918251125
0.361568580457302
0.363970819316769
0.357799047933403
0.354443418631098
0.358402541713331
0.358684413327279
0.348231766599225
0.359110215865232
0.351724316780165
0.354413370391859
0.359904692089644
0.354570827711314
0.349020692607464
0.352847703262031
0.347940274292187
0.345775384236195
0.344137326283665
0.338704181071221
0.342220711978184
0.340026728590629
0.337290428286887
0.343618358390604
0.332339035437936
0.337499169571754
0.336285764967464
0.343480779434439
0.342007487018913
0.338043714955835
0.343894958691195
0.340773033306769
0.335096943118305
0.335006542192828
0.329683235210065
0.336358359829254
0.333752051494916
0.343733720623585
0.339353324908592
0.340410367785646
0.334730526293141
0.343775791981103
0.340240474689503
0.344078593592946
0.341537936299501
0.347397750208441
0.343570274394252
0.346022644263242
0.342140396169513
0.345508027055983
0.354107583610537
0.362233904987422
0.355470055951382
0.355942547888433
0.360313974248297
0.361264232918235
0.360266378730456
0.364023692913877
0.367678761758637
0.373258264998851
0.364534347622236
0.374181829681666
0.37297146869011
0.37944999643909
0.377459481082714
0.375104432462757
0.380404245596769
0.388704708515702
0.375538678922832
0.389049488234305
0.397091548936625
0.397134029831242
0.393789217486519
0.400362328202793
0.392951468255566
0.405555163680271
0.397219599369086
0.40410273120784
0.407882936981841
0.411826117132216
0.419451564252554
0.424526165520802
0.419469273167405
0.420821913501594
0.431251189061355
0.438065779472836
0.433400780389354
0.438857444270706
0.44304892916296
0.448608462844792
0.433962133047801
0.45519356947784
0.452201081179068
0.456855470236244
0.462403148906359
0.463221871005054
0.461035181727051
0.476221709664829
0.471021818259641
0.482311757634848
0.471098249337997
0.462683995118915
0.475718330905146
0.470495408933479
0.476814421339416
0.476280621159515
0.474662716806613
0.488910416298334
0.470066676286542
0.487513888424394
0.478423926188418
0.482041261080913
0.467258794723647
0.484851018200251
0.480112974190556
0.478279088013441
0.471747013295308
0.472566581441577
0.462121377831189
0.473730445435827
0.467200208207892
0.466450477189969
0.462104982103937
0.473749359898259
0.467817817986929
0.471499438682096
0.45736532193974
0.473798924671773
0.469016283231096
0.467321735631307
0.469575190543397
0.474788111321255
0.458558806867097
0.466677212954559
0.475587127407045
0.467233214584437
0.476697639818564
0.479614440246725
0.471576963420972
0.478247292357673
0.470305292741631
0.475763919005948
0.461245053508159
0.472125800005625
0.479400869165741
0.485942008540312
0.476413599842955
0.470638746444566
0.46228767492782
0.472773668165032
0.462024788779091
0.471922274666464
0.477034869339731
0.469228020059925
0.465049192824804
0.466673643792705
0.468709729168407
0.469276427779208
0.45891810799228
0.465764510727926
0.467618148489478
0.445495632260034
0.454253033254283
0.452073185888154
0.449335217104401
0.447207389055596
0.434934880292774
0.437271037520987
0.441825332983399
0.434815855294571
0.434952839981705
0.423959947502109
0.421253393982561
0.431145112697763
0.424953570978537
0.416148403159795
0.412673174237294
0.409079320008836
0.406300875465891
0.408997764932654
0.4044876488563
0.394225002501854
0.387371548931009
0.389372809673103
0.383328223672477
0.387029779832549
0.376975024049854
0.369331872956053
0.372741597764944
0.371899986691643
0.369047847746955
0.367052123167523
0.364513057366629
0.360618954091358
0.35352382175785
0.34863580748035
0.346945528188009
0.352686589541345
0.34765954062407
0.347565305012814
0.339465069989158
0.340546087228273
0.337137139827549
0.332065582027353
0.326973822228496
0.327907921093152
0.327708774553467
0.32474720649074
0.322984263498715
0.324573121769835
0.317889734047852
0.324067494392335
0.318168627062369
0.315789321573268
0.318032474265803
0.313477343174698
0.311718340664483
0.315056068111676
0.308130129120279
0.307526283374319
0.300610715982312
0.299599215411047
0.306685836804237
0.30357448577738
0.296778868490685
0.297560405601195
0.288851663603771
0.289663298392175
0.29465374096198
0.28798431258401
0.285784168446045
0.288645829861933
0.287321381544905
0.287139337146683
0.27803883372745
0.285152830387271
0.277325899089399
0.278722428179434
0.280758823854138
0.278384560033394
0.277541183462056
0.278714375151962
0.279300764331782
0.271538922781801
0.262306910638362
0.273659048975007
0.270154912274017
0.272905414912022
0.263857119519153
0.25794553220904
0.261850424091898
0.265912287401881
0.261727781750852
0.264747912103044
0.267787895828025
0.260487818681283
0.265465664683172
0.256970923521045
0.261113807505012
0.25285136248068
0.252452834818125
0.255953401631608
0.258916950446995
0.256674090987372
0.252461187279558
0.251588921012683
0.247460699558485
0.246907040573468
0.247515390622919
0.251881983642515
0.242387244775477
0.250838711138764
0.245734943432893
0.245639972327772
0.238487840362633
0.244825023235773
0.244411402660931
0.242743889443987
0.240198838320032
0.244252038338075
0.239533951740581
0.242717024889135
0.242869972407921
0.237842909800615
0.238578408065155
0.2409895997943
0.236956224263251
0.239238378405009
0.23018524412367
0.234191028042131
0.231266646352018
0.230159315195861
0.228021879946372
0.231194695341853
0.234307287734124
0.23106702586695
0.23833106866843
0.232241054431491
0.227036759822672
0.230041763035897
0.229224736433336
0.229476723710655
0.227912026496226
0.224511295489942
0.225758659347548
0.225104405087272
0.221711507854954
0.227159008400799
0.22556912156129
0.224162250245564
0.221138365483321
0.22624480093769
0.225969702875721
0.228499712553199
0.224319486815351
0.223876515505253
0.223545212606064
0.226428450293364
0.219679336489289
0.225881355304905
0.217288605070353
0.222111740308222
0.22353948604147
0.22141058512754
0.217217917542509
0.216162314793126
0.2162437847497
0.218571499542437
0.212620707913603
0.217425939873581
0.217710596754656
0.218328704517218
0.21717194978869
0.21382524160059
0.214101910992368
0.213234970419988
0.212809046514384
0.217033324270183
0.216086455855089
0.215444753895103
0.210921951339879
0.212204616853957
0.208102236901419
0.20652694239277
0.20499348050747
0.212676891827108
0.210082794447418
0.207118714235415
0.204708744592668
0.212286009419606
0.209607709673261
0.207243240178851
0.206645013025083
0.205039770316969
0.204503354598916
0.205303554018276
0.199227746507987
0.204809584109497
0.203415891622075
0.204783516474287
0.199555221555858
0.193797850160322
0.197932045626517
0.198009624875392
0.193552145784991
0.19604946029335
0.194754534975194
0.198825907157695
0.195356411299146
0.19310318361306
0.193834936960479
0.196813734963194
0.193324943422001
0.19195500773557
0.193384749707323
0.185199221467361
0.190780638604157
0.190062657388468
0.188564660994578
0.187498261696883
0.190647633863044
0.18453670931676
0.185583884080236
0.186602255495501
0.18550875573367
0.183347857794582
0.181405309971836
0.184120797078884
0.182877699299975
0.180245525875882
0.179720395388376
0.179196173660746
0.180089118818669
0.17581181355763
0.175455394333259
0.176752733581457
0.174935769338142
0.175428762445574
0.174087461025975
0.179054209515019
0.173229229752452
0.167846547745719
0.172215541919243
0.170414239999676
0.172868832256859
0.16874858677963
0.163688896676713
0.166289284911792
0.164630983460759
0.165694692740122
0.168891793950045
0.165045701661002
0.163606674487293
0.165939013810713
0.160620992970964
0.157369133199476
0.155485018366753
0.16089428952046
0.156134858070198
0.161024499805243
0.156629182126204
0.157926513663354
0.153756108221129
0.155947917060656
0.15671344162756
0.153336933898977
0.154343180263004
0.155673901589285
0.15757941635342
0.155603459190273
0.155435766913569
0.152779211318497
0.152628594492003
0.152321831471062
0.149331085096638
0.151778066455096
0.149831210544731
0.148619154674076
0.151157087871334
0.147336076270112
0.146878414592898
0.147755787794209
0.144169259215908
0.143050592777947
0.143041110283442
0.14554811219425
0.143763482191924
0.142510253609685
0.142644168616876
0.139911455872957
0.143926466042705
0.141871172377383
0.136984706688073
0.139012061442755
0.13993359383616
0.141177872359859
0.136083731301286
0.138393372850535
0.138435686779764
0.141564456113273
0.133589681168736
0.136352751099785
0.13779242226468
0.138283446194863
0.133081389264796
0.136666146158795
0.135319534633266
0.131716762724083
0.133188464574466
0.131236216200323
0.128713001665989
0.133643351318093
0.130944463299641
0.132626299755126
0.128780248844683
0.128693378971885
0.130667293767455
0.128733387096081
0.131340239980064
0.128656265936671
0.128080341265476
0.131616743445348
0.128735533515688
0.127600032159116
0.132677056296529
0.125105267723065
0.124208530950488
0.125867132331316
0.126591283164526
0.125146943896417
0.126740048244437
0.12759311516403
0.126171452581524
0.124088065712676
0.122624723276744
0.125392065522468
0.12071253522695
0.123324426331806
0.124576712960292
0.123106025454874
0.124854999930035
0.125891475193327
0.122679477225987
0.123127619166065
0.123297714182498
0.122479364275015
0.125691644085865
0.11759841246062
0.121111872435633
0.12343323709921
0.12146286651018
0.122246157999564
0.120995389270392
0.116939604185892
0.118957110349618
0.118887477789248
0.120880108965605
0.118058961200604
0.119670919521411
0.119089048960876
0.119170378853135
0.115818627767885
0.120830154029047
0.118369221669897
0.118901321813143
0.118271877128213
0.117161408190499
0.117161873650403
0.115764847841251
0.11603078410699
0.117355766452546
0.111319061406472
0.113500643812849
0.115226565462791
0.110582058468
0.111131157734995
0.111298834365133
0.114934221403154
0.113910698283965
0.110426825100756
0.111221739217868
0.112409853655455
0.110831791535189
0.109690291125616
0.110734494617536
0.107245124171259
0.109032531103155
0.110062744537994
0.107991744076774
0.108193117783741
0.113995600207316
0.10750017874079
0.109340841002819
0.109659267379027
0.109565916193394
0.108710169258376
0.106236020236978
0.106783665116035
0.109684504008409
0.110003237650704
0.112419205411487
0.108268812623718
0.110096811741225
0.105004953346735
0.105022003517974
0.105645256270387
0.108304841837814
0.103574423076105
0.106089821237207
0.10539580518606
0.106692379744176
0.103460095762491
0.103707884120455
0.1067251609053
0.10415982479077
0.0996613958838886
0.106599979845238
0.102265124330711
0.10307007322959
0.101468006159285
0.101188746525119
0.101305768071331
0.104291936716889
0.101765663139978
0.102263854844431
0.10068338818558
0.10011955090142
0.0973490281306793
0.101142597702983
0.0978386560447063
0.0986591623497322
0.097550200994848
0.0981226958443931
0.100042712129918
0.101594282118334
0.0972582433120138
0.0985360189690894
0.0917160160670236
0.096713647836899
0.0924663608876252
0.0930826471479969
0.091893706486839
0.0941765876262676
0.0941467490232458
0.0944374761863123
0.0882797688456786
0.0956268070860585
0.0958250266712865
0.0903690144725009
0.0899856926669372
0.0906340843264338
0.0893911955142596
0.0926554491578677
0.092529778053747
0.0913255685266541
0.0907615351192733
0.0893580419176273
0.084734205734606
0.0901071424844499
0.08951539528533
0.0881397807076587
0.0855847960618349
0.0846282332421278
0.0885770042151478
0.0879813470720851
0.0877013384571954
0.0917806742996212
0.0838542798805704
0.0838457579225604
0.0855908499878948
0.0860975586241059
0.0845598383306235
0.0868477379226163
0.08104556870886
0.0842167152666366
0.0814716026657408
0.0851013346263566
0.0818095259834542
0.0836300129924204
0.0794108523195293
0.085454246166039
0.0789993644704268
0.0823970330738081
0.0785368460583158
0.0850305951716173
0.0808337074445448
0.0805289929506409
0.0803898627882655
0.0794853882044027
0.0765423288482446
0.0823787177883876
0.0781286629618371
0.0773602276430348
0.0778281907441509
0.0786106780304268
0.0741132726786615
0.0789888807144005
0.0746340259523453
0.0784750318252553
0.0724184271598012
0.0783308738735363
0.0740333047364637
0.0763735755029075
0.0756730312476962
0.0777651071259099
0.0739521090689508
0.0750757450436577
0.0706074542262591
0.0749741698992024
0.0701086619706945
0.0735297041734705
0.0737385467953152
0.0729846229876655
0.0708000580350932
0.0749043924636689
0.0665399560949398
0.0722030045018408
0.0700285819772339
0.0749532188535477
0.0694601891769615
0.073272585369397
0.070130382063395
0.0742392647770204
0.0718516495656461
0.0759994046511248
0.0713720339591058
0.0752896143157099
0.0715669035409302
0.0766210716234135
0.070358632509092
0.0749298892022448
0.0707211873133015
0.0781903934839116
0.0715729569965672
0.0738637272082222
0.0716328033057768
0.0768728406529375
0.0699206248265324
0.0752798990785236
0.0671380728468239
0.0763489725103212
0.0678828061524239
0.0754889842937225
0.0677943046530453
0.0774033355098968
0.0622277845808369
0.0763244006142003
0.0639048009812574
0.0767650078969622
0.0591132222388498
0.0728146105224023
0.0601305226908907
0.0691983206325785
0.0574251880610479
0.0745788293001925
0.0595878158281057
0.0717901142866806
0.0597280282428947
0.0703428528120714
0.065569575987158
0.0835086021534118
0.0603778317627718
0.0769873752541492
0.0661111650181814
0.0781067817979827
0.0539841897296119
0.0793032307155217
0.0530585518522389
0.078626013413891
0.0506973689004107
0.0793238033716412
0.0481111457519965
0.0749222417621694
0.0459534208659722
0.0853937500872713
0.0483444247374771
0.0769059663882806
0.0477178231526686
0.0818112403269705
0.048057185423845
0.0806245709775455
0.0419855157255089
0.0844218314102177
0.0507828540307343
0.0878059432756866
0.0494841145195339
0.080515981987084
0.0499890936245878
0.0788085627748763
0.0560113253372321
0.0757503499422691
0.0657605054180941
0.0594845923307567
0.0742159047959452
0.0543189942844776
0.0860605898158084
0.0407988907452793
0.0949896236528198
0.0380335316011789
0.100623117017689
0.0315485956805537
0.10150557087321
0.0341999289594933
0.0983258557348699
0.0418968675139634
0.0859408004640908
0.0534110193166709
0.0775232573692156
0.0624215717599831
0.0642379112331897
0.067573522606007
0.0620639843510909
0.064379911330951
0.0630226035948953
0.0622528905173887
0.0678709419376367
0.0555862494020091
0.0682151490912699
0.0543112006949557
0.0681478962976864
0.0567972310767305
0.0664986294389769
0.0595775919190406
0.0639797597029291
0.0570741983727291
0.0610806637553931
0.0576366038725433
0.062634459177838
0.055756445262201
0.0623071554719824
0.0572968631900561
0.0627932861200425
0.0568577139822231
0.062570153274306
0.0572228109758214
0.0618433811924944
0.0582696055640056
0.0626671961090416
0.0568912578581026
0.061147286077537
0.0561719463500822
0.0594001110565339
0.0585471911341007
0.0597986726060923
0.0590815432108233
0.0628342685597128
0.0588029814128147
0.0608017741331705
0.0572736406063848
0.0589902959051946
0.0585141182198304
0.0631433028854884
0.0579363082173122
0.0616592162891074
0.0581760382472336
0.0606992142846096
0.0580879101280329
0.0601221029935089
0.0584234806687389
0.0634130460678822
0.0553177153772864
0.0620779534226024
0.0571310961142398
0.0584326428346263
0.0581336617535223
0.0599176824906516
0.0586417999471185
0.0590126976049886
0.0579824652831005
0.0604637854061035
0.055968314446811
0.0594301078807856
0.0582381107612288
0.0616369120873494
0.0564056368456404
0.0598955613807175
0.0585323356497053
0.0618970339712449
0.057907596957328
0.0596670862380668
0.0590240251350309
0.0596742769728602
0.0562222781416834
0.0583357407487105
0.0593490195299945
0.0603077515711928
0.0587427854573382
0.061034358066548
0.0566642608297537
0.0596016547527488
0.0585083208452464
0.0571743815943569
0.058196577698255
0.0606562299473239
0.0605917304378461
0.0631858927342898
0.0588681027153299
0.0570524466701737
0.058592052921652
0.0585381010348396
0.0578601157579653
0.0580048792608246
0.0574481762027032
0.0618730849840665
0.0604634817234752
0.0616775056941219
0.0619423862652293
0.0602514882645057
0.0591145554287077
0.0617673865025501
0.0602513356682848
0.0573611191869358
0.0585826331133997
0.0623729009327093
0.0584174161155419
0.059035988645989
0.0602428776685043
0.0602541267464224
0.0594053353797021
0.0625808353484267
0.0588301469644023
0.0613641873408595
0.0601326064080372
0.0610015259603677
0.0583882412228444
0.0582898015096619
0.0615367345362017
0.0612039168707448
0.0601081446591595
0.0604878462334302
0.0577842962820738
0.0586401188947172
0.0604199258845015
0.0607315371491228
0.060546743105305
0.0642193082179863
0.0620378298947506
0.0604919123933575
0.0609129892997671
0.0620558134029651
0.0625946606393886
0.0601782470058238
0.0624767161560298
0.061030817643403
0.0601711936095686
0.059925687807358
0.0605401065329109
0.0604237023535966
0.059573372699072
0.0614758933480234
0.0604202244975275
0.0623400869648937
0.0613990966335848
0.0617915675831378
0.059571809682899
0.061583488466179
0.0627740446715316
0.0626396824779848
0.061597673235735
0.0620425530295344
0.0624679293800402
0.0597146463734725
0.0627430618823347
0.0614246106797822
0.0612704294600933
0.0652068931950552
0.0623635659292267
0.0618755875736097
0.0627447838154333
0.0643943737604427
0.0613928092976263
0.060709193006087
0.064238900370816
0.0618682638739679
0.0615680535635889
0.0634424648248319
0.0638133898685458
0.0627132533768561
0.0604773246597357
0.0656544018653826
0.0647430073138311
0.0612413020195972
0.06264826770386
0.0624784829842947
0.0629681814613063
0.0614392024057771
0.0587287589868214
0.0601715593566283
0.0584413017912319
0.0595545667968451
0.0589447702166885
0.061996899927245
0.0616637272325369
0.0605380907612857
0.0602354841052683
0.0612044876672501
0.0617993053129051
0.0606794381438818
0.0614280958391807
0.0605159961629696
0.0609123113427425
0.059515583782423
0.0591834580329816
0.0577760191158367
0.0590641894075801
0.0574275395005112
0.056912389754871
0.0618849514825598
0.0603312471605202
0.0580049269724916
0.0591116321554658
0.0600708378695314
0.0584310555494668
0.0598385830356975
0.06002684318597
0.0591710718315361
0.0582064769305968
0.0568973484343
0.0584877666404661
0.059049769269463
0.0597711562508657
0.0568560266937207
0.0580981951133481
0.0599017123295058
0.0598446798045457
0.0567950288469985
0.0559021530689792
0.0594445415994961
0.0585196256267508
0.0587006107797833
0.0596781761586836
0.0568283150215355
0.0597595024621017
0.0581984459727609
0.0576849185602681
0.0581114743538198
0.0595628391794002
0.0578352017932138
0.0559118109271761
0.0548161076549346
0.0574163187269754
0.0576833648129177
0.0588004880525556
0.0579174179564445
0.0574123547717154
0.0570934882886135
0.0575780925838639
0.0567050934131921
0.0568430331958084
0.0541593891102879
0.0559325246883301
0.0579878988893705
0.0564305801963058
0.0567480662122349
0.0564669306701225
0.0568938078360454
0.0585854607013515
0.0550242644629137
0.0584439659013737
0.058354432260422
0.057258498037016
0.0555285808874846
0.0569651056795788
0.0556709919587164
0.0544646497506382
0.0545883176397244
0.0556437993076046
0.0569945885073079
0.0552597982738372
0.0543665358347328
0.0593897586457806
0.0562622189297292
0.0579304330303093
0.0575479519713864
0.0564322099790834
0.0565934159600548
0.0578389690640104
0.0554996848075466
0.054896992795166
0.0546373937082024
0.053779488091207
0.0538912449444686
0.0560650860532501
0.0541186906005207
0.0546111353662025
0.0531253658977538
0.0563324633707986
0.056628529766529
0.055131781316622
0.0553628055135258
0.0564935421612675
0.0540008148104284
0.0542099307495644
0.0519648480925113
0.0537562941212946
0.0588095868631621
0.0564842935300536
0.0528040504269558
0.0543806909206998
0.0548058809048435
0.0534322389006147
0.0519820242653457
0.054835682854186
0.0529608232167668
0.0515513569527663
0.0518505061888111
0.052573347181112
0.051580516572389
0.0541484679176248
0.0543138105470532
0.0535851320117471
0.0508204844443955
0.0506619701768012
0.0505550185999812
0.0523781771170206
0.0516340127920264
0.0501102866229133
0.0492954888330786
0.0533675583458612
0.0519712700194359
0.0528339038931521
0.0551374111271631
0.0563624292377998
0.0505058842454688
0.0527904046079586
0.0470614294018835
0.0492697603886995
0.0490968823118187
0.0510077389149286
0.0475348182015701
0.0520840477952622
0.0483539779116156
0.0487488102566572
0.0466917742977833
0.0482645129930521
0.0469708812589648
0.0483946005385788
0.0468096343431808
0.0497347036771434
0.0460828279326442
0.0489176087463383
0.045226380942487
0.047245626935977
0.0461531438252394
0.0490364599049601
0.0477488448189098
0.0481117476234337
0.0491859000359619
0.0590482235980397
0.0485099803660775
0.0478896145228719
0.0494224759094579
0.0498490123243314
0.0481256731835482
0.0495564946879962
0.0467739794945365
0.0475191482323806
0.0449163586714471
0.0484702756029268
0.0469449082664416
0.047406898318822
0.047304801194227
0.0464402768644896
0.0455512672337865
0.0478464849770936
0.0453789360760466
0.0439390184332849
0.0448759225789513
0.0451889114365486
0.0429057584425635
0.0464391608921779
0.0467653206747049
0.0463028247175351
0.0453211526849048
0.0529868248187166
0.0491732626204346
0.04598848852399
0.0459915496565597
0.0458966249429816
0.0440612584968261
0.0438076899201166
0.0458225383659403
0.0444785974967826
0.0451874943818745
0.0459853378722989
0.0427794294116539
0.0446569722276061
0.0429365292439339
0.0458963819484791
0.0447052091007111
0.043423169164973
0.0440369523215819
0.0457213477213275
0.0440023125983588
0.0450441129683924
0.0438979380740342
0.0441326856016945
0.0450636795522443
0.0436863367397579
0.0442004863144845
0.0458965286360237
0.0583254291450717
0.0494636119498982
0.044777533008447
0.0454902556973532
0.0409627668571386
0.0468674979627401
0.0418156112831849
0.0417021944429853
0.0412798575646508
0.0450125041313083
0.0428383012150325
0.0437842060302047
0.042855530762347
0.0431238312882558
0.0402399675003505
0.0425060210088349
0.0431459770670813
0.0445615723423945
0.0435968793643315
0.0427837909823935
0.0444376420101369
0.055435350838403
0.0475021051393127
0.0441727365870108
0.0434130377871165
0.0441889522143989
0.052311395977806
0.0559712080673804
0.0382100568199623
0.0477355702980539
0.0399144711408731
0.0451698657184523
0.0388495303059529
0.0444637299043961
0.0434789653860752
0.0498302474891102
0.0433005006369891
0.0460088413501512
0.0424656110019587
0.0429014973392479
0.0399056055915202
0.0459750767485856
0.0424025798333974
0.0434281622644688
0.0429262250019444
0.0424005913191871
0.0409560658383719
0.0418202550907418
0.0394160603679659
0.0449275200423517
0.0417599331557685
0.0508359505484184
0.0436926580543381
0.0450158903717562
0.0422268240389184
0.0428955218960381
0.0439978827938672
0.0580665355360527
0.0432170814491575
0.0403375883993751
0.041729609147407
0.0437407379740015
0.0428902518217064
0.0434944238830439
0.0438638758797651
0.0435404809833878
0.0404126716505132
0.0434786437382432
0.0410750700148932
0.0416652817506046
0.0420659235040639
0.0449346176682159
0.0422274762870698
0.0405461382325552
0.0424150759245037
0.0449704827163874
0.0429137672765274
0.0426161636775543
0.046883711882119
0.0673693045681256
0.0527927537344168
0.0565352138087116
0.047580295735097
0.0436405476833757
0.0399049661912972
0.0449127938487775
0.0384290374424034
0.0445351577799835
0.0415702540444308
0.0440244697142613
0.041953568774843
0.0440273948388605
0.0411293384018049
0.0434544498816246
0.0399750744554322
0.0430898459379457
0.0417507444940894
0.0415738365084982
0.042464785675734
0.0423608317841849
0.0413059269474139
0.0517685097513671
0.0491888575372115
0.0437876908546233
0.0420556281474012
0.0593537495950637
0.0717145191968743
0.0452296346545773
0.0486641630720296
0.0434194246472392
0.0414288528513718
0.0417117879122382
0.0434563228088575
0.0498440513743646
0.0457947935066611
0.045219410515489
0.0436088826993618
0.0427630864741633
0.0438319306240173
0.0441499840985876
0.0535203343709959
0.070704090709042
0.0542517524478679
0.046965747228835
0.044418242074619
0.0514911656664687
0.0664791178584218
0.0512125149477094
0.0439427973112943
0.0499442201744836
0.0416399161048314
0.0464812879908406
0.0434433255905958
0.0432624738175288
0.0453684114379407
0.0482993869054494
0.0415247076606382
0.0443076117086156
0.0411097934524224
0.0480603623252707
0.0492297352913389
0.0577630596674597
0.0556981151163276
0.0462361042745304
0.0472601996009513
0.0522151969628309
0.0421530548670926
0.0477808033831898
0.0453983805836355
0.0491385366452648
0.0540866854989888
0.0637961827315157
0.0495491958158463
0.0606787170271034
0.0580672387071135
0.045971082041122
0.0496498927161099
0.0589053499620742
0.0513053157841611
0.0470403471487621
0.0513729790993976
0.0748489625724359
0.0681498957356994
0.0682257770046436
0.0496248704316841
0.0475020293367741
0.0503781666453443
0.0481002173199977
0.051713982838047
0.0633247005521464
0.055472290139968
0.0463667458757046
0.0483104115201451
0.0590683918601454
0.0651510008137717
0.0533073713179639
0.0547040457127571
0.0503237472711919
0.0560205198884267
0.0635827232586416
0.0554651961929469
0.0493182871295645
0.0697409205054987
0.0848503733278137
0.0694029025108853
0.0590127741726142
0.0475468925647841
0.0827658923571936
0.0680612020878323
0.0542405306705895
0.0526432725930543
0.0565285864832736
0.0526527286214139
0.0578712858559219
0.0792591124892224
0.0661128084624134
0.0535503148895814
0.0617868914583175
0.056112388530291
0.0760593895724914
0.0694071181315027
0.0561615368719716
0.0591852030130486
0.0612203530949044
0.0589464568216688
0.0910565005392198
0.0822956250960816
0.0718419847769877
0.0894446387866745
0.0776106975557514
0.0744886863006293
0.075129014767315
0.0677564305200892
0.0799454815244609
0.0840981336675003
0.0700636939394821
0.0605632906305066
0.0842730160214743
0.0890390725986521
0.0769102485335381
0.0709563018670854
0.0722484046810616
0.0672344729134385
0.106476579526406
0.123891112946056
0.104129903360152
0.0801320714355641
0.0815379344551367
0.0952069390409083
0.0841174609326494
0.0748621545722592
0.0778360981512224
0.0794267959556114
0.0801469991373566
0.0794850267724135
0.0914346634257093
0.0855614407415113
0.0879102355412919
0.0812256049166479
0.0875787807755491
0.10495828848459
0.136212567604671
0.123261290980601
0.104322370718455
0.118709553747244
0.120890088678704
0.100127550085697
0.0970881237255367
0.0922338121251875
0.106313395067366
0.103261400186331
0.0981321549543139
0.099358872374219
0.120359566063556
0.119131642056064
0.117469049929228
0.124685811442859
0.118652117473249
0.114504628916756
0.12686007352415
0.218020842444145
0.156878175432976
0.134580926939235
0.145271875316128
0.131730032743107
0.200247992745561
0.157825761219704
0.147207086164177
0.144962306392322
0.152036886517073
0.157588821291866
0.169473971914897
0.172934432094842
0.188491312967223
0.180177847108195
0.179446213655993
0.196163983080335
0.286389299875802
0.256822072059373
0.230030864621602
0.206116388131784
0.233354955446993
0.231530111629254
0.229258019865542
0.231124810582632
0.235815081641408
0.246528474836504
0.302885875761102
0.266069983630169
0.267313951523308
0.276412186034575
0.296312344484647
0.27519271238915
0.329353264365384
0.325426638349418
0.304850192409792
0.303736037023451
0.316913618913262
0.317012014976963
0.320970273706225
0.34619820667748
0.358255954810206
0.335985773543829
0.343938081510458
0.342944617103283
0.351958441213123
0.351275902120245
0.365868035977239
0.358067436849581
0.403561094574097
0.40255696177181
0.499085814717105
0.403406413692181
0.376208202241567
0.370199340621168
0.385008278324232
0.402133586103366
0.406962006324552
0.4093994440412
0.408251298936711
0.376612497390112
0.383037539642379
0.378888033561594
0.388887577094402
0.380668173433499
0.386068009387297
0.370909904707368
0.403485585702975
0.370696505148632
0.423353872786888
0.4207703674025
0.394799854804206
0.377539151215595
0.379383085071841
0.366947529120999
0.375313470449649
0.37030549367013
0.387258304346129
0.395238622887489
0.378764798916187
0.364038199103997
0.363775895709558
0.379568935517328
0.386000726400568
0.352105571846305
0.355762736831169
0.338026570729323
0.355015478640488
0.331942151718269
0.366288668229964
0.373447163591314
0.359844453519161
0.331816527840795
0.332525276691544
0.325845778789114
0.325563143893564
0.322890855051537
0.337128286922761
0.327677990510694
0.332602187670293
0.32038514781715
0.318529656414521
0.322120219602609
0.323958127592385
0.322558949097362
0.326838372295962
0.31763571586259
0.317268262828882
0.313030049099207
0.318978195038087
0.30565000916567
0.320351683376394
0.311230097401887
0.31934633772096
0.314350223411221
0.309445286779775
0.311276602442545
0.30996220062525
0.308020738314361
0.314261806577121
0.307393618678239
0.310405556452444
0.305356932693326
0.310412519277452
0.305671670444099
0.307569050437964
0.306665961519907
0.312020074120298
0.301102491010504
0.301921284661335
0.294419338804473
0.308972930049782
0.290402585784288
0.354523258121896
0.316401260115677
0.296865579942814
0.295270770679751
0.296592130326144
0.285406618013052
0.283415352255228
0.324479274697888
0.316272132311954
0.291513011944158
0.281693575744662
0.274514343130173
0.301884960094125
0.281712395739674
0.273373471017991
0.275143725748049
0.263182069034227
0.306808489244302
0.327015258902826
0.329391924222908
0.341120315939207
0.280409324375851
0.26538654743768
0.27860805618963
0.288754503911356
0.262057455566601
0.261994093468566
0.245397047925785
0.301925753143094
0.2656408112235
0.257231065835617
0.253466575515262
0.254266345596965
0.289889250108049
0.288356576158314
0.265965636575247
0.275569307007504
0.279648925861389
0.272596486780272
0.301419611772939
0.317972207339207
0.268749393519139
0.237571956175916
0.237490329171032
0.23495740690813
0.23286818071723
0.287592597460098
0.234620262851882
0.244469676980926
0.218225602670824
0.222199249709988
0.220988810005984
0.241697714230469
0.226145227309387
0.236655472301878
0.253910200789134
0.208611554817512
0.235483208771192
0.233189236845361
0.255532417109558
0.261330874293318
0.217881904400556
0.201943320913963
0.243877215668217
0.246143799427444
0.216693548982691
0.219511002275383
0.191676499736189
0.202630110967182
0.20851950657772
0.196302957917841
0.210683399233596
0.214718344090962
0.220879473530043
0.256827774055497
0.244936515926331
0.243361627361386
0.200279630641969
0.180819349517435
0.182779396246803
0.182545992993899
0.189632436171345
0.175331738651787
0.221235875053051
0.197533332022685
0.185138980736197
0.237256857418162
0.199001163101096
0.188808992600361
0.189660262327726
0.18728302632978
0.187472169519377
0.227791113486193
0.238792973711843
0.219219421673129
0.217814377666416
0.231928813605562
0.206430696194974
0.21281684083419
0.209791884737687
0.218802719181506
0.223998261095216
0.237296677624522
0.228015428332932
0.236917169444378
0.23840375008918
0.236093403633396
0.266416008481462
0.287191750781537
0.252112095396114
0.308700741792288
0.280205114683319
0.340142892672944
0.288861949638424
0.297479258097129
0.289897306724309
0.292263823741828
0.301749829332678
0.305556839290174
0.315071211802662
0.350812969222225
0.311836778125585
0.327012190209145
0.315994200692436
0.335188592454268
0.327007479515414
0.374971310454371
0.349888761919944
0.425831777999487
0.387168106829032
0.375761937914552
0.35932918996097
0.34784039352801
0.362726224036047
0.358517128769823
0.353202448437091
0.361497374683928
0.363852318322087
0.394628637619908
0.365756047987632
0.374752457122773
0.365978797681777
0.374804264822991
0.369142249337323
0.376883642281301
0.376243474112601
0.382835717711667
0.382989603564774
0.395142654154217
0.373226539834338
0.474071387051454
0.401233789881055
0.410953991779553
0.398521087983647
0.413298675328704
0.406112862569022
0.412428891213865
0.43570013160409
0.431541850416357
0.421021728580783
0.424562021210259
0.417800250458412
0.433978199205829
0.436464773353842
0.468797652432443
0.427704294558888
0.46213248213537
0.422373987325876
0.489594686429611
0.483688494019589
0.473382889925719
0.476531743486984
0.464113645370173
0.455130323812254
0.458933895665088
0.459022846153291
0.46228861837711
0.463918273402527
0.468131248549144
0.46480172668067
0.463491914977118
0.467212735256712
0.457984221018584
0.459457890725862
0.483503942987258
0.460519832052965
0.460725449981288
0.461154030021837
0.46262360430027
0.449030286382701
0.487906676676567
0.478105287433741
0.470415304404113
0.464387288060096
0.477475950087951
0.482906367625531
0.476904502165797
0.451396346918227
0.459737740900792
0.448992133074452
0.472634219165262
0.450609287335776
0.476993759396772
0.49361201412807
0.469321886856538
0.464685647488561
0.465158575237626
0.46660393985071
0.472032380916396
0.472986914634955
0.476219190648931
0.483832839487332
0.481305178189455
0.482018263697205
0.474460240482594
0.478608677536047
0.493273846311256
0.50134984143502
0.497520715245685
0.475560471398649
0.479447584591486
0.475311211142486
0.476203890058976
0.475740277476158
0.46724749821109
0.459893923189211
0.463594057320705
0.449596716357163
0.456111770285781
0.481281468684292
0.445215587868141
0.457013493388807
0.44249147090355
0.429997415755015
0.431379938774044
0.426427467428935
0.424022703191148
0.418337141967544
0.425552922764504
0.40918890720297
0.419175485597677
0.41062091174026
0.413562159870115
0.410275499829832
0.409090180646552
0.409277993372925
0.402525617882835
0.404650446055874
0.403506015300947
0.403285747549468
0.401414111411045
0.406368579124131
0.401769737576446
0.41701280554622
0.417993466643058
0.418629961939511
0.410444396345665
0.399396583208703
0.406366071740499
0.396638406698225
0.406107324434183
0.393810515190371
0.40379446098594
0.395218513424747
0.406311117518813
0.397683682560134
0.40175697638075
0.390045844096278
0.399046698905749
0.393916933309367
0.39988764098919
0.392339009664368
0.40453691173785
0.39056443506231
0.395514622046488
0.394262275580448
0.41020959621141
0.395011289592054
0.401180518809726
0.395817419207107
0.398913236086487
0.392343657351532
0.399928784159636
0.401737983477587
0.397817904018498
0.397525555927025
0.399210023489065
0.390932213969899
0.398276605078892
0.387781488939897
0.394333466170192
0.386692943455456
0.39136267807885
0.38680788898351
0.383022399709572
0.384600774795506
0.387102896771699
0.373560486505682
0.374840066558713
0.369729556162285
0.367959503460601
0.362651591283367
0.362225256975671
0.359455224977038
0.357697888022566
0.349004111150136
0.354408323254041
0.347135392670687
0.349072585004647
0.341858204907775
0.346332810933813
0.339035424894551
0.341889180946568
0.336434361558234
0.340026139383483
0.337808327799964
0.338893145305813
0.335317962271607
0.339474714575672
0.332907563737978
0.339657344117118
0.337060577751405
0.341155107884501
0.338736134353585
0.34273889524121
0.343079367172205
0.343874680503817
0.345573399145173
0.348598014222517
0.349821640462579
0.350426452279394
0.35175998665729
0.35127214316554
0.35334100400434
0.358003602063853
0.355362085777344
0.355818694284558
0.357605945572705
0.361528399139137
0.363533044800919
0.361124535316163
0.362773313335525
0.36518902188675
0.362288614121329
0.364724726211551
0.356170515890572
0.36116985525879
0.357808232310839
0.358384520250155
0.359269199581124
0.357970785704125
0.353170545205213
0.356903566924281
0.352088136090558
0.355869359620182
0.348179885127342
0.350291183933979
0.349939522351498
0.352376842121811
0.344518365046116
0.345121593175458
0.339182598703435
0.341265460791371
0.340579903135385
0.338743510803561
0.340027849439094
0.342037840034923
0.337192541659047
0.338138197957276
0.33450974517152
0.334811362202725
0.331086284983233
0.333475129389089
0.332503871645177
0.333370330701101
0.330278776611516
0.331653777799694
0.326638224016197
0.327237693028917
0.324739898795364
0.325206064979104
0.321914273227784
0.320750990221181
0.316554203425999
0.319933874796053
0.312934887465865
0.313385918340949
0.312801364776885
0.309498650505128
0.308856219551356
0.302765420262861
0.302011231223488
0.298656415585477
0.294197313306148
0.297543814238328
0.29189736527955
0.293390879667715
0.289837560880878
0.293066331072792
0.290411321845726
0.286825872687838
0.288770640433076
0.288534674426039
0.285586941781535
0.290946549831847
0.286828176133212
0.285274793542474
0.283574820933463
0.281286612164654
0.277618280872751
0.276030588527918
0.27457080436281
0.269029205397234
0.266281692168552
0.264011224577761
0.258523059263675
0.260195233444681
0.254826576360681
0.25507141208591
0.257186303279991
0.25609043814271
0.258843767889877
0.260422018054888
0.268056495716759
0.274194755938128
0.279410323752038
0.292738755642079
0.298516044502329
0.309432354066229
0.320720661435612
0.336383929919275
0.347139411992708
0.363716928648023
0.378950192217142
0.391071207626516
0.4016658733213
0.419114284434506
0.430516574282156
0.447015978280221
0.456219531778959
0.469823757975918
0.483326359532521
0.4943648829082
0.508964608857458
0.517508692618013
0.529497946468402
0.544651435689677
0.552833599946587
0.566140268268791
0.571593824663813
0.575739857230568
0.582569758532419
0.590284838469287
0.593928598737279
0.606832828304315
0.609888148688626
0.613457239739627
0.617419340735846
0.614956620112103
0.615699549079985
0.621810947174437
0.62410512501684
0.625716797664976
0.622495191005767
0.625219347048655
0.625658518319744
0.627299928829664
0.630006197208383
0.630791432726196
0.630524715581169
0.632609810821498
0.634099869086731
0.644199192619036
0.649511632072849
0.649239571407169
0.652856077889682
0.665980069244546
0.663858463766615
0.671889146182779
0.682171472813824
0.682798134684336
0.690501667535629
0.697710310509437
0.708390237641838
0.727302968918316
0.729789553798246
0.739755584912459
0.749271958225271
0.759053527124743
0.77227777102909
0.780077447663888
0.79238677569634
0.797513607785864
0.791061150313309
0.805627283410595
0.802346803026554
0.806550940353
0.80494818399251
0.807678672950435
0.798094902946737
0.802463066281535
0.79258392590916
0.793384979676568
0.790072967043788
0.791268738791619
0.788729177464514
0.792151530044593
0.797910386313796
0.806349679357253
0.822361970894598
0.829509191602896
0.840809625147272
0.857411036111782
0.864217019244047
0.899051770140239
0.912251995370381
0.925593908951486
0.938174977919657
0.945409983738664
0.959311041753765
0.980650505323289
1.00687886398065
0.994767393314767
1.00756581490005
1.04033557773778
1.03892597437943
1.06201622073033
1.08108653907974
1.09402420647954
1.11689219741457
1.11209421046545
1.18321545961473
1.18543722764389
1.20897338541971
1.22395141500415
1.21981242856917
1.2329358022683
1.25679880921757
1.25784549625633
1.29648626138745
1.31365367836493
1.31193775839802
1.36170012646151
1.3496818709309
1.35246709595816
1.39253712092812
1.36732537944585
1.34598896485395
1.35768843982226
1.36805918024897
1.37314463977087
1.35221154256829
1.38713033725625
1.38002565050704
1.35301761804055
1.34311669849302
1.30538567540423
1.34727359266286
1.33072532326716
1.34779107884025
1.37868582193601
1.37532011368695
1.42336563546881
1.41656373506456
1.39216004507279
1.40411100628904
1.42551354737466
1.45816325471785
1.4781758848491
1.46364702208233
1.46075967097697
1.5234231683346
1.53069972553252
1.55048013468882
1.51601692897378
1.50694069583161
1.53590807350882
1.56796406386426
1.60560838297785
1.56547237333653
1.55666426951469
1.54968054892099
1.57090024278399
1.6403839839024
1.63013718010379
1.57156244541814
1.59216119935856
1.55243249017675
1.55521803689393
1.58258513471724
1.57415065251142
1.58084510714756
1.61232980680012
1.57396595594341
1.63804290821813
1.52385851879929
1.53935288528666
1.56287854490119
1.58428865254916
1.53431228329855
1.48008393875198
1.46422469116916
1.4489414810634
1.38210432636968
1.38096159001505
1.35754954619905
1.2851421376082
1.26615494741807
1.21709423018209
1.15375044218661
1.11315456678097
1.08277210413025
1.0178162145266
0.984427834439247
0.969947756723856
0.94520748401978
0.929954627941686
0.907821284558299
0.890878939973897
0.866645266230184
0.872242712717697
0.856332644312733
0.849963328010591
0.854934605926348
0.822757007069327
0.821411646820785
0.817035023070526
0.81229294170274
0.795802187800461
0.773267447521176
0.770411890385072
0.763364956155744
0.740228593886019
0.724820607273776
0.702099572928081
0.686796611081793
0.670199689712761
0.644387145876745
0.616813743136047
0.596068638192061
0.578000142661022
0.550935012815078
0.530392749204514
0.498390490458346
0.47842451010344
0.459293480021998
0.437187080273931
0.416104787969659
0.399908742341606
0.377719631874259
0.357061867702649
0.346572271749256
0.334545894704754
0.315677530929878
0.30804227879315
0.301724676221526
0.283824016772951
0.278629559456936
0.276270667435755
0.266802831117412
0.259944082198445
0.261057764827404
0.258386896658346
0.255299761454356
0.253205924983133
0.251556271355255
0.244942370540305
0.247213639357271
0.249807975041124
0.251962432072664
0.251077042216528
0.251539084338401
0.255802855243554
0.251106788529221
0.25724398812752
0.260517082263549
0.261570551364834
0.263104018195921
0.256598748301134
0.259590825552747
0.249396507715019
0.25520478970263
0.248310071660408
0.250786937986761
0.24887772920252
0.246742392030624
0.244391990277945
0.240612316683474
0.237563153695065
0.241864960265117
0.24183506517512
0.240439949531342
0.239835564165824
0.245159244515225
0.243713506140174
0.251172324827463
0.247463999577495
0.24997274378215
0.252812022733687
0.255209958740819
0.256337942345693
0.260427273379421
0.259210349229553
0.257531418441473
0.267052581980654
0.270128893521836
0.270369437624313
0.27353887640016
0.272707549337916
0.271775283597776
0.27035705794739
0.276437106619874
0.279336383437266
0.280223403498193
0.278325390029841
0.283784110985268
0.280634753228182
0.287856956488381
0.28979539454091
0.291668802608188
0.293484917802404
0.291482985682052
0.304442160134792
0.314049916638585
0.314545408752239
0.32930473986149
0.330823371651191
0.345991212927971
0.353192674165959
0.370213990010132
0.37840254162175
0.378418644546572
0.38601410629986
0.384606758111991
0.388003396415101
0.384254950409678
0.382614669616192
0.370736755239929
0.367551529954772
0.37342649400862
0.356572998157051
0.350453145982592
0.346660781113022
0.340494265044329
0.339153589274549
0.336003055530497
0.334152592154993
0.33808783948283
0.333445890978047
0.33768873258595
0.335837290117953
0.336145986306559
0.344639072230668
0.345392019042706
0.330654462554142
0.32811258856514
0.3274717461224
0.327202448449577
0.313076714785117
0.312462264031211
0.302484102078523
0.302505563260415
0.299275544675473
0.30117131352814
0.298709569146068
0.29900999994627
0.287835504879079
0.289891725788423
0.287983195573535
0.290395766918065
0.278635807681072
0.29169169601624
0.281901012111668
0.29256616718702
0.27586364353138
0.280180290249816
0.275566057277391
0.279253552822499
0.268750243480144
0.274771723755372
0.266238764350347
0.258119429806119
0.267742532185776
0.272385585787308
0.259735125646351
0.262687109666038
0.263222986095291
0.264351001436082
0.254096697687425
0.256206603868095
0.24549401479486
0.245326460756285
0.237997043180168
0.249690516122984
0.247307554139853
0.235649819681699
0.243957151976404
0.243533183749771
0.239096898224972
0.245502338364302
0.244373258093266
0.24330051209056
0.246162838355504
0.253092843006993
0.232338696308154
0.231475786723123
0.239658409968846
0.243273935881765
0.235621573563884
0.238541662631295
0.240454763237098
0.25644617504967
0.248828804723606
0.246298188007265
0.26517234471773
0.255940070511485
0.248978139071307
0.260626978393937
0.255717487946563
0.259573674018243
0.262811163109031
0.268955202320481
0.264061396796441
0.268944113208032
0.268292753911082
0.275042645196285
0.276347493963891
0.291804452115107
0.284798173207578
0.283680112955292
0.290320754863243
0.303187255408932
0.304445321502105
0.320005552126393
0.318986819697176
0.325661692947303
0.331541836228243
0.35303679765175
0.364008991531881
0.377731775757556
0.385335731642126
0.392062507810497
0.391380922123268
0.419992491581007
0.420622883509231
0.432976024260036
0.435635455540302
0.455477715764956
0.456616431834577
0.455639976942071
0.476829987016103
0.481206510414219
0.469911514965126
0.458322370495732
0.449832735646446
0.452437142156544
0.456901080459529
0.457749888695836
0.45782510230231
0.460860638036869
0.430004093388174
0.445627373450415
0.466355776245441
0.446265831988029
0.431833722455742
0.422157128536208
0.408901873454437
0.435782513766325
0.421671412812645
0.436425587581223
0.430724646913336
0.42888664776373
0.418313443273619
0.405984223335768
0.392166694663687
0.407928358649034
0.391954379904364
0.413009261535493
0.410561023410234
0.391734220516434
0.370090966438457
0.382529322473632
0.394865902324332
0.385511916906533
0.369062775386325
0.37570398147969
0.38800898753039
0.40135957694024
0.387428766737914
0.390145459742916
0.385080834300461
0.407604833498764
0.386108984146835
0.386927891923879
0.38602688574463
0.425982854076926
0.401686712738266
0.413670152189429
0.379774775599261
0.381402179007421
0.375090416512455
0.399584575746158
0.425333397641045
0.393789080323818
0.421328463803898
0.425530825734105
0.390578392600879
0.417907872929502
0.409799100123654
0.407914284790188
0.43082811471685
0.412666592082808
0.372734904143974
0.403751190104976
0.386229004701824
0.468451698756365
0.41438384489585
0.461633912432226
0.467977803971481
0.481513519942982
0.452403774687055
0.458195816786088
0.496188254416389
0.526754859677401
0.528348692559364
0.525375951468905
0.50954798085394
0.525876641805439
0.507017685607079
0.514329635091291
0.51209919945965
0.559391881310472
0.589773105917446
0.536763041197179
0.501749558676462
0.587312734579438
0.543641641468865
0.565380604330751
0.520795083332381
0.614624747348731
0.596277788349036
0.48789119732622
0.571587611317603
0.581194363401985
0.526814746444538
0.5774183596147
0.535451340566427
0.595684869094953
0.466150209801454
0.539080131342333
0.571939678368518
0.517779091711593
0.588229485705294
0.57841270072252
0.515062060504257
0.479345787285529
0.442491953790859
0.499735709195858
0.487314915050563
0.59637589413841
0.474063786827108
0.520161915256445
0.561377850649952
0.508661400919345
0.523963687864393
0.491816805710287
0.412573492007207
0.554202399506368
0.522334728052342
0.618736512266434
0.602814089152646
0.429721520655095
0.458453981911918
0.497463773679888
0.596081427877077
1.85138421559955
0.61961929359015
0.493708510892065
0.657939415764076
0.552788835659669
0.380091056766802
0.723558157770009
0.63341679315359
0.626158630622032
0.813074116864034
0.559999824110413
0.533717387684695
0.43924930356017
0.707089562229992
1.03769828369835
0.546045933944291
0.329769398860857
0.494974659479513
0.386220946424535
0.664205840880643
