3596
4000.36533379555
650.420452594757
1
2
2
0.085460229644358
0.0856587295634445
0.0819908795453765
0.0862744559460626
0.0849605680052318
0.0907739696849465
0.0785178351083119
0.0800387176239352
0.0808482987304856
0.079805512839421
0.0819150221413121
0.0958439471592979
0.0803971514916538
0.0776167042668531
0.0837291830328323
0.0858869160118535
0.0751074614073245
0.0751315271244274
0.0829176240526527
0.0917167725196822
0.0797163624927183
0.0774779972902702
0.0853656145032245
0.0875512915696693
0.0872311802264619
0.0864048198653731
0.0801351574573443
0.0893109676695179
0.0871664966271926
0.0852644176817745
0.0855987704167492
0.0858863790497398
0.0879315426111467
0.0816499531877805
0.0736003788659141
0.0864367734903468
0.08688192086161
0.0831747643611487
0.0726221931266659
0.0872082600065806
0.0937947434379051
0.0860844308083255
0.0836634857926178
0.0811039843996529
0.0848178192430735
0.091339036147841
0.0884043173109322
0.0910052054687674
0.0851323529321848
0.0869855162210965
0.0817615340660993
0.0772752641770881
0.0951565503171148
0.0938389666657931
0.0878723748069823
0.100546092381739
0.0846354830374759
0.0836314107589441
0.0866960176633021
0.0889199370870469
0.10815216925908
0.091279573929664
0.0748257570730859
0.0767975985285411
0.0681192370386535
0.0790403522180193
0.0825308983663796
0.0705518880917433
0.0779364128999997
0.0825594967091468
0.0792655977092517
0.103299404652984
0.0900311726205897
0.0952536725639134
0.0954332740958019
0.0921252860319656
0.0702909859074073
0.0774992082423967
0.077536853550834
0.105102353507931
0.101196571793945
0.086931631965186
0.0824664464082319
0.076977349525306
0.0822853898274596
0.0921836976955918
0.0764726675463696
0.097289557642261
0.0986443004905741
0.091093838286706
0.0865050816076834
0.0819223245004974
0.0765218431455167
0.0869761159046508
0.0728191040070002
0.0817148759439916
0.0790208068500787
0.0833425653831079
0.0701288844043283
0.0964155370300947
0.081150245400583
0.124109638204652
0.0990407814490154
0.0931607480566068
0.123087224456255
0.0931812518512411
0.092334133678597
0.122690663601699
0.105626020362443
0.0852573782845197
0.0785352511768912
0.0755679303535371
0.0830185970971712
0.0794763648216986
0.0680911195701675
0.113003831494528
0.103873056827535
0.0828591604747692
0.0760554494243512
0.0817478448252369
0.0551142193872348
0.126618719372425
0.116862884675461
0.0832180840207137
0.0840040180686695
0.0802953315040651
0.0640539447809996
0.129277219530776
0.105256117359797
0.0803008834432108
0.0707940429919546
0.0848654145876567
0.0574179103389257
0.103947645121666
0.111352650788509
0.0819141712131158
0.0684047819490933
0.0825252021092712
0.118908867794265
0.122263684346454
0.0867097448831812
0.0861449942905166
0.065089623573692
0.094730472627625
0.106678342856885
0.0917643804498827
0.0724281826695266
0.103221726119659
0.0741759031451079
0.080089668390402
0.0679825994468283
0.0780112165058865
0.098327237459283
0.0920061165548517
0.0509505784071307
0.172506302127784
0.109806787607423
0.157578986439154
0.105642254753696
0.0876604748996985
0.0769353613428882
0.0914121299050839
0.0745827724690132
0.0734572960002147
0.068366068853342
0.0641084863229866
0.0996605892418796
0.0967773573536504
0.0665614056178641
0.0924167223690432
0.118880130662692
0.0911369160549601
0.0877503473480215
0.151760866151297
0.0842049817784245
0.0894033555785329
0.103696177249165
0.0903904870354427
0.0646941241003542
0.108379730262239
0.0887209618495393
0.0789236561651563
0.073375509357652
0.0784297874887124
0.0735560787793788
0.10063646102441
0.0729420341840214
0.0845702906891078
0.0633818711244979
0.0818559448244986
0.099864856126618
0.150917363101717
0.0936783895375655
0.0970655634881385
0.0717800603183162
0.0719110427859838
0.118886353263118
0.100016499416532
0.081566540574504
0.0791946759042065
0.0687971859381438
0.0770748008014254
0.0605861797209906
0.0842469205501153
0.049667113870458
0.0688946750803839
0.11790493024987
0.100658242520679
0.0754797131819889
0.0827317819179315
0.0795034502294131
0.0835927837615845
0.143016233743086
0.105709050913009
0.0852326057683459
0.0783113605566962
0.0792843227793859
0.105831463529643
0.0873743060580678
0.0820540172224871
0.0730890975258461
0.0711447005210675
0.0694776205824804
0.0754598321716164
0.0728316562412423
0.0803742660924004
0.0725740137454077
0.0799197962478068
0.0626047187426882
0.0853826321799731
0.0861413851327505
0.0802787081176
0.0731966035654904
0.0808260236516511
0.0613051871846917
0.101263677347026
0.0879880144422804
0.0900061331498843
0.0708634341550378
0.0808075064135726
0.0677918453407258
0.0748948311852474
0.067899957862044
0.0812905772673224
0.0545690992273659
0.0968585604928744
0.100839904134561
0.0913572116263536
0.0656320691119117
0.0679962739484293
0.103691148561089
0.0859637916451863
0.0793109938541721
0.0770558160512922
0.0838417898263573
0.0643015850672075
0.0776068988449664
0.107534850750921
0.0871330248551379
0.0794458583720563
0.0912815094598019
0.0849106195176695
0.085999244196628
0.0673491028712172
0.0931709090547418
0.153412458476489
0.0766675418129818
0.113539962529158
0.133684937278311
0.0944988734086539
0.105674732673445
0.0745252524695835
0.0761990289139351
0.216212484802324
0.128116934763442
0.078141404719763
0.088263341438209
0.109879378486028
0.0706719901191635
0.099397864839477
0.0767057580249065
0.110562392234321
0.0900238796230046
0.175279061412054
0.121815058665817
0.0849768696774655
0.125078793392536
0.104914462030865
0.0813429412392645
0.0850688924450252
0.076920493020335
0.0784084435327097
0.103260650742223
0.100532037000352
0.10520500439133
0.0743723452718742
0.0939961603486894
0.116555613173272
0.0997190399429327
0.0837343308595361
0.102006825876212
0.089418445197659
0.082932180527048
0.082510960735217
0.0846363065228856
0.104715417998486
0.0655151359904554
0.0951761529431761
0.130563755528355
0.0963407596199936
0.101805930409542
0.118919039432938
0.092351391368529
0.0878441945723551
0.0790138308013317
0.083204217299398
0.0806138728660356
0.0779209531090068
0.0919530589505199
0.119718953769536
0.0793515981114153
0.090442144772938
0.085584450152632
0.0845263797896794
0.089103211046774
0.0905749628168982
0.0820059221881821
0.0983809860798648
0.0794775508772434
0.0773882420479916
0.124084975547382
0.121802688932297
0.0840399692055599
0.161207085043255
0.101529135102067
0.105089927297076
0.0880250592216538
0.0977235569291963
0.0914597991055596
0.0912682399496342
0.0947806109887809
0.103751967803935
0.0933536142625939
0.126217621047527
0.105959254443753
0.101311007360433
0.0994028826314532
0.202208327982711
0.160301660114777
0.122253007200659
0.105571124669133
0.0950358674744577
0.141049972254478
0.120754480277094
0.149998345760005
0.127366736323242
0.111472401065065
0.110840942046745
0.110572360011438
0.118496723774915
0.108930755712241
0.118791152524491
0.104731068834569
0.122699958358691
0.112955754153076
0.127820392072397
0.0991076041571897
0.138863956911566
0.15891167240729
0.131772657947963
0.125728226858572
0.126309917708333
0.112674398807016
0.173261279012018
0.134449614195073
0.231471803478289
0.152712864245492
0.210861630419534
0.161366501051555
0.160361799361223
0.133268925629954
0.143423970574777
0.146289923486996
0.165752756319114
0.142453915701902
0.148812837803764
0.152005179579315
0.159862591285786
0.141748561526773
0.170528377014887
0.147008561571811
0.164655688250548
0.192804661189991
0.166419605951443
0.170637612280214
0.173727085335006
0.194435168856999
0.231414792003584
0.219293211226044
0.180052974963983
0.192803032452646
0.174615931875527
0.179056224723772
0.184608814541172
0.189796939554798
0.192317353438636
0.197044204238368
0.237688027786185
0.203983251604766
0.240885159049613
0.194279830729529
0.208112225324419
0.236083978444855
0.217037163848286
0.227011995668568
0.234296185159695
0.219396365794964
0.219091055281777
0.255429955880327
0.238260086074422
0.244361573536682
0.238935623452982
0.217798220697028
0.245110495930336
0.231614767067666
0.2495753022993
0.234782621740328
0.270409045141536
0.243761802065389
0.263029097524992
0.251878971051117
0.266767388451823
0.247812754024913
0.303546132680764
0.273680581802414
0.289144701225375
0.266821702245917
0.282935955225352
0.269634101312908
0.258382931190435
0.317554638474224
0.295589038834806
0.325359917405137
0.307127428109121
0.277373058294615
0.301752032701355
0.288551035673596
0.315022339159034
0.287615518641875
0.319147285727672
0.317371566106931
0.330254584969971
0.317491915922233
0.31659300701227
0.31038828247709
0.329758705461836
0.321386608143356
0.355641743109547
0.328697140145434
0.339539688912784
0.336864385179981
0.362227628175641
0.380306009870014
0.403575332359471
0.3918762958582
0.401492600926702
0.367457317658936
0.375275984592845
0.375807533753146
0.394815810219772
0.370562207282237
0.422131543399197
0.383091960545117
0.424762908043815
0.382070169838237
0.419471578685355
0.408509375874685
0.436219343470312
0.409209769986339
0.46388557439872
0.416549272455132
0.447661378323946
0.41108134302598
0.448214841401772
0.436095446059532
0.479343610826468
0.422492327086577
0.485808191711403
0.438004114953394
0.467844497728519
0.441622061743044
0.497817264397637
0.447347951812225
0.503463228384779
0.471879630647677
0.516940753468138
0.484408921520817
0.52144210862079
0.507352090157514
0.522262479920185
0.524385706873195
0.543706660013759
0.523125161577725
0.544700384599451
0.535483622896236
0.610639847103036
0.544897699135101
0.572345966784813
0.557116591037746
0.560752578915357
0.543696237960459
0.605903951655895
0.565481759814178
0.582870113020586
0.525922982038647
0.571672281453923
0.564761167485076
0.639439581487209
0.551324147470357
0.656388282732028
0.555318415648623
0.632945813813558
0.622534702263198
0.635109268373485
0.62948588417272
0.65875172623362
0.619287051664596
0.648822584369295
0.611851946680256
0.683102626377025
0.648553149373675
0.703123821880269
0.62664159545444
0.661077233406242
0.66884884646788
0.70365187735358
0.68205668831587
0.701074493328742
0.68144970859766
0.756686899995202
0.686926780912223
0.720332033170016
0.727320025954268
0.747229071143805
0.707898021871486
0.75036771065599
0.695055871226562
0.786056499699017
0.740297340683239
0.792325619267464
0.72422254317444
0.78418097232505
0.735786038658165
0.808505811788256
0.772197291215459
0.810835697394934
0.763201104328748
0.835038179798244
0.756644126197109
0.806239165074599
0.777599119933693
0.831997347440459
0.837917801281023
0.836158081318075
0.809277786882777
0.863376876126406
0.782724792551217
0.856932962884943
0.793320517883206
0.835905797126219
0.835328534899613
0.912466921459523
0.81843356990141
0.916317839998294
0.841779077003877
0.907638659252562
0.843542446132487
0.913315901032124
0.868188442514232
0.989846037727273
0.915606017372558
1.02360269475647
0.844662046163847
0.988878131643026
0.937074845772385
0.979316114921906
0.914057848973846
1.02742452772919
0.873523013542211
0.948888110954357
0.885476828672418
1.0267739889766
0.954739155558076
1.01715659744377
1.00723387045025
1.01722362785016
0.934228216163287
0.991006913204579
0.92396374210383
1.05823657892522
0.944937892463569
1.02662900158261
0.894357436675472
0.967660199393016
1.00222029723532
1.01767554822297
0.98140116413631
1.10000270916111
1.05862582628639
1.06324213848947
1.05409283584667
1.040200844525
0.997429745844679
1.0851130748709
1.03720794267232
1.11196043982362
1.01281585483096
1.17317039120268
1.06782559074037
1.17261181801082
0.987383054097053
1.14530290177631
1.03069500227574
1.16542665433207
1.08308434882744
1.1449469699267
1.03329027342031
1.14230730646991
1.04016339713246
1.12874053567752
1.07994063418485
1.20496409173218
1.09138784924785
1.16058264142316
1.11786009784774
1.28700369442866
1.16895691121306
1.16489375438963
1.11645642488105
1.16939633783034
1.12453193080978
1.173335653887
1.08596852530047
1.20776116583607
1.0700393538159
1.33124946863626
1.0980781605788
1.3095891110317
1.07210155343922
1.21691179128335
1.13131146794605
1.21533190318404
1.09863256265808
1.18141447286328
1.12981823557085
1.46471878944936
1.09893542409006
1.33322137229529
1.20289406448189
1.19479882941586
1.15418446670217
1.25477498211639
1.15028163003008
1.44520285505147
1.19107081489618
1.23829551213094
1.31664025553907
1.36409483156538
1.18572290278452
1.31689829250006
1.22302972337352
1.36354058713625
1.19502303931676
1.297563810378
1.08762205921521
1.23863879048472
1.13727872871326
1.4404238156918
1.23653699326401
1.3720075729768
1.28279819462795
1.31928639402008
1.2468358947802
1.25089803052644
1.37959226314247
1.32928525289915
1.24804729040536
1.42017747313973
1.24108957224774
1.4114303143409
1.20656343143299
1.28775867326261
1.43730359803098
1.38773876079151
1.29156776933027
1.39395041824371
1.23330193485896
1.47591204864107
1.36839104044744
1.4210648843672
1.33445997242603
1.39633073516545
1.31349318144654
1.22282338958057
1.17099471763934
1.42676400822435
1.31522184777804
1.40711827751943
1.24704797552105
1.346969768267
1.21085256551304
1.42326001921901
1.30269211193392
1.32331029676163
1.32864319644339
1.34762238079152
1.15239543786029
1.30684679808545
1.35340174070129
1.34600357056496
1.29975887032303
1.34940585442381
1.18098985476635
1.33457036495428
1.37328727507166
1.52722583046022
1.31694873380371
1.44172859473298
1.30593597751089
1.35883726038859
1.35928974574201
1.3321433912904
1.19774027942234
1.36547941499707
1.32690430917294
1.34233566976608
1.25839573021286
1.31380331233414
1.36416310031215
1.43249075612911
1.36066341715702
1.51684275311528
1.30460441609236
1.35967882196473
1.30420534570091
1.37203374416378
1.3306770292775
1.515527133149
1.29222428492812
1.32651104340535
1.24652121250574
1.45942263045052
1.27327973019899
1.33410971143924
1.2313899721809
1.40792369117594
1.21917563801779
1.37494147953638
1.28149330255376
1.31145035359924
1.25444977187868
1.41057619301027
1.29549119432563
1.33032580864255
1.33576019675206
1.30531874208104
1.22307123096971
1.35528784876101
1.36246582518826
1.33123403314789
1.3021426966882
1.35344891039039
1.30214936964305
1.34307886219171
1.27728601674179
1.30777812288677
1.25749087709649
1.32221871839544
1.24464835295571
1.25893639476963
1.19855358216506
1.29740597292479
1.33139076054186
1.26007701932304
1.26432658392763
1.39703544826183
1.25032523282638
1.28632677805104
1.2346598749899
1.28038685257576
1.20355328854921
1.23139837908765
1.2121354561325
1.25768044194111
1.22067301007257
1.31830227905227
1.26097077625083
1.32347083776188
1.24690462225271
1.23317322466653
1.21613434171795
1.35199813628319
1.25951240956621
1.26502443123805
1.26677181155598
1.29477628852328
1.15763532659651
1.22338826313886
1.19472282703157
1.16841490129267
1.18743620751497
1.22349668170643
1.18321206112003
1.25090655802824
1.13790898206084
1.20773607053172
1.22714680648593
1.2637891155657
1.16210592059222
1.24427439776022
1.25171020749193
1.25510641356818
1.18543074647201
1.30577695446932
1.20502550970679
1.19592769111
1.16098382466513
1.22715577245734
1.22284574770141
1.22683077500844
1.14457689378824
1.1338547158576
1.15463360078589
1.1504508804795
1.15384200308414
1.18147755161078
1.12377932406283
1.15012056072863
1.12735003596945
1.18615151900452
1.07247869229995
1.18038238291064
1.14251354257154
1.1633946562585
1.12710131531092
1.12237231617739
1.14989519781445
1.10492179985535
1.08415039295694
1.12112804753286
1.13488000651922
1.18691791531795
1.09294673577554
1.12665460304415
1.07559899738651
1.0671523551826
1.07176111463466
1.11973156048684
1.05725897591483
1.06585542019931
1.03969881726787
1.05631944169908
1.04715699262941
1.09773085873076
1.03123491247616
1.06103540915598
1.01854077562176
1.08226119025202
1.008304099709
1.06567937794797
1.02260580182019
1.03209017249004
1.04099109327523
1.07565307925021
0.996112945457988
1.00823875033605
1.00995384404612
1.02994044954284
1.01132255726836
1.00317574849833
0.959980978664415
1.01092043586085
0.963642149979059
0.982573769433241
0.960597197549439
0.969628517960685
0.947052808137104
0.987719002773378
0.926024283540732
0.968028936499321
0.950755525525187
0.982046851200737
0.956571942390756
0.966299898848395
0.931855014206058
0.942321018409611
0.905807652233755
0.928776226322568
0.914433072122245
0.9288127276164
0.868877086309344
0.90001827974215
0.887720416102362
0.885949830024939
0.878152981860022
0.90866515221315
0.88059191449908
0.912994859167001
0.87731560734319
0.886809758981387
0.859570620598974
0.878286068775449
0.862897035180746
0.875265446401332
0.843628765781766
0.851634848999117
0.820181018106874
0.848090085116435
0.830211158009949
0.844043460651634
0.809765077600528
0.851853001416265
0.806575307955354
0.829100867309306
0.824631485678817
0.812542161120615
0.798191278986637
0.820097334850691
0.793722320612451
0.797783543607521
0.76788971709691
0.785453289329318
0.76940642079618
0.76383070229849
0.756371101154574
0.769382275755497
0.760176552286153
0.778808277445402
0.743660659261572
0.767090017923481
0.757856773253323
0.755429026654577
0.749661129011924
0.74280168782344
0.730449603122826
0.734785582768911
0.70448944367781
0.740486969580565
0.718877467181918
0.730846453915619
0.719634634770012
0.728932976738565
0.70136626880741
0.7172419409907
0.70072280228595
0.70479032541931
0.700520748788738
0.698818223255349
0.674583803078157
0.676973402814723
0.676183921687453
0.686524329328372
0.67688195643188
0.692045733860048
0.650144345513674
0.672588970311107
0.665310752541878
0.6682498515854
0.655065289073158
0.662242104744939
0.65777519237406
0.655691472303137
0.635303410055198
0.654385629168413
0.63524108953585
0.629634883224807
0.626995104896416
0.630079065702894
0.622321048547643
0.635851189551179
0.617732307527306
0.610805933279372
0.609886721036551
0.624854616753108
0.607441584595739
0.615453537956663
0.607851036831878
0.594853336016364
0.593561565662224
0.597664096427516
0.589099989559122
0.596925687334561
0.583485129371822
0.57499765988387
0.576669502617682
0.578055324013318
0.569159122522175
0.573457542496288
0.568323791220476
0.571614687834514
0.56208435886875
0.561637204684056
0.559097545069351
0.563187108642665
0.558447485592826
0.566257354849381
0.546411073268396
0.540722210379234
0.54155976728199
0.546575655411542
0.528372951456703
0.537021467846277
0.535686277866211
0.528857277350167
0.516228288520232
0.521449444256459
0.52586108511508
0.524986942887021
0.515451441623843
0.514331444331894
0.505341954816954
0.508065713435778
0.50855818008841
0.511720520388179
0.496034616165293
0.502578817583704
0.490373457964874
0.508758787649238
0.496705812624331
0.499205222699519
0.488752338509227
0.485553407392561
0.475272542363965
0.475515536000477
0.478285676120359
0.482377504065201
0.469330643161174
0.473192017114202
0.470942925036827
0.47050318895964
0.466718365660047
0.471921431522943
0.459499310202294
0.456280098174267
0.455078062847195
0.458261773901569
0.449162546289209
0.452270349651385
0.444435411515843
0.442407425346997
0.435806299522836
0.440639311805004
0.438381969844297
0.444182898539966
0.435331623661573
0.436664810711014
0.428700776397397
0.430390417909398
0.434329305700935
0.43596085571409
0.431246793944624
0.436665265142887
0.419955296563233
0.417272164657226
0.430271472899192
0.430397914116214
0.416207203364386
0.42306980842342
0.414808446434841
0.414965764119957
0.412346887480199
0.413948742712011
0.412377806943615
0.417721323037361
0.416128927480026
0.415810556755047
0.410223501853096
0.415184342179308
0.402215296030461
0.413006974568307
0.41755821078386
0.412345214338842
0.409327470723377
0.425283161151098
0.422067892262475
0.412744863194965
0.40867374600457
0.423926950257048
0.415936589525443
0.419313656785393
0.412466502460019
0.422484425908042
0.428079891471383
0.418483470440955
0.423644146235277
0.433170410012077
0.429327722238024
0.427210870153556
0.421818010681069
0.428852947702044
0.426605967537489
0.442470319615261
0.444586962395524
0.442331294754904
0.441291601966647
0.442504214569086
0.439134560532382
0.441559711710662
0.440834644053138
0.457361411179956
0.454649570815582
0.455709529413351
0.451359640717934
0.454686802322773
0.460210051048483
0.457327852719823
0.468796699019895
0.474028165112871
0.463436772363143
0.468521603302218
0.464400675631961
0.48100485594041
0.481459942974054
0.475440179838027
0.485287446125962
0.487820184361157
0.490967300650121
0.496804081435828
0.497408685398034
0.505238002462772
0.50075976558376
0.499007610937134
0.513375665020744
0.519861892692241
0.519456629174258
0.523646032147637
0.527298812693591
0.535639589515728
0.523830608710976
0.525128986501462
0.539337639556602
0.547396838520722
0.534467254672245
0.536866292101348
0.542476862887953
0.54474063808288
0.55316881003753
0.557410326886652
0.546050695098531
0.555004356156426
0.558194881337767
0.563250753900508
0.556798140112569
0.555436024311393
0.551052721753764
0.553262928435696
0.561369585026332
0.560956977373456
0.541079838115835
0.552769758594675
0.561754483010287
0.554777609710933
0.55386486747653
0.545924499466208
0.53867862860953
0.548731905524181
0.553819051646071
0.553415263843556
0.543456965220673
0.55401590430518
0.547454466460963
0.549443786353259
0.556245275618486
0.558010860916522
0.559158461644327
0.545190005714384
0.544674204112193
0.553059056168169
0.562162098132464
0.559133565926927
0.555285906848169
0.559181848089142
0.555555525913068
0.563698335338607
0.555954300549895
0.554176358028489
0.559824078326204
0.558056097739026
0.564647016213933
0.562521631800678
0.553893250427053
0.556613032887568
0.557967579329174
0.557195661395915
0.55885355539748
0.554219942699518
0.55197181846281
0.559174556675055
0.549417669963324
0.543448586225073
0.547818225614484
0.541790313854234
0.540141429670614
0.553357999656174
0.547385518918058
0.540675840600142
0.548283825177191
0.55186963512001
0.537153369086438
0.534311591210904
0.538109286963841
0.531624797792989
0.525579796975021
0.527083225105049
0.523127123978264
0.516442053000385
0.516380250449095
0.511029121951913
0.51289225674788
0.510972516747419
0.500688733698311
0.496390373815897
0.50071135375642
0.496441594911802
0.496863877715363
0.482824329833205
0.481706065803236
0.483654053452601
0.470489735890208
0.468911339305436
0.468197696064496
0.458263344041031
0.453104972446046
0.449533921927476
0.444525042563307
0.450401608117512
0.442258046659452
0.440573154640861
0.446127058141208
0.442327827888728
0.436538292524059
0.436485266675442
0.427311747106012
0.423247380567861
0.42526057174893
0.421641964233099
0.420695947006882
0.416358007989122
0.41489491074471
0.413389060425341
0.411106098401634
0.403713443083635
0.40114606960257
0.405727632722757
0.403236341004714
0.398034639736798
0.399024972053792
0.40494765318621
0.401608894311276
0.390694829142956
0.385502579770774
0.388830918028133
0.391187563813996
0.387452543495445
0.383654542056222
0.379347958663023
0.381409698777641
0.380345276291866
0.374217973212274
0.374201282628518
0.373126013169478
0.370488606540015
0.371636265322583
0.36884917498251
0.363998654202677
0.35893453091255
0.358842675984407
0.360940173299484
0.362990828150762
0.359987519691594
0.350186884483098
0.355611914019641
0.351975509180186
0.349720188278137
0.348902336914389
0.351327111588953
0.35390591540543
0.345608492150243
0.346444083187669
0.345536065690161
0.336596619208685
0.340759260949666
0.334628031271133
0.339062940696428
0.343616113166476
0.341138542909575
0.330751463269235
0.333062342575895
0.334210393637439
0.329553902275639
0.332610057695485
0.336872724496795
0.32986530190705
0.324648181352297
0.3188710402649
0.323736988124787
0.32682248118996
0.325623952586808
0.322313195039032
0.325261257482925
0.323539763157621
0.317605952264525
0.320032638603949
0.322342466577445
0.316026551319898
0.318799676233244
0.325303442534112
0.315522607396502
0.312588144251061
0.311174690339145
0.310136879873904
0.312857819962585
0.314164413116659
0.310355365708334
0.310631615734709
0.311938698004163
0.31120730956608
0.307701468249472
0.309107738601772
0.305981168570527
0.306894027724812
0.302254174264951
0.302598956043058
0.303167824772141
0.303273847908171
0.303946762705703
0.298916032916341
0.298087479142235
0.298032053863548
0.297373051476903
0.29439447514262
0.299101195308063
0.302265816873631
0.300490411305432
0.297207815196258
0.300010404397949
0.293768097173585
0.291099109709108
0.29039948025704
0.290336898726341
0.294967942964916
0.29504112478332
0.292613672175572
0.296481401519187
0.291705194582712
0.291918759107609
0.291962361149341
0.290351212201594
0.288549468467444
0.288808816989383
0.292791666281237
0.28931589058606
0.290761239694542
0.290482179223261
0.289765445009605
0.289182159714832
0.282314626609546
0.285092905172455
0.291271565688366
0.289155541951954
0.285544193466455
0.288016799061125
0.284824540421098
0.280794672128145
0.282872004687944
0.28057578863301
0.285219431332575
0.281479941197801
0.279258230227671
0.283180995222883
0.280042210127396
0.283522505834849
0.281479331621502
0.275834237613316
0.276528318514062
0.279951493083565
0.279142512221241
0.274192058662292
0.276360508983116
0.27846463292588
0.274283078339298
0.273837058296829
0.272983574558882
0.272265198838673
0.272713862196525
0.268485949955586
0.274240861925043
0.273181130509324
0.267630630832448
0.268814083004537
0.269157355758943
0.266096196294028
0.270255335134896
0.261895795610121
0.262423614172324
0.259885178728045
0.265117032430648
0.259659891885253
0.263215505957389
0.267576510542473
0.261373091651337
0.258747643225781
0.255053109796952
0.260921719629367
0.260317532546063
0.257379928803718
0.254141927363026
0.258169022761463
0.262504460445908
0.25547437731583
0.257021195419221
0.255894704540956
0.249794076101873
0.24574788851222
0.255020047625588
0.254228651689319
0.249913644461385
0.247376200144224
0.252427990870747
0.24661349086892
0.253422087904397
0.250636571411847
0.244837096137126
0.246110604119301
0.242866311831592
0.236929707031884
0.243037412830788
0.245053467421192
0.246541226912906
0.241005889722558
0.238182402609019
0.239652778848357
0.233533273256696
0.235154581991068
0.237466736305301
0.236862198245661
0.239608244375086
0.231766983643221
0.229042885820579
0.236090924150106
0.22812019175154
0.227748166552135
0.232572675167513
0.229331042438375
0.226383210950811
0.226934766310422
0.222190040423893
0.222717987567497
0.22398388105364
0.221144907353992
0.223497975331525
0.222576437255669
0.218193171821629
0.216816798852678
0.217619702821931
0.214530721249451
0.215724098600636
0.214363743235708
0.21974262389387
0.213084650697831
0.211274006456612
0.212350046677165
0.211990351922865
0.213027650747849
0.210362143454731
0.212433236867641
0.211951540571693
0.209899246755642
0.208924203620754
0.205434397185811
0.207509781394688
0.209799065762951
0.203038847524245
0.19989570071255
0.200452321023083
0.204384726367303
0.20109674078105
0.201294184340036
0.200579950907691
0.200468514263673
0.20200347197358
0.200704442682013
0.205276317870081
0.195966472404212
0.193098303605483
0.196783688637138
0.195899660380163
0.19815926265042
0.195868412868351
0.195994239773511
0.192946931442794
0.197351440273802
0.193161235460497
0.189209501724028
0.189722972764293
0.193010313289067
0.193201463033435
0.187935283842126
0.190582626982281
0.190472145312906
0.190163900608487
0.189483148614612
0.188824056861539
0.190663351625187
0.191016376868526
0.186942381705092
0.183275565721945
0.183844045587749
0.184600886251156
0.181039736924077
0.181511593278997
0.18233540400535
0.181549574025758
0.182457175007588
0.183819469128361
0.186924631708486
0.180269067059463
0.182710554156548
0.180678733799802
0.177234520216225
0.180807150211543
0.177974278873422
0.177278552151894
0.176449274896071
0.180240768494683
0.177065654079158
0.177486031312102
0.176494362139416
0.17575381881281
0.17376959013001
0.178033059466656
0.173864310127995
0.177567850357905
0.171359625197633
0.172385838734801
0.173075823124
0.172785713175553
0.175759545776441
0.175240979689959
0.169399166628895
0.174678470260219
0.174043495406277
0.174563715333148
0.173130421350691
0.171229345844246
0.16840345572735
0.173406701426407
0.170754878561432
0.167434778410362
0.171278635694351
0.167230437113055
0.171643213223851
0.168672462142626
0.16736413227651
0.166071310228753
0.168781961649007
0.169286692518404
0.169343632929033
0.165548642273647
0.164993289038066
0.165963389882259
0.164755218459896
0.165940120583657
0.163952321665802
0.160748014540687
0.165400571912629
0.160820572592561
0.160582640246276
0.16144592305918
0.156345250529104
0.161244869952591
0.157078772477483
0.159002204362585
0.159672912201591
0.160100525779441
0.155666711479869
0.160012668909445
0.160394211808247
0.160395257605509
0.158407913474239
0.159020201805446
0.157511393792695
0.155783098415565
0.156238595294687
0.158225016126258
0.155992209727078
0.15570969296823
0.160745615552076
0.155079046162284
0.153484860470524
0.15495565883777
0.15631691578348
0.154608718105767
0.150165310563735
0.152346100605804
0.152584612250339
0.15150937804909
0.154414936860362
0.154999413330803
0.152855273960766
0.153059801502625
0.1506864068025
0.152402431166657
0.154968667792122
0.149048024801068
0.152818386718637
0.153098408718864
0.150548109453231
0.148169035971474
0.14790559990612
0.152217337124632
0.148844854000347
0.144598332290786
0.144745525880892
0.146968008256313
0.144459412629512
0.14639580523338
0.144168868893817
0.145570931178043
0.146674417089844
0.143621299773246
0.145468114548311
0.143165066148271
0.140983929857953
0.14243404266863
0.142760400188954
0.13773380846118
0.141796494023793
0.138278174340201
0.141159453336033
0.13921194626135
0.141121265557695
0.136902904531256
0.136947569655905
0.13919337550039
0.135795672276058
0.132821733481428
0.131025079121436
0.135942757821219
0.134751177952429
0.130865856603081
0.132369795723355
0.133813714444486
0.132774616551959
0.133927746094256
0.133318594262284
0.129712691223086
0.136448429843244
0.13109181579743
0.128759953151385
0.13016458684547
0.129463722963117
0.128370827318989
0.128545300172123
0.126380580694171
0.128356232499632
0.128892951935995
0.125281425204715
0.124801828716623
0.126849842014929
0.126115723182222
0.12591228302956
0.128675544673801
0.127424173754004
0.123511258416498
0.123645281734175
0.121895872577259
0.126901550649254
0.12406687277599
0.122379750215876
0.119856140957857
0.123732590441596
0.121924852928427
0.122604876931827
0.118781081053058
0.11896798197343
0.119311102866651
0.11855348262531
0.1173605965274
0.120666856019069
0.113895485391182
0.117681674856773
0.118022139859209
0.115069582904231
0.114970380738225
0.113259299260662
0.11633064505095
0.118204758131309
0.1131970621812
0.115920148991514
0.11253167361463
0.115498421209779
0.114370200909862
0.113885147456474
0.112230839390706
0.114376190857397
0.111159818614527
0.112412792088874
0.108593234839753
0.109686965092113
0.110653390376918
0.110959964766497
0.110712549126541
0.109327916733158
0.109980401236116
0.109734208142821
0.106833788826001
0.107103791920744
0.108466503490336
0.106601702474436
0.108042113540945
0.106680570269335
0.104000142884664
0.108579675899368
0.106848383158629
0.107390216353152
0.1029247050219
0.108587162608255
0.103964813092713
0.103897869697819
0.106005681093963
0.10904876176892
0.106241689812017
0.105558576404615
0.104113680627812
0.106805476266445
0.109286365638657
0.111875081742914
0.105277588038934
0.114468930075629
0.110098048945359
0.110537318385214
0.108039564374022
0.112610118005099
0.107017253683004
0.114530347578059
0.106513159570958
0.113741205512429
0.110755824530154
0.111457001098523
0.105383759699737
0.110853021698939
0.105112901160654
0.110286655360438
0.10423970056924
0.111978463698545
0.103372482527303
0.102675490967239
0.0996903858753014
0.109853614746065
0.102374669451241
0.108759956302675
0.101064598364707
0.10983513358446
0.100242669339309
0.108030417371303
0.102459389776079
0.115577499467576
0.0988818846980594
0.111215486238804
0.10127769696603
0.108458847350686
0.0891098456414911
0.112209254217201
0.0907609788399238
0.109491207553959
0.0922401152153563
0.111338162740491
0.0848848464640431
0.114006348368276
0.0824744476189693
0.120656675186533
0.0850315686618597
0.118105402504672
0.0887698325175634
0.123066715022826
0.0866980001730591
0.118413201535506
0.0789959565459301
0.124305292205034
0.0763680387535425
0.132357570370926
0.0768259069819616
0.133919456380262
0.0744036973535866
0.122599036339376
0.0734577933660325
0.13435871466246
0.0835260634763186
0.11958422493625
0.0828379415025972
0.125472890340854
0.0977539836541238
0.100628547752501
0.105998352632716
0.099304321231037
0.115652828157232
0.0786706891988942
0.126357467287618
0.0756940649940813
0.130650843674742
0.0751070618032968
0.125144546303686
0.0807823852626219
0.117637041835284
0.0855326732111674
0.105393836220985
0.0934224694787728
0.0974198931492622
0.0974333545193399
0.0947960694456865
0.0984171515834701
0.0980787716941933
0.0910947040586823
0.0971419719572117
0.0899771300998313
0.0984174893925776
0.0885417998904443
0.0973219833644249
0.0897030256039926
0.0935623405063596
0.0890639324411591
0.0955004309865655
0.0894204987436967
0.0934057157846877
0.0858177192569355
0.0932991559911878
0.0903335673805245
0.0963572423624713
0.0874183339812431
0.0931336746728902
0.088299989649074
0.093050549029292
0.0875561443064028
0.0939806575925667
0.0886579997068866
0.0916093028570872
0.0881001118359107
0.0908319962605565
0.0873361768982667
0.0917403410937979
0.0896367768637278
0.0938102343596767
0.0891402667278395
0.0928588436630791
0.0895493750449477
0.0923363259859711
0.0888883757051807
0.0961545756241127
0.0885386129186093
0.0888843884653455
0.087610775635166
0.0932445140788657
0.0904754846343905
0.0916624572898231
0.0889416360635602
0.0927063227750928
0.0874335106526121
0.09201578048623
0.0900862827645428
0.0929385922274549
0.0859190263417267
0.0921812897339719
0.086674938665965
0.0884017320470941
0.0860830054678042
0.0922498806500611
0.0858275215097467
0.0911966511051424
0.0848948998557358
0.0923151893035279
0.085240842950238
0.090058909563865
0.0902955461240747
0.0917299397155676
0.0914246259549983
0.0902835877470774
0.089402636385578
0.0913806397659608
0.0919502015267117
0.0902237655607458
0.0890895713350238
0.0922691852067804
0.0887337313346183
0.0896727771977073
0.0863069445308562
0.0923222809714998
0.0904539025876056
0.0895792415082365
0.0867299910622826
0.0915759186121081
0.0886223156380689
0.0936324921742991
0.0873622793008781
0.0913549767323837
0.0877447117577967
0.0916170371409276
0.0899252974679176
0.0896660932652909
0.0890201345286206
0.0916181569235258
0.089795041544854
0.0908563586478495
0.0901745602036408
0.0921317101711805
0.0910262567466786
0.0936785106510623
0.0889880822474252
0.0915831125307062
0.0917793607705356
0.0939696402465316
0.0917222180679448
0.0923280816948115
0.0892186085479197
0.0922573737268814
0.0922486719471103
0.093285855948645
0.0894499655593266
0.0924467030133612
0.0916745954910796
0.0938806500037922
0.091493312670217
0.091376705223349
0.0949916784503994
0.092245565682783
0.0911119154174047
0.0917781570802712
0.0896530183345123
0.0920990652379019
0.0906797000582032
0.0910522155821628
0.0913748356848227
0.0946182589265718
0.0927386956780768
0.0931130551852851
0.0917701008722871
0.0930101737695499
0.0924549717204787
0.0912934508739234
0.0939323010192878
0.0942801993046078
0.0916216064350027
0.0945713403582417
0.0929979764055326
0.0911232867617129
0.0922240347766004
0.0929428230370184
0.0941252359222375
0.0927858970654134
0.0919227699214134
0.0952480833421218
0.090438401093915
0.0919843356102594
0.0931447273420046
0.0941696710167282
0.093957280688981
0.0966834471831426
0.0938793368279171
0.0938503314115195
0.0940568921268931
0.0939797067411963
0.0922426337998864
0.0973086386318122
0.0954437480104059
0.0952578498899031
0.094054103916055
0.0963693352158499
0.0920147870946874
0.0942348783248394
0.0948123113193627
0.0951412131850103
0.0972382163808445
0.0970135213815653
0.0928407944441203
0.0944334926513205
0.0946882086177468
0.0950907199328833
0.096375322553193
0.0953030541451675
0.0966514837334637
0.0964485043488453
0.0929351454347152
0.0937049881411103
0.0922720237657459
0.0939983533170173
0.0921575632633306
0.0934678204121524
0.0920229881824884
0.0944784865901204
0.095286946888414
0.0929701460286237
0.0924845469177647
0.0943259266048101
0.0944816017294285
0.0932229153314142
0.0932494650857832
0.0928897422223993
0.0917228676726116
0.0910170381335395
0.0906046856610878
0.0898644882701651
0.0912137967172044
0.0885660176678717
0.09117046431722
0.0916632902066896
0.0915844760381645
0.088665708374374
0.0883341814122297
0.0928371402946451
0.0893703951901835
0.0920858370385363
0.0899145160186397
0.0912506867263594
0.0893824943492539
0.0894873161293966
0.0927375010998535
0.0910833374791836
0.0900780267791821
0.0909848080315532
0.0885870600486862
0.0900741334385493
0.0899521282568088
0.0906210097325969
0.0874666768492896
0.0901712878237539
0.0888710879366149
0.0914914403599844
0.088005372370812
0.0876808425906035
0.0925470352884967
0.0892846252288335
0.0883285689985661
0.0883732212616273
0.0861619646259481
0.0896291954040418
0.0886068135293028
0.0865038650044624
0.0895976397716988
0.0895559614737357
0.0887558578693947
0.0888524849976586
0.0885528370329112
0.0880376872201656
0.0883579752200514
0.0880484880323473
0.0856710305291048
0.0852376610289245
0.085105819643146
0.0871566367414266
0.0830015605440867
0.0891371262108616
0.0877935763862187
0.0869566196420492
0.0906166023167259
0.0857785694675002
0.0877295417853884
0.089237613577142
0.0861025003953698
0.0851891776914295
0.0872745097624558
0.0875484206864859
0.0860149613938429
0.0849401347729292
0.0851758327312593
0.0873138408489541
0.0835282483260298
0.0872266611145986
0.0909206935878889
0.0852678301508749
0.0866731719149196
0.0860057018698116
0.0853250439675271
0.0849804968430413
0.0824700406446341
0.0843195220698555
0.0848568882962247
0.0837209719970498
0.0859732331556183
0.0838094893047194
0.0857527167708343
0.08399314661601
0.0834137151527681
0.0837333248217877
0.0842313138791271
0.0868084663568074
0.0836811305221294
0.0833152920684823
0.0850508620528554
0.0825784746712294
0.0810225551703904
0.082418747761182
0.0829342297801002
0.0889321704610298
0.0848517638244882
0.0799408196071923
0.0820841265471703
0.0856674015115509
0.0818174686320521
0.079589166093755
0.0825313606295496
0.0829219515162457
0.0785460103763673
0.0818697092188069
0.0797393186473273
0.0797544262596604
0.0799637492006622
0.0810204635505294
0.0798824923894825
0.07996027141835
0.0794561971149844
0.076555210872791
0.0778033658762648
0.0801971360447874
0.080438459154229
0.0794188702589862
0.0748003610783357
0.0789564682446609
0.0778044255772405
0.0836704962864635
0.0821215336603277
0.0767470846914364
0.078939982728266
0.0753508755044111
0.0771817883798134
0.0729829064980796
0.075140671278783
0.0752648514950431
0.0765230088514452
0.0739055680021548
0.0719697761753726
0.0716371599782972
0.0761065401578217
0.0728005309373594
0.0726019672041773
0.0724871905705346
0.0734466168419346
0.0728533904855228
0.0714733690911927
0.0717786845176557
0.0710816131950197
0.0694313899864876
0.0731370662384774
0.0720945010999251
0.0727342750237653
0.0739091148553386
0.0867271258517033
0.073024693439799
0.0707904918976067
0.0747191688667003
0.0762399996077598
0.0715039182186471
0.0718860375276846
0.0706192527201533
0.0719857715169824
0.0712653581493705
0.0726718581074355
0.0697043443527882
0.0690985086520011
0.0711456083440114
0.0693604605694638
0.0695370974451891
0.0734667489123961
0.0698398694357854
0.0680210027208869
0.0702757413545354
0.069398342443586
0.0677366633250079
0.0697297608876848
0.0673943287907156
0.0691273835154687
0.070681523716804
0.0775029934201483
0.0722192845285077
0.068776098859738
0.0698154108089347
0.0671439116534731
0.0672376611424221
0.0664295829569317
0.0695363548487349
0.0671037760492243
0.0670243289538721
0.0668729423604316
0.0662770446918169
0.0662737099668274
0.068543829052911
0.0697111492012762
0.0658540591003843
0.064473311501562
0.0654370152481637
0.0652395221674603
0.0663787714199314
0.0660489488409043
0.0633349566204267
0.0664966281580895
0.0687559917829358
0.066805516191463
0.0669166033790023
0.0676376889246616
0.09013871513178
0.0663442888049866
0.0677566495884216
0.0650923888944084
0.0663656259028594
0.0660846197122153
0.0646760252822525
0.0639515507043566
0.0633946877305635
0.063959092667157
0.0645614952525195
0.0640079833458828
0.0659136600067523
0.0631093796111332
0.0633397347315846
0.0625875585455941
0.0640089902837479
0.0668228674510031
0.0645388510923548
0.0605465390030463
0.067595520288697
0.0783844493827951
0.0721613326460358
0.0616765765304324
0.0673579708143063
0.0622102961372717
0.0781603791483745
0.0781636286121781
0.0563555286510221
0.0689654460800236
0.0590912983259128
0.0667434142490388
0.0609815174441292
0.0671154004126986
0.0627956380116706
0.0753752536103102
0.0617593166069288
0.0708981120362845
0.0634240644999836
0.0638543926856618
0.0600527076738361
0.0661171040294798
0.0641742624013438
0.0628326578411194
0.0627672370450196
0.0629946185452714
0.0620776311749061
0.0637452435855509
0.0615721928328454
0.0656192927033023
0.0632692316692077
0.0738561560092362
0.0609566090246542
0.0653426945906291
0.0590173138580989
0.0645577342072464
0.064054280715761
0.0850287830087697
0.0619903927490537
0.064367726207625
0.0614146937748649
0.0627321141981494
0.0624971939959323
0.0642738466074209
0.0647774054253201
0.0636793368557509
0.0612555491895915
0.0633364380331166
0.0627562039647792
0.0625806438279891
0.0614326501591533
0.0631958307748369
0.0632008923772698
0.0603243908628906
0.063062443706669
0.0637678741367203
0.0644242428151762
0.0660695568670291
0.0724738017256675
0.0911512103020914
0.0704614456846546
0.0769937904034024
0.0652895940701493
0.0665131899978098
0.0581973742358628
0.067274182882149
0.0586748512675294
0.0689537950081214
0.0609673185346551
0.0664509261028558
0.0614668694953875
0.0657283508649893
0.0603638106050617
0.0632477730370441
0.0558337677275501
0.0634682534994692
0.060227488487789
0.0652809532161261
0.0607298490828724
0.0645790932745535
0.0606387007672436
0.0709511984533519
0.0690220402488003
0.0660688081061112
0.0683493868348577
0.0797814356344288
0.101807288634263
0.0600411030451371
0.0746327484123768
0.0612465822829813
0.0638758909488861
0.0604096454572674
0.0642216655691757
0.0700528369955929
0.0671732970550217
0.0624364011668178
0.0651092616183449
0.0639480958211351
0.0662487039276398
0.0646676570666318
0.0777787637892001
0.096620190154681
0.0759416339152665
0.0652820057800887
0.0693818924480974
0.0668823001747065
0.0959748703770567
0.0693062569116032
0.0653050376105169
0.0708565213903266
0.0621658113254106
0.0666151957894369
0.0618010097657784
0.0649137657404037
0.0673765140201238
0.0723131812622847
0.0611255892691476
0.065904997112219
0.061446385303439
0.0682672867259452
0.0690080699233848
0.0782508541325028
0.0802151464024637
0.0685477980803454
0.0695339311247976
0.0732494330192494
0.0616506579676237
0.070645981893446
0.0668598944854255
0.073472204272599
0.0777035569749906
0.0895262113184586
0.0762836151731613
0.0846101217810277
0.0805775081913498
0.0676993002335131
0.072561708580057
0.0856412101155062
0.0721861299340715
0.0752624762349048
0.0667819874121986
0.115336019998185
0.0846708325310016
0.095396271791566
0.0690561265475455
0.0723341382372296
0.0708347863713795
0.0705363267162272
0.0743213146803815
0.0897511047041302
0.0823471266422504
0.0627531521824051
0.0757586569593344
0.077523330208369
0.0941209305048512
0.0725569744350271
0.0802841648155252
0.0720872791591465
0.0819470197325458
0.08179868401851
0.0883048247686243
0.0722271174137165
0.10597022514457
0.114203004829956
0.0955798484710193
0.0916210758376028
0.0754867263309917
0.112803190950722
0.0941230949992536
0.0754441899960874
0.0805353480871106
0.074810031456405
0.0823806572714057
0.0803196762529787
0.112054205178548
0.0928591389980449
0.0762330608447056
0.0903362865749029
0.0840621425228083
0.103337571854064
0.0990591505554074
0.0793356787076068
0.0868264589855177
0.0884848058023212
0.0924848381161653
0.108449202061771
0.122821348401139
0.0881639516318809
0.129794168026212
0.103591277640419
0.112280518334716
0.0972923913662227
0.102168461261312
0.107834212617844
0.119564793798367
0.0984441179981242
0.0971607856108312
0.107429695327761
0.129347522447113
0.101248750033947
0.101537060104559
0.101839173600997
0.102262555142273
0.147361009684865
0.169196318019809
0.134420703819976
0.115996845976262
0.113537861255162
0.135599746580901
0.118880840265213
0.105194462575978
0.110613115561128
0.11034858508132
0.113808872903
0.115091128102746
0.12336602719475
0.124595400270585
0.117118091543767
0.121503018721002
0.124600266898815
0.160334056843137
0.162462759787624
0.167975977008803
0.146068070064838
0.158510170573324
0.163205984824341
0.134381293675112
0.137053158894181
0.128736273466846
0.146093499457474
0.139432970115229
0.13453258488365
0.142456906998851
0.160781983092752
0.168176329802549
0.151627453008716
0.173271503787179
0.152333586108541
0.163896415877681
0.174530652781708
0.259563168820644
0.214505969719463
0.169324943057618
0.203883088541881
0.171329378208237
0.259701609382042
0.20046805191811
0.193912784169282
0.19439520052
0.203635042297352
0.210014344787265
0.224731592384587
0.228278532324849
0.243773849937873
0.237633274862186
0.242388353659078
0.245957914887005
0.359384157199254
0.314053044617743
0.292887683082778
0.26814519546018
0.296190382258348
0.296637833565531
0.296233874837223
0.285698184987596
0.307809873093544
0.30562805149361
0.383002133747655
0.332979277533636
0.335472314144817
0.343934966155585
0.368117493498589
0.364092735683267
0.389223554782194
0.413777047184973
0.372278674522373
0.389894479922912
0.38535350920308
0.396613355356726
0.393575762795715
0.430434937339803
0.438264409241176
0.411271960842963
0.426281318518276
0.426588562673136
0.440814759429999
0.438406166723191
0.453177110044792
0.451986315325711
0.4848820069798
0.528031753512227
0.578808107871612
0.508360020005038
0.459391955682039
0.471710218391016
0.468703068886522
0.494722209040965
0.505803557352009
0.502133844834464
0.506913109699029
0.463674029112871
0.474648830684187
0.471169954377088
0.476237418658298
0.479187038962231
0.48200873684997
0.471842543919232
0.48940543014331
0.49069325943372
0.479825000690627
0.541534879376533
0.480496187309144
0.469546679039498
0.471161757343187
0.469204869878578
0.475157222617524
0.472175179729633
0.466114175806387
0.491469555803094
0.467925942607147
0.447831980434436
0.45971142990405
0.480838566231013
0.48988168520043
0.441002503032394
0.440659928714582
0.43933748470144
0.431250163076178
0.431966288751518
0.449950847508899
0.481346154861033
0.432827727320039
0.409016523021524
0.423684340021956
0.413761011098667
0.413764388741509
0.409579165336043
0.412964101516883
0.407554577268746
0.413394571023497
0.404286136416418
0.405594583755321
0.398387592238581
0.405152066590937
0.394306798586082
0.40067233641318
0.399239793456388
0.4004460428969
0.394731994590681
0.399286661856884
0.38701052136472
0.399310855709961
0.396582060600439
0.396534512579638
0.392349027825713
0.393051101421046
0.389624403343118
0.393689205629206
0.386322179927383
0.391684995768111
0.38405267520646
0.385109808226115
0.379947121483421
0.388731359859186
0.385359499307502
0.388599578758229
0.377707214664545
0.386462575001178
0.381160833476662
0.382596685849563
0.373497876241905
0.38248226913197
0.383266004941204
0.416927977096971
0.412733516393648
0.370688656819804
0.369531295078109
0.367073121690012
0.364871395300933
0.366033276561941
0.401256855039605
0.391968440429413
0.362710403018605
0.355321511564851
0.348996241810033
0.371225369830822
0.358358283329444
0.349533656634398
0.342830853032251
0.347916843968472
0.371271649197445
0.439822402694054
0.390319714490737
0.423801578233327
0.356510012344196
0.335431280026575
0.349715567083961
0.367915531874748
0.331473741930349
0.32750431428261
0.325170843573687
0.364555651398881
0.348596887702919
0.325212966475657
0.320420879872835
0.326781105519711
0.352213543435814
0.357952571438194
0.338758311729334
0.350710170088883
0.36559808217807
0.349467829045709
0.367680602892043
0.379223201119454
0.330901580762487
0.302967718134089
0.297275793101176
0.300521972077381
0.305278547840205
0.345030462648028
0.315782304603312
0.301467148625035
0.28585496913889
0.2812685906264
0.28899036302331
0.305357380067474
0.288499435709639
0.300537057395691
0.308203822450559
0.281991275977652
0.28381864554987
0.306684034892235
0.309500447860988
0.33270159834365
0.27732196949699
0.26624297989865
0.303596903611262
0.323593885686165
0.282403755856
0.27640672145182
0.250311575745034
0.265649935722187
0.266763194754462
0.260251951443037
0.264127547404915
0.281273010310263
0.280959651437314
0.326579956887473
0.338536364440526
0.309655704927066
0.260291924369757
0.240759742371446
0.235270937280112
0.247176150071821
0.238117212694926
0.241742416763327
0.265511217097231
0.256940503903392
0.23781158774782
0.287576525439247
0.254483522885554
0.243872771352353
0.240775399789882
0.245098672756216
0.246224450740301
0.289210586513544
0.296046546793573
0.280753007779783
0.281098850079984
0.292737089373025
0.270099523488991
0.269012016655111
0.266427563846447
0.279152776731177
0.282840005654804
0.295275550989685
0.288237788076167
0.300907533082202
0.29704357913654
0.302944388872172
0.344331975448803
0.348762276552649
0.327226831345396
0.360674835967944
0.368943621715803
0.404640599029099
0.369977781948505
0.361932436352467
0.358458979252969
0.368240561133923
0.377979986215654
0.37536427142228
0.400346088777539
0.422424645708161
0.39445045037037
0.39880593300427
0.402555962744436
0.409385101538208
0.414587458532035
0.450348730712705
0.450053100227004
0.480054286234108
0.476123009340216
0.459217477308184
0.44194465290616
0.437518055031471
0.443945370782477
0.442668630747442
0.436413783046304
0.439145359405801
0.454557658585025
0.471385000427973
0.450057298120092
0.450321574698794
0.448725541828846
0.453395328963436
0.457884011778622
0.465873368031127
0.462483716516341
0.467799493965414
0.464468433707179
0.47510880602884
0.477222692801506
0.558678650320614
0.501787804453827
0.488543911553903
0.491293265918185
0.500907571276095
0.492945270376114
0.510347686587879
0.52316216864024
0.520974640080384
0.511847611437779
0.52392007305685
0.508766197581844
0.521611262218616
0.531660453389917
0.55292355791173
0.53695127399122
0.538772884373658
0.535404876363684
0.586613217327324
0.583589774805745
0.569121630993958
0.568075675111347
0.565770161285969
0.557697335110978
0.554648526375253
0.551490425876267
0.561502334459424
0.558789542598172
0.568335537362919
0.56955325213196
0.563509824940932
0.572923678366811
0.560525782705739
0.56765913629395
0.593344610682679
0.559449481073539
0.559649586186608
0.555846159722057
0.562963671218847
0.557745445969185
0.586966539997159
0.580506936726282
0.563962323677587
0.573228690919707
0.577944211134853
0.58757885752209
0.586527115204093
0.55207800298569
0.566735993761081
0.551331292846262
0.563309100485271
0.552837741024202
0.58364295405084
0.588699798580524
0.575160366913152
0.566747516167796
0.564475223862327
0.57212690524565
0.579087293265121
0.576449408082875
0.579869312487396
0.577599461375187
0.589937787127003
0.589859553087124
0.594110714572634
0.582752967875439
0.597730386441381
0.614130575601206
0.616646083689402
0.582090138501485
0.589930234835958
0.579249000302553
0.587274295641744
0.585998210618521
0.578695710808613
0.566749227909053
0.568425060348353
0.558537696217373
0.571916454783578
0.585509551379622
0.557679563510191
0.555357042897722
0.548228051296546
0.534783944131321
0.535797301752922
0.536398922155226
0.528795461297625
0.521134901230984
0.527184765785551
0.517174769336545
0.521524465839511
0.511642015384174
0.509694179993134
0.507654091380868
0.509563252081666
0.511567224565822
0.506319698657142
0.504620847288619
0.511456138180335
0.50411739745665
0.506469749030541
0.506493917214875
0.503591614340346
0.509982596813184
0.526806456650676
0.519063498906078
0.506307084813845
0.50938546665503
0.506649430607928
0.496707790982543
0.504113780599848
0.494099688747158
0.499903222547945
0.502354435664112
0.500643286199714
0.498855835708691
0.498618328104184
0.491256180800115
0.500441014799308
0.493838525027016
0.495573064364586
0.498372916053359
0.499060765472864
0.489434290934546
0.501809505271449
0.492118175230689
0.512225581988732
0.499381550296441
0.502752428151567
0.492988017036453
0.493256266435381
0.497435287871699
0.494776245636994
0.505980737906008
0.496072165792274
0.488214406898385
0.49751522593145
0.496416934085937
0.493640372453603
0.49220360177036
0.494876881838925
0.48980824234473
0.486794426107542
0.48705351913094
0.481438098155298
0.479486561340263
0.477750803403095
0.474596766610319
0.472259808403406
0.46480694562186
0.471913394454211
0.456521218662147
0.457951847958687
0.452750173939075
0.451916544178923
0.443645360836395
0.447662720502283
0.438809738716339
0.442186340518877
0.434207651665052
0.436444794079404
0.432449874755902
0.430601500859586
0.428967855658853
0.430992229440509
0.426217801656353
0.42839833028142
0.423069715953712
0.429395721753382
0.41999036322587
0.428324573565401
0.427224370120462
0.429474047863016
0.426643860151529
0.435698141845449
0.430261171277814
0.438203956143893
0.431220865229361
0.434467827967029
0.435379408322523
0.439419696349892
0.440593721536424
0.442320815227621
0.444489553468484
0.443819051888572
0.447697344592385
0.451539222182061
0.447463963200047
0.451861832033709
0.455958798658603
0.455713522451463
0.454655837001879
0.455927239900089
0.455785282956011
0.457242073860775
0.452348206224551
0.456169860410471
0.453198689127799
0.454418555919876
0.450735472386462
0.452627085780159
0.447366192933208
0.447297308987119
0.439116707288109
0.449753328826789
0.445170934525841
0.445966851782183
0.443868660556275
0.440685050401823
0.435874564783539
0.435670911730672
0.432494921809139
0.434866511818248
0.424408603045601
0.433897974396253
0.431037925704299
0.431567120223252
0.427481927178748
0.425708556014614
0.423809786565956
0.426174965174068
0.418947909994337
0.420007175688447
0.421822891258043
0.423186561025418
0.417526005104288
0.418516403710687
0.413753556567143
0.415051176346967
0.414431310816133
0.412484040915864
0.406583117477599
0.403355193933752
0.404667197837679
0.407649566811131
0.401981792717478
0.399855881178876
0.39628072165689
0.398224709370058
0.391496440377329
0.38750537198422
0.384764788748169
0.379709697661459
0.376266066008674
0.376790286970535
0.373500384470971
0.373335889445546
0.369264959751707
0.371693204686116
0.367394061803787
0.366012139327436
0.367654810861653
0.368429426748359
0.36469150445845
0.368824959036856
0.364050963326799
0.361497081324801
0.358156597661948
0.357844183069418
0.353782148431388
0.351498497457021
0.348790053617007
0.343713171397799
0.338799143677887
0.335806502711955
0.330656425267767
0.32755890152012
0.323177962190964
0.325421419854778
0.324146670966518
0.327815258323788
0.32595980285976
0.330943069070245
0.336681671585328
0.339312395506019
0.349937058398642
0.363601312908649
0.370593137609943
0.381791443719016
0.394213525438562
0.411775945053988
0.425878183323092
0.444955640686206
0.455742973567662
0.475047061467655
0.490734108689891
0.50567905471666
0.518291947348088
0.538911174787333
0.55276953821116
0.571687569406104
0.581443221033192
0.595209395625833
0.608782417514361
0.622938199489869
0.636352722349458
0.650886674500835
0.659034204085409
0.673103855677553
0.684863218289822
0.687070932592507
0.703535364800729
0.710298668943417
0.712936237958885
0.72198531333598
0.723690389398224
0.734730333061234
0.731034679065979
0.737901401620396
0.736153413378896
0.742158429646697
0.740977819971268
0.732953537734308
0.737626265247343
0.7498125832238
0.753035372605587
0.753840511632734
0.758194973499462
0.752490720798986
0.746450342767698
0.753350535757171
0.767971596349804
0.766831908287983
0.773559318230607
0.775321265403669
0.777128772986643
0.786400790069954
0.789584516640364
0.801533752154155
0.81090938330413
0.816777299818399
0.826296702043175
0.831634235127934
0.837356785691929
0.856071861634357
0.863081418444797
0.874722103655512
0.886114978413367
0.905644982046201
0.910740867930817
0.923607653704932
0.928404538887048
0.935032921300848
0.960368952467915
0.954097974410076
0.963707757345092
0.946687874504212
0.946671400087541
0.944507371662171
0.95396431849691
0.945751915829453
0.939608308390742
0.945607756492808
0.938511431506451
0.93744120719551
0.946326971952816
0.934762994731618
0.955011598872304
0.95839639201598
0.980323710152041
0.994397929964466
0.99928033675021
1.01580925692691
1.03109306406196
1.03715683607578
1.0604833772226
1.07282348198622
1.08648663023546
1.08943176197041
1.11860662625979
1.14242235169934
1.15341448969285
1.16774731251216
1.15850753625556
1.19417833961627
1.20550439765137
1.24668800406726
1.27018197885814
1.28435990191442
1.29579373302682
1.32607585610533
1.35115731626296
1.38029918857345
1.41396233347782
1.42774639773181
1.41353196738405
1.46264186015615
1.48992001123186
1.44783158616248
1.45974921362371
1.49923140606733
1.52933581863105
1.62793933724237
1.63487386346925
1.58172668147626
1.59839392740233
1.56818584529837
1.65931792799449
1.51760454566736
1.54829361185131
1.57663585944699
1.58290390502492
1.58333541024733
1.55513601028396
1.62004365627294
1.64016975406823
1.52690747518757
1.53911953974381
1.62257487088484
1.58929092341677
1.55846708800822
1.61357152337866
1.60851521411694
1.70214555849783
1.60763280777567
1.70401164161215
1.65436318277339
1.65290157522388
1.70337149337751
1.66728143026346
1.66294445817291
1.66390666970349
1.70386304282723
1.75436350826057
1.72227744878505
1.74260982176162
1.72262279745912
1.87078800621721
1.76737555349117
1.79878132911031
1.83993021493563
1.8158035517721
1.81995266093347
1.84629506420974
1.83514098898504
1.83363336778741
1.80430294489803
1.88094023426683
1.70567580806834
1.86552720141121
1.898410069839
1.98856175507059
1.84339785607553
1.96550511453512
1.84203925143203
1.79615865709425
1.8467827058538
1.80057489232562
1.99507436547493
1.78225317672464
1.84712078630021
1.87303729244704
1.83680911503107
1.74002029778175
1.78457554391123
1.75445304118102
1.60948907772773
1.60331104910403
1.55269749337764
1.48508934461971
1.43224809193293
1.42224861089021
1.36599041986118
1.32959114887923
1.27490504902591
1.28621778419
1.24417029783963
1.23570342060861
1.22006354077543
1.19659167664677
1.18663636319883
1.17444317041318
1.16435027718817
1.1688228852556
1.14996891064027
1.14214505083789
1.12704545998214
1.14347063255216
1.10730449637619
1.12646496313983
1.07301003854707
1.06240283424882
1.04923095523825
1.02948984710818
1.01828008855438
0.996830779055617
0.972300593752889
0.932494799395122
0.89737516318822
0.88738545910758
0.860229729874851
0.836149568021541
0.804082653170889
0.764322499548796
0.746448800418494
0.721255577036133
0.679199066466149
0.659454672094018
0.615583468774236
0.59826393461687
0.569780394945349
0.553242193480563
0.526800556484632
0.50821162992209
0.49264459354811
0.487007414089246
0.461871906979455
0.449946846436661
0.445667080828424
0.433083618315478
0.421812155618633
0.417266415005714
0.412187733961973
0.40875544492187
0.403270520587713
0.399361515397267
0.395815650813176
0.395430247805805
0.396061918980613
0.396043897385831
0.391679955945703
0.40384495615741
0.397089323491876
0.398803797527227
0.401571241935974
0.397899872013834
0.399456860736572
0.404569593308766
0.401198571570086
0.400947527937603
0.395260490070042
0.392344516431906
0.392878679181292
0.388164121246547
0.384418242457831
0.380437795490472
0.378067119706536
0.376088447363106
0.369579620037743
0.371902250693366
0.369314089447982
0.371120636590777
0.368331473021753
0.376417873144494
0.371670825872911
0.375815693478609
0.377176338876537
0.382510208532647
0.385986668284973
0.387827603886858
0.379765079435703
0.387062866293513
0.391456537392887
0.402491374549642
0.396021038302742
0.40024753043436
0.401435196887762
0.407561452944499
0.408130646795307
0.402974749334767
0.403428895893996
0.404114044122808
0.412142764081834
0.413824657769753
0.411501143088846
0.414895442840996
0.41407244514809
0.41467801979908
0.417660809770151
0.427597261640077
0.417464031974758
0.426068576978911
0.433764719751663
0.451387308033881
0.45181698989129
0.476010055626916
0.473832064032075
0.485178956992968
0.500674381760583
0.516299763793099
0.521772675293635
0.525969528456406
0.537768474410207
0.54957828331632
0.545513973688948
0.542715325418409
0.535225722309259
0.536469555445796
0.522280932448683
0.519880997899148
0.517266862951834
0.509660889764503
0.494730862318054
0.495672644846387
0.485024160899219
0.477002905261201
0.473442843902743
0.486599599102376
0.489489954021536
0.494475204335298
0.488096581381852
0.493310066505343
0.496428816381561
0.485029342473805
0.47863770111388
0.488667776495015
0.47036954299891
0.472561470547058
0.46138825201588
0.467617389505334
0.443676514106328
0.452402214699243
0.439998008697394
0.447640528852414
0.433653179390025
0.432668331386589
0.424339238996444
0.436154611169728
0.434353909602142
0.434114983318557
0.428233834921517
0.424171621150332
0.413161734446414
0.430746920116984
0.420194611324271
0.420875906570375
0.41104090789256
0.416491982595479
0.399178402223462
0.408506235610405
0.404937692353217
0.400111850203797
0.393125765801002
0.403084935389038
0.385461769099588
0.388496724635081
0.392986038796606
0.398826730897358
0.383509722550338
0.390674435461806
0.375272375454321
0.382369742776391
0.374878504256896
0.37326788988646
0.367884823335231
0.368563714619347
0.369388166488166
0.368296261809052
0.367544575539667
0.367841977124574
0.367260622795215
0.368025148579692
0.369143041671931
0.374721944900939
0.36927512719752
0.354527724174099
0.372467152302083
0.370308091739812
0.356266263947211
0.370590466996188
0.367298187923028
0.373725514171903
0.375871827696508
0.384150016912514
0.375941203651504
0.379915200495142
0.368636065065356
0.377877399363655
0.382956484098991
0.395046962765181
0.392528210928237
0.390044863466955
0.390110548317749
0.400670810987176
0.382285217658455
0.413837882242356
0.417971991496939
0.418482157051791
0.422737285981406
0.42539295166485
0.43087830799242
0.439589806374867
0.436615408861648
0.459504761125014
0.45816825433863
0.467129243436233
0.460271203854135
0.505580749128084
0.511018600620298
0.500789246015858
0.54210409027105
0.534125863551268
0.530565842047181
0.582641456733938
0.590950792511363
0.589642697333187
0.596242521531841
0.625823213844577
0.632535175164442
0.657280663034083
0.630561195168299
0.662399482822725
0.634356762367777
0.638954196414901
0.651988246433181
0.669568986269019
0.636690321535467
0.616482011595512
0.64187609465026
0.636735266640218
0.617514778052218
0.623644920226751
0.605062870126625
0.634430677802681
0.61957201725276
0.626956626890347
0.616511004236517
0.596600510429432
0.605572788525184
0.618189956526216
0.603434828076285
0.628698757410441
0.59964784594341
0.609670288913397
0.625788621953109
0.614443855651574
0.566820103360652
0.586154532326829
0.586961422750713
0.582538416525439
0.565046127340305
0.540520008077194
0.537407935906951
0.566625295021195
0.548926758433008
0.554095430447102
0.522482626034622
0.573921508616698
0.585404517268223
0.571679531146354
0.530010742961315
0.563969406146676
0.57835217931859
0.610218848774202
0.560531649648736
0.571025359357421
0.541198568448527
0.561568687969525
0.557222133066898
0.576684400575177
0.553639935245717
0.550277282827048
0.609621631992577
0.646842172476119
0.623557106731425
0.600709211813034
0.60977517883105
0.5933015235195
0.599301366357483
0.582442300533048
0.564504956414675
0.620759711600072
0.557388191006923
0.618620133449622
0.595541433054117
0.613734708510665
0.63271695352817
0.660742376219169
0.645815508629554
0.632653974043762
0.601277803703096
0.67476963132622
0.672623890515843
0.719454668656065
0.679983841220152
0.71434227310756
0.693859693633674
0.758025111193654
0.751045445939872
0.803831054700087
0.808606652448713
0.855344976188555
0.702234537630833
0.774227681256401
0.792707211917949
0.905809254163161
0.703666220786477
0.696481485000658
0.743868592358896
0.756734781100877
0.809197483502916
0.83838056838513
0.689807196235117
0.92415159858061
0.875264149873651
0.797502610407998
0.731911589667162
0.757674354475422
0.719590791354931
0.716364299081903
0.786442580577465
0.700114819299053
0.591928818904303
0.828729493267062
0.858069015396505
0.751774046768349
0.660838894649867
0.770036123230005
0.765256842040282
0.839092936460366
0.537878923802193
0.698366173016025
0.854488887520218
0.780056100297489
0.694564008363718
0.784091738084458
0.974035976096817
0.8476437401584
0.563462337850785
0.762867059026153
0.989030034387969
0.718943859966952
0.863605651545491
0.866469464484603
0.812184194046837
2.46815145580037
0.685089034891532
1.01850142465228
0.832922685865415
0.713216054570089
0.792670023174682
0.768465400274661
0.675855735652616
0.838249782360674
0.846566218866914
1.19282213578901
0.812192073788799
0.720222429122224
0.673929704084865
0.943600100698834
0.695673726071132
5
5
0.609054277389685
1.10387091667974
